60154169996,-12,-4,-3,-1,-2,-3,-3,0
60154169996,0,-3,-3,-1,-3,-2,-1,-2
60154174758,0,-3,-2,-2,0,-1,0,-1
60154174758,5,2,-3,-1,-2,0,-3,-1
60154175492,1,-1,-2,-1,-1,-1,-2,-2
60154175492,-5,-5,-4,-4,-4,-3,-5,-2
60154176304,-4,-3,-2,0,-3,-2,-6,-3
60154176304,-2,-4,-3,-2,-2,-1,1,1
60154177966,0,-1,-4,-3,-2,-3,-4,-2
60154177966,0,3,-2,-1,-2,0,5,3
60154187414,-4,-14,7,4,4,1,-1,-1
60154187414,-8,-3,-1,-1,0,-2,-1,-6
60154196817,2,0,0,1,-1,0,3,-1
60154196817,2,1,-3,-3,0,-2,-1,-1
60154202474,-2,1,-5,-2,-2,-2,-2,0
60154202474,-4,-4,-2,-1,-1,-3,-3,-7
60154218215,18,3,2,-1,-1,1,2,-4
60154218215,-24,-6,0,-2,0,-2,-2,4
60154233018,-1,4,-3,-4,-2,-2,1,-2
60154233018,0,-2,-2,-3,-1,-1,0,-1
60154233711,0,2,-2,-6,-3,0,-3,-1
60154233711,5,-1,-2,0,0,-2,2,-2
60154257322,0,2,-1,-2,-3,-1,-2,-1
60154257322,-2,0,-1,3,2,-1,2,3
60154259449,-6,-2,-1,0,0,-1,-2,-1
60154259449,0,1,-1,-2,-3,0,-1,-1
60154277173,5,1,-1,-2,-1,0,1,2
60154277173,-1,3,-1,-3,-3,-1,-3,-4
60154311390,-1,-1,2,1,2,1,-6,-2
60154311390,-1,4,-1,-4,-3,-1,0,-3
60154312235,-1,-4,-5,-1,-1,-1,-2,-2
60154312235,-1,-1,-3,1,1,-3,2,-3
60154316038,1,-2,-4,-4,-2,-3,-1,3
60154316038,0,-1,-2,1,0,-2,-5,0
60154316803,-2,-1,0,0,1,0,-1,-1
60154316803,-1,-3,-3,-2,-2,1,-4,-4
60154346597,2,0,-5,-3,-4,-3,-3,0
60154346597,3,-6,-3,1,-1,0,1,2
60154347363,-3,-1,-4,0,-2,-1,2,0
60154347363,-3,1,-3,-3,0,-2,-2,-1
60154349004,-9,-5,0,-2,1,0,4,-1
60154349004,2,1,-2,0,0,0,-5,-3
60154352107,-2,-1,-3,3,-1,-2,2,-1
60154352107,5,-1,-4,-6,-4,-4,-4,0
60154367087,0,-5,-5,0,-3,-3,-1,-1
60154367087,-16,-5,-5,-6,-5,-3,-3,-8
60154383627,14,0,-4,-2,2,-1,1,0
60154383627,-5,-6,-1,1,-2,-1,-2,-4
60154385051,2,5,-1,2,0,1,-3,-3
60154385051,-7,-5,-2,1,0,-4,-1,0
60154405996,-5,-10,3,2,-1,0,0,2
60154405996,-2,-3,0,-1,-1,1,0,2
60154407584,-5,-2,-1,-1,0,-2,-1,-2
60154407584,0,-1,-1,0,0,-1,-2,-3
60154419605,-1,2,-1,-1,-2,-1,-6,-5
60154419605,0,1,1,0,-1,-1,-1,-1
60154434540,-1,-2,0,1,1,0,-2,-4
60154434540,1,0,2,0,-1,-1,3,-1
60154443411,-1,1,1,-4,-2,-3,-1,3
60154443411,-4,1,0,1,-1,-2,-2,-4
60154445005,-3,-3,-3,0,0,-2,0,-3
60154445005,1,1,1,0,-1,-1,-4,-2
60154465980,-5,0,-2,-2,-3,-2,-2,-7
60154465980,6,1,-1,0,-1,-1,-1,11
60154467583,-4,1,0,-1,-2,1,2,-6
60154467583,-3,0,2,0,0,-1,-1,-2
60154479717,-3,-2,1,0,-1,0,0,0
60154479717,-3,0,2,-1,-1,0,2,-5
60154488631,14,5,2,-2,-2,-3,-2,0
60154488631,-18,-11,-1,-3,0,2,8,4
60154503519,4,4,-3,-3,-2,-1,-5,-3
60154503519,-4,-2,0,0,0,-1,-3,-1
60154505081,4,-9,6,3,0,1,4,3
60154505081,3,1,-1,-2,-1,-3,-10,-8
60154525960,-6,-2,0,0,0,0,1,2
60154525960,3,-2,-2,-2,-1,-1,0,0
60154527546,-4,-6,0,-1,-1,0,-2,0
60154527546,5,3,-3,-1,-2,-2,2,3
60154539693,-4,0,1,0,-1,-2,-5,-3
60154539693,1,0,-1,0,1,-1,-5,-2
60154548579,-5,3,-3,-5,-6,-4,-4,-3
60154548579,2,1,0,-1,-2,0,1,-2
60154563593,3,1,-2,-3,-1,-1,-3,-3
60154563593,-3,-2,-1,2,0,0,-1,-1
60154565050,-1,2,-1,-1,-1,-1,0,2
60154565050,4,-1,-1,0,0,0,-3,-3
60154586050,1,-1,-1,-3,-1,0,2,-1
60154586050,-2,-1,1,-2,-2,0,4,1
60154587573,-6,-3,-3,-2,-1,-3,-4,-8
60154587573,7,6,-1,-3,-3,-3,-3,9
60154608474,-2,-1,-1,-2,0,-2,4,-1
60154608474,-1,1,0,0,-1,-1,-2,-1
60154610056,12,4,-1,-1,-2,0,-2,0
60154610056,-14,-2,-2,0,-2,-1,3,-1
60154622806,-4,-3,0,0,-2,-2,-4,2
60154622806,-2,-2,-1,-2,0,0,3,-1
60154629573,-7,0,-2,-1,0,2,1,0
60154629573,4,0,-2,0,-2,-2,-3,-3
60154646103,-3,-1,-1,0,-2,-2,-4,0
60154646103,-2,-2,-2,0,-2,-1,0,-3
60154647587,-1,-2,-2,1,0,-1,-1,-1
60154647587,1,-4,-2,1,-1,2,3,1
60154668574,-2,-2,-3,-3,-1,-2,1,-1
60154668574,2,0,0,-9,-4,-3,-9,-2
60154670052,-3,-1,-1,0,1,-3,0,0
60154670052,2,0,0,1,-3,1,2,2
60154682863,2,-1,1,6,1,-1,1,-1
60154682863,-3,0,-1,4,-1,0,-3,-2
60154683536,-4,-2,-9,-13,-5,-2,-3,0
60154683536,0,-1,3,4,3,-1,0,-2
60154705347,0,-3,-2,6,4,1,-2,-1
60154705347,-2,-3,-2,-9,-14,-7,-4,-3
60154706036,-2,0,3,6,4,3,5,2
60154706036,2,1,-1,-6,-3,-5,-4,-2
60154727891,-1,2,3,2,4,5,2,-1
60154727891,-2,-1,-6,-8,4,3,2,0
60154728589,-2,-3,-5,0,2,1,1,0
60154728589,2,-2,-1,-6,-4,-3,-1,-2
60154742863,-6,-4,-1,4,4,4,-5,-8
60154742863,1,0,0,0,-3,0,2,7
60154743540,1,1,1,-6,-6,-3,-4,2
60154743540,0,-1,0,5,2,-11,-3,-5
60154765416,-1,2,0,0,1,3,4,2
60154765416,-5,-8,-5,3,9,0,-1,-3
60154766085,3,3,0,-3,-4,1,-1,1
60154766085,1,1,6,-2,-2,3,-4,2
60154787924,-1,0,-10,-22,-23,-14,-6,-1
60154787924,-2,-3,-1,0,1,-4,-1,-3
60154788562,-3,-1,5,5,0,-11,-6,-5
60154788562,1,6,-7,24,24,13,1,3
60154802148,-5,-6,7,-8,-7,2,4,-4
60154802148,-10,-9,-7,-3,-3,0,3,-3
60154809738,7,-2,6,-1,-3,-7,-2,6
60154809738,0,-2,-4,-7,-3,2,1,-2
60154825338,4,1,-11,1,0,-6,-5,2
60154825338,1,2,0,2,3,0,-4,-5
60154826039,-1,4,-4,3,0,2,2,-5
60154826039,6,1,-5,-4,-6,3,3,7
60154847736,-20,-2,-3,-3,0,-4,-6,-24
60154847736,-1,-3,9,-1,-2,-1,2,20
60154848535,-5,2,-9,3,-6,-6,-4,-4
60154848535,1,-11,-5,-29,-4,2,2,0
60154862216,-2,-3,3,15,1,-4,-3,4
60154862216,2,4,6,20,10,8,-1,-14
60154869684,-8,-1,9,2,0,-1,-3,-4
60154869684,10,1,-12,-11,-7,-4,-1,12
60154885275,14,9,-2,-15,-6,0,3,8
60154885275,-10,-6,0,-2,3,0,-1,-10
60154886023,-15,-11,-5,-1,2,-1,-1,-8
60154886023,-14,-1,9,-2,-8,-5,-6,-23
60154907807,16,-4,-6,2,4,0,3,29
60154907807,9,10,15,5,-1,-1,-2,3
60154908538,0,-9,-15,-1,7,1,0,-7
60154908538,-2,-10,-14,-5,-11,-6,-3,10
60154922077,-10,-5,9,3,-3,5,1,-13
60154922077,17,10,-7,-1,-6,-14,-7,18
60154929543,-6,6,-4,-11,-2,2,0,-13
60154929543,-20,-11,5,11,2,1,-1,-16
60154945212,4,7,-7,0,4,-1,0,-1
60154945212,4,-2,-1,-9,-9,-1,-2,1
60154946003,8,4,4,-2,5,-2,3,9
60154946003,7,13,5,8,2,-1,-1,4
60154967755,0,-5,-4,-13,-11,1,0,-4
60154967755,2,6,-1,3,0,-1,1,-3
60154968515,18,11,7,10,6,7,4,19
60154968515,-22,-25,2,-6,-11,-4,0,-11
60154982188,-5,-5,-4,8,12,10,-2,-10
60154982188,5,-4,-5,-12,-20,-8,0,10
60154989754,-6,-4,1,0,2,-1,-3,-8
60154989754,-25,-12,-9,-7,1,1,-3,-20
60155005302,9,13,9,-2,-3,-8,-1,12
60155005302,21,5,7,4,8,6,7,19
60155006050,-4,-6,-11,-5,-6,-1,0,12
60155006050,-1,-11,17,8,1,-6,-3,-4
60155027780,-7,0,12,0,3,-1,-5,-8
60155027780,12,16,-19,-5,-5,-1,-3,0
60155028564,-13,-25,-13,-15,-6,-4,-4,-8
60155028564,3,8,-1,10,9,7,5,5
60155042183,-4,-5,-11,-14,-5,-1,-1,-1
60155042183,-11,-10,5,4,-1,-5,-10,-13
60155049719,6,9,5,6,5,1,-2,3
60155049719,7,0,-6,5,-3,-1,-1,7
60155065398,5,1,5,16,11,4,3,6
60155065398,-12,-9,-7,-13,-5,2,2,-10
60155066084,7,5,-2,-7,-5,1,3,4
60155066084,11,6,-3,-12,-5,-4,-5,-3
60155087923,-3,-2,-4,-16,-7,-9,-2,9
60155087923,-23,-2,-4,3,9,5,0,-19
60155088550,-16,-11,2,8,0,-1,-3,-25
60155088550,14,16,3,-2,0,0,6,23
60155102061,-10,-14,-9,-7,-3,1,-2,-7
60155102061,24,4,-5,-9,1,-3,-2,-1
60155109736,-23,-5,0,-5,-6,0,1,-6
60155109736,12,4,6,28,9,0,2,12
60155125307,6,5,4,3,-2,-6,-5,-2
60155125307,-1,-8,-2,-2,1,0,0,2
60155126043,16,8,-3,-10,-4,-2,-2,-2
60155126043,-13,3,1,-12,-1,-3,-6,-19
60155147836,2,4,4,-1,-4,-3,2,21
60155147836,-15,-2,-1,5,3,3,1,-13
60155148517,9,1,5,3,-2,-1,-1,2
60155148517,0,-3,1,-5,-4,-6,-4,5
60155162198,6,0,-8,0,2,2,0,-16
60155162198,-29,-11,0,-4,-2,-2,-1,-1
60155169621,10,3,2,2,-1,0,8,20
60155169621,-13,-7,-8,-2,0,0,-5,-13
60155185384,-8,10,-2,0,-1,-4,-7,-11
60155185384,4,-7,0,3,0,-2,0,-6
60155186033,-16,-2,2,0,-1,-4,-9,-28
60155186033,-1,2,-2,-5,-3,-1,6,16
60155207835,9,-13,-1,5,3,6,10,12
60155207835,-18,-5,-4,1,-2,-5,-12,-17
60155208567,6,-11,-4,0,-3,0,-1,8
60155208567,1,4,-5,-5,-3,-3,-5,-10
60155222192,-5,4,2,9,11,-2,-2,-2
60155222192,14,4,3,-5,-8,5,10,13
60155229730,-9,-4,-6,-9,-6,-6,-11,-9
60155229730,-4,-3,-2,2,4,3,6,-10
60155245338,-10,-10,-1,0,-4,-5,-7,-7
60155245338,3,3,7,3,7,-1,-3,-5
60155246044,2,2,-4,-1,-1,1,0,14
60155246044,6,-4,-1,-1,1,1,1,18
60155267944,-1,5,-2,0,-5,-6,-3,-8
60155267944,-2,-4,-9,-5,-4,-4,-4,-4
60155268539,5,-1,2,5,1,2,3,5
60155268539,-6,4,-4,0,1,0,-2,-5
60155290504,0,-9,-7,-2,-2,2,1,-3
60155290504,12,-9,-5,-2,-4,-3,-2,8
60155291046,-13,7,2,-3,-2,-5,-1,-14
60155291046,-1,-10,3,1,-1,1,-2,0
60155313700,-9,2,5,-2,-3,0,-2,-8
60155313700,-5,8,4,2,2,1,1,5
60155314240,14,-4,-3,1,0,-1,2,22
60155314240,-2,3,-1,-2,-1,-2,-3,-12
60155327876,-5,-8,-2,-1,-4,-2,-1,-3
60155327876,6,3,0,0,5,2,1,3
60155328559,3,2,4,4,1,1,3,-5
60155328559,-2,2,-4,-8,-8,-5,-12,-7
60155350411,2,-3,-3,-4,0,-1,-1,1
60155350411,-4,-4,-6,2,0,1,4,-3
60155351086,8,4,0,-2,-1,2,3,7
60155351086,-6,-4,-4,-3,-1,0,2,-10
60155373514,6,0,-2,-2,1,-1,-5,-4
60155373514,-1,10,3,0,-3,-2,5,7
60155374228,-8,6,-4,-6,-5,-5,-8,12
60155374228,1,-19,6,8,6,7,7,-21
60155387864,-12,-1,2,0,-4,-5,-6,-12
60155387864,-29,-7,-4,-3,-2,-4,0,19
60155388536,16,6,2,3,2,3,-2,-4
60155388536,12,3,-7,-9,-7,-7,1,37
60155410304,-10,-3,-3,4,4,6,8,6
60155410304,11,-3,6,3,-2,-1,0,-10
60155411107,-5,-1,-2,-2,1,0,-5,-9
60155411107,-8,2,-3,-2,-2,-3,-10,-22
60155433423,2,4,-1,-1,0,3,14,17
60155433423,10,5,0,-5,-3,-4,-3,7
60155434206,7,-2,1,6,2,0,3,21
60155434206,-15,1,0,-3,-2,-4,-7,-41
60155447695,-5,-10,-6,-3,-3,-2,-10,-8
60155447695,-9,-2,1,-1,-4,-5,-12,-22
60155448453,-30,-9,-3,-2,0,0,4,-13
60155448453,44,6,-2,-2,0,0,14,61
60155470315,2,6,-7,-6,-4,-4,-7,-23
60155470315,-4,-4,-2,-4,-3,-1,-8,-17
60155471042,-6,-5,-4,-1,-3,0,12,23
60155471042,-9,6,2,-1,-1,-3,-3,-3
60155493484,1,4,3,2,5,4,3,3
60155493484,0,-7,-11,-4,-1,-1,-5,-9
60155494202,-2,-1,3,2,-2,-3,-12,-29
60155494202,-1,5,-2,-2,-1,1,0,-8
60155507724,1,0,0,0,-3,-3,-4,2
60155507724,7,4,3,1,-3,-3,-2,21
60155508531,-13,-13,-8,-3,2,-3,-3,-31
60155508531,15,-6,-2,2,2,1,-4,-3
60155530313,-17,-21,6,1,-2,-2,13,64
60155530313,20,2,-1,-2,1,3,13,-2
60155531011,3,8,0,-3,-2,-2,-4,-5
60155531011,4,8,3,0,-2,-1,-3,21
60155553542,2,-3,-6,-1,-2,-4,-10,-19
60155553542,-7,0,-4,-3,-2,-4,-1,-20
60155554238,-10,-6,3,-2,-3,-1,7,49
60155554238,0,5,-1,-6,-6,-6,-5,2
60155567825,-19,-10,9,4,-3,-3,-14,-49
60155567825,-6,-1,0,6,5,5,7,15
60155568455,9,-10,0,-3,1,-3,-2,-8
60155568455,-14,0,1,1,-1,1,2,13
60155590348,16,23,-7,-7,-4,-3,1,-1
60155590348,-15,-18,1,3,0,1,-3,-6
60155591048,18,-1,0,1,-1,-1,-5,4
60155591048,10,6,1,1,1,1,1,-5
60155613523,0,2,-2,-1,-2,-2,-5,-3
60155613523,4,6,-10,0,5,7,11,5
60155614213,-6,4,0,-2,-1,0,-2,-13
60155614213,-4,2,-4,-3,-3,-3,-4,8
60155627832,-2,-14,1,-1,1,0,-2,-23
60155627832,-9,5,3,-4,-2,-4,-5,-2
60155628627,3,0,0,0,0,-2,1,10
60155628627,-8,-4,0,3,1,4,3,-9
60155650386,3,-13,-1,0,-3,-4,-1,10
60155650386,-1,-5,1,2,2,-1,-7,-3
60155651012,2,1,0,-2,-1,-2,-3,-13
60155651012,-2,-3,-3,-2,-2,0,5,8
60155673601,28,0,-2,-2,-1,1,5,8
60155673601,-12,-3,2,0,-1,0,-4,-11
60155674241,2,5,3,-1,-2,0,-4,-9
60155674241,-17,-31,5,8,5,2,-4,-26
60155687182,11,3,-5,-2,-2,3,18,42
60155687182,-9,-12,4,-2,-4,-6,-3,-6
60155695443,5,-5,-4,0,0,2,-2,-9
60155695443,15,37,-7,-6,-4,-5,-11,-27
60155710335,-9,-37,11,7,4,5,13,27
60155710335,1,2,-6,-5,-4,-4,-9,-5
60155711009,-17,0,-2,-5,-4,-1,7,12
60155711009,-9,-4,-5,-2,-1,-2,0,-7
60155733413,0,18,-6,-2,-3,-4,-10,-2
60155733413,13,3,-3,-6,-3,-1,0,0
60155734180,-21,-8,-2,0,-1,1,2,-18
60155734180,6,-5,-3,-5,-3,-2,-2,15
60155747185,-4,1,-4,-5,-3,-5,-2,-15
60155747185,1,0,-1,-1,0,0,-2,5
60155762935,-10,-16,-2,1,0,1,2,1
60155762935,13,-2,-4,-2,1,1,1,6
60155770371,-34,5,-2,-3,0,-2,-7,-15
60155770371,-6,3,-6,-3,-2,-6,-8,-26
60155771030,18,8,0,0,-1,0,6,25
60155771030,-17,-3,2,-1,0,-2,-3,-17
60155793462,8,0,1,0,1,1,-2,-3
60155793462,5,5,-3,1,-1,-3,-9,-6
60155794209,-9,-12,-2,1,4,1,-1,-19
60155794209,-5,-3,1,1,-3,-1,7,11
60155807202,9,-17,11,6,4,3,-10,-18
60155807202,-21,-2,-6,-5,-3,-3,2,-13
60155815426,10,7,-4,-3,-3,-3,-8,-6
60155815426,2,-4,-2,-2,1,0,-1,-5
60155830317,6,12,-6,-3,1,4,13,18
60155830317,7,27,0,-6,-5,-4,-4,11
60155831013,-6,-10,0,-2,-1,-2,-2,-4
60155831013,-4,-4,0,1,-1,-3,-11,-14
60155853463,-1,7,4,1,0,-2,-11,-24
60155853463,6,1,0,-1,-1,0,12,28
60155854209,9,16,-7,-1,-4,-5,-11,-17
60155854209,6,-1,7,1,1,1,3,1
60155876026,1,5,-8,-6,-7,-5,-4,0
60155876026,3,-8,3,3,1,-1,-1,23
60155876702,-19,-5,-4,-3,-1,0,1,-29
60155876702,-2,-1,1,3,0,-5,-7,-9
60155890343,-5,0,-3,-1,2,-1,-6,-11
60155890343,-2,-17,-1,2,-1,-2,0,-5
60155891064,7,10,-3,-5,-4,-4,-9,11
60155891064,-1,4,-2,-3,-2,-1,8,12
60155912638,-1,3,-2,1,0,-1,-1,-2
60155912638,-5,6,-4,-2,-3,-3,5,13
60155920437,17,-9,-5,2,2,1,-5,-15
60155920437,-17,-14,-3,-6,-4,-3,-1,1
60155927085,-1,-2,0,0,-1,1,-2,-1
60155927085,2,5,0,0,0,-1,6,8
60155935267,-17,-11,6,-1,-1,0,4,2
60155935267,-2,-2,-4,-2,-2,-3,-10,-5
60155950184,1,3,-7,-5,-6,-5,-4,6
60155950184,4,-9,5,2,2,4,2,-3
60155950984,-5,5,0,-2,-2,0,-1,0
60155950984,-16,-5,-2,-2,0,0,8,5
60155973404,2,4,0,1,-2,-2,-6,4
60155973404,-2,10,-2,-5,0,-1,4,-4
60155974169,-1,-4,2,0,-3,-3,-1,9
60155974169,15,4,-3,-4,-1,0,-1,12
60155987114,-7,-4,0,1,-1,-2,3,-4
60155987114,8,3,0,1,1,-1,-3,-3
60155995233,17,-3,-5,0,-1,0,-1,19
60155995233,-7,2,3,1,-2,-1,8,-1
60156010531,-8,17,-4,-4,-1,-1,-14,-41
60156010531,-3,-11,0,1,0,1,2,-4
60156011023,6,4,-3,0,0,1,6,17
60156011023,-1,-3,-2,3,1,-1,-5,-1
60156033451,4,-5,-3,-4,-3,-4,-2,4
60156033451,-5,-5,9,4,2,1,-1,-17
60156034200,-2,10,-6,-4,-3,-5,-7,-10
60156034200,4,-4,2,-2,0,1,1,13
60156056038,5,1,0,-5,-4,-6,-8,0
60156056038,-21,-57,12,10,4,8,15,15
60156056733,2,5,-1,0,1,-1,-7,-9
60156056733,14,12,-2,0,-2,-3,-4,-17
60156070391,-13,-2,0,-3,-2,4,17,36
60156070391,17,11,-5,-6,-6,-5,-18,-4
60156071063,-10,-13,-1,-2,1,0,11,27
60156071063,3,-2,2,1,0,0,0,-16
60156093634,-3,-9,-5,-2,1,3,6,6
60156093634,0,8,-6,-2,-2,-3,-8,-8
60156094197,9,2,0,2,6,5,5,4
60156094197,-4,-3,-6,1,-1,-3,-8,-11
60156116122,19,18,-5,-1,1,0,7,16
60156116122,2,1,-9,-5,-4,-4,-5,-6
60156116739,7,10,-5,-9,-7,-7,-3,17
60156116739,-19,-9,-6,-3,-2,-1,0,-33
60156130323,-5,1,2,0,-3,-1,-2,4
60156130323,-7,1,-3,-2,-2,-3,-12,-15
60156131008,14,18,-2,-1,-3,1,4,-1
60156131008,-3,10,-6,-6,-4,-4,-8,9
60156153447,-1,-13,3,1,1,2,14,-1
60156153447,1,18,-9,-4,-1,-3,-6,-12
60156154216,-8,-3,6,1,-3,0,7,5
60156154216,-12,-20,3,5,0,2,-4,2
60156176037,1,-6,2,2,2,-2,-2,-21
60156176037,2,-1,-4,-1,-3,-2,-3,1
60156176692,14,-1,0,-2,0,-2,-11,-29
60156176692,-7,0,-2,-3,0,-1,-2,15
60156190091,-4,3,3,-2,-3,-1,1,-4
60156190091,3,1,0,-1,2,4,17,20
60156197861,8,-4,0,-1,-5,-8,-12,-10
60156197861,7,-16,8,1,0,3,6,10
60156213704,-6,-7,0,4,-1,-2,-14,-18
60156213704,10,9,-9,-5,-5,-1,8,29
60156214247,-17,-12,3,3,2,2,-1,-9
60156214247,3,-2,-5,0,0,-1,1,17
60156236008,-4,5,-6,-1,-2,-2,-4,8
60156236008,-10,-10,0,3,1,0,-8,-28
60156236735,-6,-13,4,4,2,0,0,-2
60156236735,7,10,0,-4,-2,3,14,26
60156250340,0,-4,-7,-3,0,-3,-4,-7
60156250340,-5,0,1,0,-2,-6,-11,-18
60156251035,4,-1,-4,1,0,2,11,26
60156251035,-12,0,-3,0,0,-2,-12,-52
60156273623,-4,-28,6,5,3,4,5,12
60156273623,0,0,4,1,-1,1,1,-4
60156274999,-12,8,-7,-3,-2,-5,-6,-4
60156274999,-5,-11,-4,-4,-4,-4,-4,7
60156296035,9,43,-6,-3,-1,-2,-4,-10
60156296035,-27,-24,1,2,0,-1,-6,-12
60156297524,18,5,3,2,3,5,9,13
60156297524,-21,7,-4,-4,-4,-4,3,11
60156309570,-4,6,-4,-5,-2,-3,-8,-9
60156309570,-4,-11,7,3,2,3,3,5
60156318518,-14,-6,-1,-4,-5,-5,-12,-21
60156318518,17,7,-2,1,2,2,1,1
60156333490,1,-7,0,0,-1,1,6,33
60156333490,-8,-1,-2,-3,0,0,2,-16
60156335053,-3,-1,1,1,-1,0,-2,-7
60156335053,13,9,1,-1,0,2,5,8
60156356048,-2,-16,-2,-2,-3,-2,-1,-1
60156356048,10,7,-2,0,-1,-1,2,11
60156357547,-11,-5,-4,-2,2,0,-9,-33
60156357547,7,-2,5,-1,-2,-3,1,22
60156370359,-10,-20,5,-3,-3,-4,3,1
60156370359,13,-4,-7,1,3,1,1,2
60156377223,-10,10,-2,0,-1,-3,9,16
60156377223,1,18,-10,-1,-2,-3,-11,-25
60156393569,9,-6,-2,2,-1,-1,-3,-3
60156393569,1,7,-4,-6,-4,-3,-1,1
60156395016,0,5,2,-1,-2,0,-6,-4
60156395016,1,-2,-4,-2,-1,-3,-6,-6
60156416110,4,7,0,-1,0,1,1,11
60156416110,-20,8,-6,-4,-3,-1,-5,-34
60156417543,-6,-28,5,3,2,3,-1,2
60156417543,-1,-9,4,-2,-2,-3,2,20
60156430312,-1,7,-5,-3,0,0,-1,3
60156430312,11,-5,4,1,1,-2,9,34
60156437059,1,4,-4,-5,-4,-5,0,-3
60156437059,-8,-5,3,4,1,3,-3,-23
60156453397,-1,15,-4,-2,-2,-2,-5,-7
60156453397,13,14,-8,-1,-2,0,0,11
60156455019,-10,-11,-1,0,0,-4,-3,-11
60156455019,-2,-22,-1,3,1,1,-4,-5
60156476036,-1,4,0,-2,-3,-1,4,18
60156476036,-12,8,-4,-6,-5,-3,-6,-31
60156477497,-3,1,-2,4,3,4,5,1
60156477497,0,2,0,-3,0,-3,-1,-2
60156490359,-1,-7,2,-1,0,1,-1,-5
60156490359,0,1,5,-2,-1,-2,-4,10
60156497221,19,7,-2,-3,-1,-3,-11,-15
60156497221,2,-2,3,1,0,3,11,21
60156513593,9,3,4,2,1,0,2,-2
60156513593,15,0,2,0,-1,2,4,15
60156515043,-6,14,-8,-6,-6,-5,-7,-6
60156515043,-1,5,-1,0,-3,-1,-4,-12
60156536023,-2,10,-2,-6,-5,-6,-3,-9
60156536023,-5,-31,13,5,1,-2,1,10
60156537534,1,-1,2,-3,-2,-1,-1,2
60156537534,3,4,-4,-2,-1,-1,-3,1
60156549668,8,-3,-4,1,-1,1,5,15
60156549668,-25,-6,-4,-3,-2,-4,-11,-40
60156558553,1,-5,1,3,0,2,1,3
60156558553,6,13,-4,-3,-1,-1,14,9
60156573567,-4,-6,1,1,2,-1,-3,-3
60156573567,6,3,-5,-1,-1,-2,-2,15
60156574993,-13,-15,-1,0,-4,-8,-14,-21
60156574993,0,-5,-4,0,2,3,5,14
60156596041,-4,-8,-3,-1,-2,-2,-4,-13
60156596041,-3,-15,3,2,5,4,8,3
60156597520,28,9,-1,2,2,0,1,12
60156597520,-8,3,5,2,-3,-3,1,8
60156609689,-4,-3,-3,-2,0,-2,0,-7
60156609689,0,4,0,-1,-1,-3,-8,1
60156618542,2,-14,4,0,0,4,15,14
60156618542,1,-9,4,3,0,1,-9,-5
60156633618,-16,-4,0,0,0,-1,-2,-20
60156633618,15,1,-3,1,0,0,1,8
60156635013,-4,7,2,0,1,1,-1,8
60156635013,0,6,-5,-8,-4,-4,3,-14
60156656049,-15,-17,-7,-3,-5,-5,-9,-10
60156656049,1,-19,5,4,2,3,10,20
60156657579,-3,5,-7,-5,-4,-3,-5,-4
60156657579,-1,-6,0,1,1,0,-2,-1
60156669670,2,-2,-1,1,0,1,-7,-4
60156669670,-5,7,-1,-2,-1,-2,-8,-28
60156678548,-6,0,-2,-3,1,2,10,22
60156678548,0,-20,6,4,3,2,9,4
60156693514,5,-1,3,-1,0,-1,1,10
60156693514,-3,19,-8,-4,-4,-3,-9,-15
60156695027,-7,-1,0,0,-2,-2,5,16
60156695027,-5,6,-3,-4,-3,-4,-9,-15
60156715929,-4,-4,-1,2,1,1,-1,-6
60156715929,6,-8,1,0,0,1,2,16
60156717515,1,13,-5,-5,-5,-2,-3,-9
60156717515,-6,-10,3,-1,3,-1,-8,-19
60156729543,9,5,-3,-1,-2,-2,11,30
60156729543,-6,-4,4,8,3,2,2,-6
60156738564,-1,10,-3,-3,-4,-3,-2,6
60156738564,20,9,-2,-1,-2,-2,-2,-12
60156753508,-5,5,2,0,1,5,1,-8
60156753508,-2,6,0,-4,-4,-6,-4,-8
60156755048,11,0,-5,0,1,-1,1,29
60156755048,-2,23,-7,-2,-1,-2,-2,-16
60156776080,3,5,-2,-3,-1,-1,0,-3
60156776080,-10,1,-4,-8,-6,-1,3,4
60156777496,-7,-10,-3,3,3,2,-4,-12
60156777496,-8,-12,2,-6,-5,-5,-9,-1
60156789687,1,1,-17,-2,-2,-1,-1,-11
60156789687,-4,2,0,1,-1,-1,4,6
60156798581,-8,-3,-3,-5,-3,-4,-9,-18
60156798581,5,2,-3,-3,0,-1,-1,6
60156813637,-22,-7,6,0,-2,-2,-6,-28
60156813637,30,0,1,-1,1,0,1,19
60156815049,-6,-12,-5,-1,-2,0,4,-2
60156815049,-4,9,-7,-2,-3,-3,-7,2
60156836051,7,-10,3,-1,-2,-1,1,10
60156836051,-4,7,-3,0,0,1,0,-2
60156837525,-14,-3,4,1,-5,-1,-2,-28
60156837525,2,-7,-2,0,-1,-1,2,14
60156849659,3,15,-4,-4,-5,-5,-10,-7
60156849659,-8,-3,-5,-4,-3,-4,-13,-18
60156858526,3,-2,2,-4,-2,0,16,20
60156858526,-4,-9,2,1,0,1,1,5
60156873650,4,13,-2,-4,-3,-3,-2,-4
60156873650,-2,-2,-3,-5,-2,-2,-1,-1
60156874995,2,3,2,-1,-1,-2,-3,-1
60156874995,-10,-11,0,5,1,1,0,-8
60156896006,-2,-10,2,0,-1,1,0,13
60156896006,-17,-6,-7,-2,-2,0,4,1
60156897531,12,1,-1,0,1,0,-5,2
60156897531,-10,22,-4,-5,-4,-3,4,-3
60156909664,4,-21,5,5,3,1,-1,-1
60156909664,3,3,0,1,1,-1,-3,4
60156918554,-12,-7,-1,3,2,3,10,-4
60156918554,11,-5,-4,-1,0,-2,-8,8
60156933473,-32,2,7,-3,-2,-4,-1,-24
60156933473,1,5,-2,4,0,0,-1,-3
60156935001,4,2,3,-1,-1,-1,1,6
60156935001,-4,-16,3,0,-1,3,6,4
60156955906,7,-26,-1,3,-1,-2,-5,4
60156955906,2,-3,0,-3,-3,-2,-1,-4
60156957673,-6,10,-5,-6,-3,-5,-3,-1
60156957673,-10,-28,-5,3,2,1,-3,-7
60156978376,7,7,-1,-1,-2,-2,-3,-3
60156978376,0,-4,-2,-4,-1,0,9,10
60156979974,18,8,-3,-4,-4,-9,-22,2
60156979974,1,4,4,3,4,6,24,2
60156993363,3,6,-5,-5,-2,0,-3,6
60156993363,6,7,4,2,1,2,3,-2
60156995026,1,-2,0,2,1,0,-3,-1
60156995026,-8,1,1,-1,-1,-2,-14,-17
60157016043,4,0,2,0,3,5,19,27
60157016043,-1,-2,-5,-3,-1,-6,-14,-20
60157017516,-10,-7,-2,-1,-1,0,1,-5
60157017516,6,0,0,0,-3,-3,-1,19
60157038512,1,2,-4,-2,-2,-1,-3,-11
60157038512,3,14,-4,-1,-1,-1,-4,-1
60157040004,7,-9,2,1,1,2,2,6
60157040004,-41,-1,-9,-6,-2,-3,-3,-22
60157053461,7,9,3,3,1,-1,-2,8
60157053461,-1,4,-1,-4,-5,-4,4,6
60157055017,-11,-7,0,-1,-2,-2,-7,-21
60157055017,17,1,2,-1,-4,-3,-4,12
60157075905,0,7,-1,-3,-2,0,-1,-2
60157075905,-23,-26,8,2,1,-1,1,-2
60157077528,18,6,2,-1,1,1,4,7
60157077528,5,-3,0,-1,-2,-2,-9,-11
60157098525,-4,-4,0,-1,-2,-3,1,4
60157098525,-2,-4,-5,-3,-1,-2,-9,-1
60157100000,0,-6,0,4,4,4,10,14
60157100000,1,-4,1,1,-1,1,7,0
60157113529,-2,2,-2,-3,-3,-2,-3,-8
60157113529,4,-5,-2,-2,-2,-3,-6,13
60157114990,-19,8,-9,-4,-5,-6,-10,-21
60157114990,10,0,-2,3,1,0,1,1
60157136039,-1,0,2,-1,1,2,-5,-1
60157136039,-2,-41,5,7,3,1,9,12
60157137538,15,6,-3,-2,-1,-1,-3,-13
60157137538,4,-1,2,1,1,-1,3,15
60157158504,-3,-3,-2,1,1,-2,-14,-30
60157158504,-2,11,-5,-3,-2,-1,2,-5
60157160012,0,10,-5,-2,-2,-1,4,0
60157160012,0,-4,-5,-5,-3,-4,-5,-6
60157172855,4,5,-1,-3,-1,-2,0,7
60157172855,1,1,-2,0,-1,1,-5,-10
60157179752,-9,-5,1,1,0,1,2,-1
60157179752,1,9,-1,-2,-2,-2,-5,-1
60157196071,-1,2,0,0,-2,-4,-11,4
60157196071,-4,-1,-7,-5,-4,0,12,-1
60157197531,-13,-7,1,2,1,-2,-2,-10
60157197531,10,-1,1,1,2,4,-2,0
60157218494,-1,-12,1,1,1,1,5,6
60157218494,-4,34,-11,-6,-5,-6,-10,-15
60157220036,4,-28,5,3,2,1,-2,12
60157220036,-2,-1,-2,-2,-2,-4,-3,-5
60157232807,-7,1,-4,-1,-2,0,3,-4
60157232807,1,5,0,-2,0,1,3,8
60157239678,21,6,-2,-5,-2,-1,2,8
60157239678,-19,-4,-2,2,0,-5,-15,-9
60157256692,-3,-3,-3,-1,1,-1,6,-1
60157256692,8,0,3,-2,-2,-1,5,5
60157258170,0,-6,2,1,-2,-2,-7,-6
60157258170,7,3,2,-1,-2,-2,-1,4
60157278539,2,-4,-6,-3,-2,-1,4,-6
60157278539,-8,10,-2,-3,-3,-2,-4,-8
60157280021,2,0,-2,-3,-1,-3,-7,-7
60157280021,-3,3,-1,-3,-1,-3,-6,-4
60157292838,-37,-9,0,0,-1,1,17,6
60157292838,22,-7,1,-1,0,0,-3,5
60157299616,16,-1,-1,-1,-2,-1,-3,-3
60157299616,-22,-9,0,1,1,5,8,9
60157315983,17,16,-5,-2,-4,-1,-9,-3
60157315983,-19,-16,3,1,2,1,-3,-1
60157317489,-6,-30,8,4,2,1,0,1
60157317489,12,-10,0,0,-1,0,3,2
60157338542,-5,1,-2,0,1,0,-2,-2
60157338542,-5,-1,-2,0,1,3,0,-5
60157340023,3,14,-1,-3,-3,-3,-3,5
60157340023,4,12,1,-4,-4,-4,0,-11
60157353221,19,-7,6,3,2,0,-3,15
60157353221,1,-2,-2,-4,-5,-6,-2,-2
60157359642,-16,-4,-6,-4,-1,2,-1,-4
60157359642,-6,-1,0,-1,-2,-3,-3,2
60157376027,6,3,-9,-2,-2,-2,-3,-1
60157376027,-3,-4,-4,-4,-3,-3,-5,-6
60157377506,-4,5,11,5,1,0,3,7
60157377506,23,5,-4,3,2,3,1,-3
60157398545,-16,-12,-26,-12,-6,-6,-14,7
60157398545,0,-1,3,1,1,0,15,4
60157400009,-12,0,0,1,-3,0,-2,-4
60157400009,-7,-3,3,-1,-1,-1,3,4
60157412138,10,5,19,19,3,0,-5,-7
60157412138,-9,6,-2,-11,0,-3,-4,-1
60157421095,-12,-4,-22,-15,-8,-5,-2,-11
60157421095,-6,-7,-14,-4,-6,-5,-4,-4
60157436021,11,1,4,-7,-2,-2,0,-2
60157436021,9,-3,5,11,2,-1,-5,1
60157437522,-5,4,10,6,4,2,2,-4
60157437522,-4,18,-5,-1,2,-1,-1,-3
60157458412,-2,-21,2,1,1,2,4,-2
60157458412,1,-3,-3,0,-2,-3,-2,-1
60157459973,-6,12,-3,-1,-2,-4,-3,-3
60157459973,0,-7,-1,-3,-2,1,0,-2
60157472022,-2,0,-2,0,-1,-2,1,1
60157472022,0,-1,-2,-10,-3,-2,-3,-5
60157481055,-5,-2,-6,-5,-2,-2,-3,1
60157481055,1,-3,2,1,-3,-2,-1,1
60157495981,-2,5,4,-8,-4,-2,0,-7
60157495981,0,-2,-4,3,1,0,-1,1
60157497530,-2,-3,2,3,0,0,3,-1
60157497530,-1,-1,4,-1,-1,0,0,-1
60157518523,-3,-1,-8,0,0,2,0,-4
60157518523,-2,0,-13,-3,-2,-2,-2,-2
60157519999,0,0,5,-1,-2,-1,-2,0
60157519999,-15,0,8,3,-1,-2,-4,-10
60157532203,18,6,-4,0,2,5,5,9
60157532203,0,-3,0,0,-1,0,-2,0
60157541048,-1,-4,-1,0,-1,-1,-1,1
60157541048,-4,-3,-1,-3,-1,-1,-1,-3
60157556053,-5,1,2,-1,-3,-3,-3,-5
60157556053,1,0,4,3,2,5,1,1
60157557552,-4,-5,-4,-1,-1,1,-1,0
60157557552,4,2,-2,-3,-1,-2,0,2
60157578588,-5,-6,-2,-2,1,-2,0,-2
60157578588,1,0,2,1,-3,-3,-3,-2
60157579993,-5,0,1,0,1,-1,-1,-4
60157579993,2,-2,-2,3,1,-1,2,0
60157592186,-3,0,-2,-9,-2,-2,-1,-3
60157592186,-4,-4,-5,-9,-4,-3,-3,-1
60157601021,1,-3,0,-2,0,-2,-1,-2
60157601021,1,0,0,-2,0,2,2,0
60157615988,-1,15,-2,3,-3,-2,-4,-4
60157615988,0,-1,3,3,2,-1,-2,0
60157617489,0,-1,-1,-2,-2,-1,-2,-1
60157617489,3,-3,-1,-2,-1,-2,-1,0
60157638529,-4,0,2,2,1,0,-1,-2
60157638529,1,2,-2,4,4,-1,0,-1
60157640022,-4,-4,-7,-8,-4,-3,-1,-2
60157640022,-1,-2,1,3,0,-4,0,0
60157652173,0,-4,7,7,2,2,0,-2
60157652173,0,0,2,6,9,12,3,-1
60157661046,0,-6,-12,-19,-21,-9,-1,0
60157661046,0,-2,-4,-11,-7,-3,-4,0
60157676021,-1,-3,-10,-3,-6,-5,0,-4
60157676021,-2,0,11,6,6,-1,-2,-1
60157677512,-1,2,6,13,11,7,2,-1
60157677512,-1,0,2,6,1,1,1,2
60157698652,1,0,-2,6,3,-2,-2,0
60157698652,-1,4,-14,-25,-15,-7,-5,-4
60157700026,-1,-1,1,5,8,-1,0,0
60157700026,-1,-4,-9,-10,-9,-1,-2,-1
60157712160,-4,-3,11,8,2,2,1,-1
60157712160,-1,1,-1,2,-9,-3,0,-3
60157721053,1,1,-3,-6,3,-1,-1,1
60157721053,-1,-3,-2,11,10,4,1,-1
60157736025,-2,-2,-6,-7,-14,-2,-2,-2
60157736025,-2,-3,-1,-11,-4,-5,-2,1
60157737516,0,6,3,19,3,1,-1,-1
60157737516,-1,-2,2,-15,-10,-4,-2,-1
60157758524,-1,-4,-5,-24,-16,-7,-5,-2
60157758524,-1,-5,-4,7,1,-4,-1,-1
60157759961,-2,-5,-6,6,9,3,1,-1
60157759961,-3,1,3,-1,-4,-1,-1,-3
60157772160,-2,1,-3,-4,-5,1,0,3
60157772160,2,3,3,10,6,0,-1,-1
60157781053,-1,0,5,-5,-14,-4,0,-1
60157781053,-1,-2,3,7,21,4,3,0
60157795981,-2,0,3,1,-1,-1,1,0
60157795981,-3,-6,-17,-23,-22,-8,-5,1
60157797665,0,-1,4,17,12,7,1,0
60157797665,-1,0,-3,-19,-20,-9,-3,1
60157818461,1,1,0,8,7,1,-2,-1
60157818461,0,-2,-1,23,10,3,1,0
60157820002,-2,-4,-13,-20,-6,-3,-2,-4
60157820002,-1,-4,-6,-22,-7,-2,-1,-1
60157832132,0,-1,15,11,13,3,0,0
60157832132,2,1,0,4,-2,0,0,0
60157841033,-2,-4,0,-4,-7,-9,-2,-2
60157841033,-2,2,5,34,18,9,1,-1
60157855415,-2,-1,-6,-16,-4,-5,-3,0
60157855415,-2,-6,-23,-3,-2,2,-1,-2
60157862162,-4,-2,27,3,0,-2,-1,1
60157862162,1,1,-12,-14,-12,-5,-2,1
60157878511,1,0,1,11,13,2,2,-1
60157878511,2,12,6,-3,-11,-2,-1,-1
60157880025,0,-5,-16,-8,-1,0,0,2
60157880025,-1,-2,2,1,-3,1,1,0
60157901028,-3,0,2,16,13,3,-1,-1
60157901028,-2,-5,-14,-30,-10,-5,-4,-3
60157902509,0,1,6,4,0,0,-3,-2
60157902509,1,1,9,20,6,-1,-2,0
60157915375,-2,-3,-12,-15,-14,-4,0,-2
60157915375,-2,-5,13,14,9,2,2,0
60157922192,-1,-4,-12,-21,-7,-2,-2,-1
60157922192,-1,-2,4,2,-4,-3,-5,-2
60157938495,0,1,-2,8,1,0,-1,-2
60157938495,-2,0,7,3,2,-5,-1,1
60157939970,0,0,-2,-2,-5,3,0,0
60157939970,-1,3,-4,9,21,3,0,-2
60157961068,-2,-5,-7,0,-17,-2,-2,-2
60157961068,0,-1,2,-8,3,-2,-1,0
60157962487,1,3,0,2,3,1,2,-1
60157962487,0,0,-6,-9,-5,-2,2,0
60157975347,-1,0,4,-7,-4,-5,-4,-2
60157975347,-4,-8,-17,-20,-7,1,-3,-3
60157982241,-2,2,12,5,-1,-3,0,-4
60157982241,-2,-1,-2,-19,0,-1,-3,-3
60157998459,-1,0,3,12,5,1,1,1
60157998459,0,-1,1,11,-3,1,2,-1
60158000006,1,-1,-8,-12,-10,-4,-4,1
60158000006,1,-1,-7,7,2,2,1,0
60158020930,-4,-5,-2,-6,4,-1,-1,-2
60158020930,1,0,5,18,10,0,0,-1
60158022488,1,0,-5,-8,-8,-4,-4,-2
60158022488,-2,-1,2,2,-7,-1,0,-2
60158043500,-1,-3,-14,-13,-7,-3,0,-1
60158043500,-1,0,10,-3,-9,-3,-2,1
60158045022,0,4,-15,-15,16,9,3,1
60158045022,-2,2,-10,-15,-23,-8,-4,-2
60158058606,-2,-1,7,1,2,0,-1,-2
60158058606,1,2,10,14,21,5,2,0
60158059997,1,0,-4,-3,-10,-2,-1,0
60158059997,1,3,15,23,4,-2,-2,-2
60158097239,-2,-3,-29,2,10,5,0,0
60158097239,-4,3,30,-24,-28,-10,-4,-2
60158098809,1,0,8,27,16,4,-1,1
60158098809,-2,-5,-8,-13,0,6,1,0
60158099631,1,-3,2,13,-6,-10,-5,-4
60158099631,-1,-3,-7,-12,3,3,0,-1
60158103480,-2,-3,0,7,2,2,1,1
60158103480,-2,-3,0,5,0,-2,0,-1
60158118544,-1,2,8,7,-1,-2,-1,-1
60158118544,-1,-4,-19,-7,-3,0,-2,-1
60158120012,0,-1,5,-2,-6,-7,-2,-2
60158120012,1,-1,5,24,13,-2,-1,1
60158141022,-3,-2,-11,-29,-5,1,0,1
60158141022,0,0,-1,32,11,4,1,-1
60158142534,1,1,8,-3,-6,0,2,1
60158142534,-4,-10,-16,-54,-36,-14,-9,-6
60158155706,2,0,11,17,9,6,8,2
60158155706,1,1,12,20,9,-2,-3,-3
60158163545,-1,-4,-16,24,15,12,3,-2
60158163545,-2,0,1,-4,8,-1,0,1
60158178496,-2,-1,-12,-16,-7,-5,-4,-2
60158178496,-2,1,16,-3,-11,0,2,0
60158179984,0,1,-1,-7,0,-1,2,1
60158179984,1,-1,1,-26,-19,-6,-3,-2
60158200925,-2,-3,-10,2,-6,-7,-6,-3
60158200925,0,1,2,10,14,0,0,0
60158202499,-3,-3,-6,-8,0,2,3,-1
60158202499,-2,-1,2,26,18,6,-2,-2
60158214655,-1,-1,-3,-19,-16,-4,-1,-1
60158214655,1,-1,-8,-20,-4,1,1,-1
60158223522,0,1,2,-4,-5,-6,-4,-2
60158223522,1,0,-6,12,2,5,2,2
60158238512,-1,0,11,11,5,1,-3,0
60158238512,-6,-4,-10,-34,-25,-16,-10,-4
60158240004,0,-2,-4,-1,7,10,10,-1
60158240004,3,2,-3,-16,-3,-3,-2,3
60158260978,0,3,14,23,12,4,-1,-2
60158260978,-2,-4,-5,0,-2,4,0,1
60158262522,-2,0,9,-3,-6,-14,-8,-3
60158262522,-1,-2,-2,-18,12,5,3,-1
60158274664,-2,2,14,13,-9,-8,-4,-1
60158274664,-2,-7,-15,-9,-12,-6,-2,-1
60158290976,-2,0,3,12,4,-2,-9,-2
60158290976,0,2,-2,1,-2,-1,3,-2
60158298488,1,-1,-8,-15,4,5,1,0
60158298488,1,0,-3,18,15,0,2,0
60158299992,-2,-3,-7,-11,-11,1,-2,-1
60158299992,-2,-1,0,1,-6,-4,3,0
60158321024,-4,-8,-11,-13,-2,-1,-2,-3
60158321024,1,3,9,16,-4,3,3,-1
60158322577,-2,-5,-13,-35,-13,-20,-11,-1
60158322577,-2,-3,-3,-5,-10,6,2,-2
60158334625,1,2,10,13,9,2,3,0
60158334625,-1,3,-17,-8,3,-3,-3,-2
60158343545,-2,3,13,-2,2,3,1,-1
60158343545,-5,-9,-18,-29,-33,-17,-10,-4
60158358489,-2,-3,7,29,10,3,1,-1
60158358489,-1,0,-2,-15,0,0,-1,0
60158359994,3,8,0,7,7,5,1,2
60158359994,1,0,-2,25,15,1,1,-2
60158388484,4,-2,-12,-35,-21,-11,-2,0
60158388484,-11,-4,0,18,13,1,-3,-4
60158390031,-4,0,3,5,7,11,6,-1
60158390031,1,-1,8,2,-8,-4,-1,0
60158394498,0,3,1,13,12,0,0,0
60158394498,4,-1,8,-1,-9,-2,-3,-1
60158403520,1,-2,-10,-24,-20,-26,-14,-4
60158403520,-3,-3,0,7,13,17,9,-2
60158418517,5,0,3,21,18,4,6,2
60158418517,-5,-7,-11,-33,-38,-10,-4,0
60158420015,-2,0,22,51,10,0,-2,0
60158420015,7,1,-15,-14,3,-5,0,3
60158441297,-1,-2,-18,-23,-2,0,-5,0
60158441297,-3,3,17,3,0,8,9,-1
60158446992,-4,-5,4,10,-2,-3,-5,-5
60158446992,-5,2,-1,-22,-9,-7,-4,-3
60158454516,0,-2,-6,-12,-5,2,-1,1
60158454516,-1,-2,-4,6,10,-6,-11,-5
60158463529,14,2,0,2,0,6,5,2
60158463529,-15,-9,5,13,5,-1,8,0
60158478346,-6,0,4,4,-2,-12,-10,-9
60158478346,-14,-6,-9,-23,3,18,14,1
60158480016,6,-2,-7,3,-6,-7,-2,1
60158480016,22,13,12,26,17,-8,-16,2
60158500917,-12,-6,-12,-28,-26,-6,5,-6
60158500917,0,3,19,65,34,1,-10,-2
60158502521,-8,-6,-23,-40,-8,8,4,-6
60158502521,10,2,7,1,-8,-2,-10,-3
60158514504,-20,-17,-11,-17,-5,-6,7,3
60158514504,14,9,-7,0,4,0,6,6
60158523546,-2,-8,-1,4,3,5,13,7
60158523546,-1,2,5,5,-6,-4,-11,-5
60158538643,-2,1,-2,-9,-2,2,-5,-8
60158538643,0,0,-5,3,0,-2,-11,-6
60158539962,4,2,3,8,3,-4,-1,1
60158539962,-16,-6,2,7,1,4,2,-5
60158561012,9,6,6,-2,2,3,-4,2
60158561012,5,-1,-4,-3,-7,-2,5,5
60158562473,-2,-2,-6,-8,-5,-3,-4,-3
60158562473,-7,-6,-4,-6,-2,2,3,-4
60158574508,3,3,6,7,5,2,2,2
60158574508,7,-1,2,-4,-2,-5,-3,1
60158583553,-12,-3,0,10,0,-1,2,-3
60158583553,-7,-2,4,-2,1,1,-5,-6
60158598421,8,6,-6,-7,-10,-4,8,9
60158598421,7,-7,-13,-33,-8,0,8,1
60158600059,-3,-5,-6,1,4,1,-9,-3
60158600059,-4,-3,7,27,16,3,1,1
60158621048,3,3,-11,-8,-10,-7,-15,-10
60158621048,14,11,9,-11,-11,-1,0,2
60158622481,-18,-4,-2,11,0,-2,4,3
60158622481,2,0,-11,-2,4,1,-2,-2
60158634594,2,1,12,2,3,4,4,2
60158634594,-5,0,-2,3,10,0,-4,-1
60158643501,5,3,5,-3,-8,-1,-3,-2
60158643501,-5,0,-2,-17,-17,-6,-2,-1
60158658602,-4,-3,5,4,4,4,-2,1
60158658602,-8,-7,-2,1,-3,-2,5,-1
60158659991,0,3,0,2,7,1,-2,-3
60158659991,1,0,3,2,2,1,4,1
60158680880,3,-1,0,-7,-12,-1,-2,-1
60158680880,-4,-1,4,18,12,0,2,-3
60158682474,2,-3,-7,-20,-11,-5,0,1
60158682474,2,-3,-9,-6,1,0,4,2
60158694692,-4,-2,15,8,5,-1,-3,-2
60158694692,-6,-4,-7,-1,-2,-1,-8,-5
60158703516,-3,0,0,1,1,-2,-1,1
60158703516,1,-1,-3,-12,0,-1,2,0
60158718337,1,2,-1,11,2,-1,1,0
60158718337,-7,-2,6,17,7,0,-2,-2
60158719982,-2,-3,-10,-39,-18,-5,-4,-2
60158719982,9,-5,-3,7,2,1,-5,2
60158741015,-13,-7,5,10,-8,-5,-2,-8
60158741015,-2,-1,-3,-6,-2,-1,7,6
60158742515,3,0,5,18,12,1,-8,-5
60158742515,-10,1,-12,-28,-7,0,13,2
60158754483,1,-5,-4,2,-2,-3,-3,-1
60158754483,3,-2,-2,-6,-2,-3,-9,-7
60158763528,-20,-4,-1,0,2,-2,-3,-5
60158763528,13,4,10,15,7,2,0,10
60158778176,0,0,-6,-4,-1,0,2,-1
60158778176,-6,-2,-14,-6,-5,-2,-5,-4
60158786002,9,2,4,-5,-3,-1,-1,-2
60158786002,-2,0,0,-5,-20,-6,-6,-5
60158801050,-6,-4,-6,12,12,-3,0,-1
60158801050,4,3,2,-7,3,6,-3,-1
60158802490,-2,-1,-8,-10,-10,-4,-3,-6
60158802490,-7,-4,4,10,5,-1,-4,-3
60158814603,11,-1,-1,-9,-5,-3,-10,3
60158814603,-18,-2,-5,-2,-1,-1,12,-2
60158823495,16,1,-2,5,4,1,1,6
60158823495,-10,-2,-2,1,-2,-3,0,-1
60158837792,6,1,-7,-7,3,2,7,6
60158837792,-2,-1,3,2,-1,-3,-10,-5
60158844604,-1,8,-1,-3,-6,0,3,-2
60158844604,4,-1,-2,4,2,-1,-1,0
60158860921,-4,-1,-1,-2,3,4,-6,-2
60158860921,0,-4,-3,-7,-8,-3,0,1
60158862494,-4,-5,0,1,-1,0,4,2
60158862494,2,1,1,6,3,0,-3,-3
60158883596,-4,1,0,0,2,2,2,0
60158883596,1,-1,-5,-10,-10,-5,-2,-2
60158884968,1,-1,1,6,5,1,-6,-2
60158884968,-3,-2,-3,1,3,2,6,1
60158897854,-5,-2,1,-13,-14,-4,-5,-6
60158897854,0,-1,-2,6,0,-1,-7,-2
60158904659,-3,-2,-1,1,0,-1,-1,-1
60158904659,0,-2,-2,-3,1,1,6,4
60158920959,-2,0,-4,-1,2,0,0,-4
60158920959,3,-2,1,-5,-1,-2,-2,-1
60158922470,-2,-1,3,3,0,0,-2,-2
60158922470,-2,-3,-2,8,2,-2,-5,-6
60158943562,2,-1,3,2,-2,1,0,3
60158943562,-3,-3,-1,-2,-2,-1,0,-1
60158945003,-3,-3,-1,0,0,0,0,1
60158945003,9,-1,-3,-5,-1,-1,-1,1
60158958390,-16,13,-9,-7,-5,-2,-6,-8
60158958390,5,2,6,9,3,1,1,3
60158959960,-3,-4,-1,-3,1,1,4,1
60158959960,-3,-4,-5,-11,-6,-4,-7,-6
60158980856,6,1,2,4,4,6,7,1
60158980856,-1,-2,-5,-19,-6,-1,5,4
60158982503,2,2,0,7,-1,-4,-2,-2
60158982503,-6,-1,-3,1,-1,-2,-4,-3
60159003460,4,-6,-5,-4,1,0,-4,-2
60159003460,-2,-3,1,1,-2,-3,-1,-1
60159004975,8,-2,0,-5,-3,3,4,4
60159004975,-5,-2,4,5,4,-2,-7,-9
60159017782,-7,-5,0,2,-4,-3,5,1
60159017782,3,-1,-3,-4,-5,-2,-4,-1
60159024544,-3,0,-5,2,2,-2,0,-2
60159024544,1,1,1,0,-5,-2,-2,-2
60159041019,2,-4,1,2,3,1,1,2
60159041019,-6,-4,-2,2,0,-3,-2,-3
60159042470,15,3,2,-3,-3,0,2,1
60159042470,-14,-2,-4,-2,-2,2,5,5
60159063528,-7,-4,-2,-6,-1,-1,-3,-5
60159063528,2,0,2,3,-2,1,-2,0
60159065005,-7,-4,-1,-3,-4,-4,-4,-6
60159065005,9,1,0,0,0,0,-2,1
60159077828,-1,-7,-1,-2,-1,0,1,2
60159077828,-4,-10,5,10,2,0,-3,-3
60159084603,0,-3,-7,-3,6,1,-1,4
60159084603,-4,0,-1,-7,-7,-4,-1,-4
