60353443954,0.205688476562,0.4833984375,-0.505432128906,-0.6845703125
60353467710,0.205688476562,0.4833984375,-0.50537109375,-0.6845703125
60353482680,0.207153320312,0.480834960938,-0.505920410156,-0.685546875
60353503909,0.215759277344,0.478698730469,-0.509399414062,-0.681762695312
60353527599,0.218688964844,0.47705078125,-0.510986328125,-0.680786132812
60353542585,0.220336914062,0.476989746094,-0.511535644531,-0.679931640625
60353564050,0.229064941406,0.479431152344,-0.512817382812,-0.674377441406
60353587769,0.234375,0.482971191406,-0.512451171875,-0.670288085938
60353617739,0.233764648438,0.483520507812,-0.511962890625,-0.670471191406
60353626666,0.224975585938,0.48291015625,-0.509643554688,-0.675659179688
60353640407,0.215942382812,0.479675292969,-0.508605957031,-0.681640625
60353662731,0.215270996094,0.478820800781,-0.508850097656,-0.682250976562
60353680514,0.212341308594,0.481994628906,-0.5068359375,-0.682495117188
60353700499,0.211669921875,0.482543945312,-0.507202148438,-0.682006835938
60353743814,0.211364746094,0.482360839844,-0.507202148438,-0.682250976562
60353753935,0.211303710938,0.482299804688,-0.507202148438,-0.682312011719
60353760219,0.211242675781,0.482360839844,-0.507141113281,-0.682312011719
60353782039,0.211608886719,0.483032226562,-0.507568359375,-0.681457519531
60353797695,0.217529296875,0.479858398438,-0.510803222656,-0.679321289062
60353828359,0.21533203125,0.479431152344,-0.510375976562,-0.6806640625
60353842691,0.213500976562,0.478637695312,-0.51025390625,-0.681884765625
60353865823,0.211730957031,0.475341796875,-0.511596679688,-0.683776855469
60353888308,0.213195800781,0.475219726562,-0.512084960938,-0.682983398438
60353902687,0.215515136719,0.475952148438,-0.512390136719,-0.681579589844
60353925896,0.220642089844,0.480102539062,-0.511596679688,-0.677612304688
60353948352,0.2197265625,0.480529785156,-0.511047363281,-0.677978515625
60353962644,0.210571289062,0.478820800781,-0.509216308594,-0.683471679688
60353985861,0.203796386719,0.480529785156,-0.506774902344,-0.686096191406
60354008310,0.204650878906,0.479858398438,-0.505981445312,-0.686889648438
60354029515,0.20458984375,0.480285644531,-0.505798339844,-0.686767578125
60354045811,0.204650878906,0.480346679688,-0.505798339844,-0.686767578125
60354068362,0.20458984375,0.480346679688,-0.505798339844,-0.686767578125
60354089490,0.20458984375,0.480346679688,-0.505798339844,-0.686767578125
60354105841,0.20458984375,0.480346679688,-0.505737304688,-0.686767578125
60354128336,0.20458984375,0.480407714844,-0.505737304688,-0.686767578125
60354149556,0.20458984375,0.480407714844,-0.505737304688,-0.686767578125
60354171960,0.20458984375,0.480407714844,-0.505737304688,-0.686767578125
60354188337,0.20458984375,0.480407714844,-0.505737304688,-0.686706542969
60354217033,0.20458984375,0.480407714844,-0.505737304688,-0.686706542969
60354225612,0.20458984375,0.48046875,-0.505737304688,-0.686706542969
60354248398,0.20458984375,0.48046875,-0.505737304688,-0.686706542969
60354269886,0.20458984375,0.48046875,-0.505676269531,-0.686706542969
60354285921,0.20458984375,0.48046875,-0.505676269531,-0.686706542969
60354308326,0.204650878906,0.480529785156,-0.505676269531,-0.686706542969
60354313788,0.204650878906,0.480529785156,-0.505676269531,-0.686706542969
60354336205,0.204650878906,0.480529785156,-0.505676269531,-0.686706542969
60354358854,0.204650878906,0.480529785156,-0.505676269531,-0.686706542969
60354375194,0.204650878906,0.480529785156,-0.505676269531,-0.686706542969
60354396177,0.20458984375,0.480529785156,-0.505676269531,-0.686706542969
60354418783,0.20458984375,0.480590820312,-0.505676269531,-0.686706542969
60354433810,0.20458984375,0.480590820312,-0.505676269531,-0.686706542969
60354465198,0.20458984375,0.480590820312,-0.505676269531,-0.686706542969
60354478697,0.20458984375,0.480590820312,-0.505676269531,-0.686706542969
60354493850,0.20458984375,0.480590820312,-0.505615234375,-0.686706542969
60354516357,0.20458984375,0.480590820312,-0.505615234375,-0.686706542969
60354538710,0.20458984375,0.480590820312,-0.505615234375,-0.686645507812
60354553836,0.20458984375,0.480590820312,-0.505615234375,-0.686645507812
60354576249,0.20458984375,0.480590820312,-0.505615234375,-0.686645507812
60354598737,0.20458984375,0.480651855469,-0.505615234375,-0.686645507812
60354613777,0.20458984375,0.480651855469,-0.505615234375,-0.686645507812
60354636306,0.20458984375,0.480651855469,-0.505615234375,-0.686645507812
60354658792,0.20458984375,0.480590820312,-0.505615234375,-0.686706542969
60354673689,0.205017089844,0.480529785156,-0.505676269531,-0.6865234375
60354696293,0.205810546875,0.480773925781,-0.505310058594,-0.686401367188
60354718814,0.208312988281,0.481567382812,-0.504272460938,-0.685852050781
60354735212,0.213623046875,0.48291015625,-0.5029296875,-0.684265136719
60354756301,0.221801757812,0.485473632812,-0.500427246094,-0.681701660156
60354778820,0.232482910156,0.486206054688,-0.497802734375,-0.679565429688
60354801175,0.242858886719,0.484069824219,-0.496887207031,-0.678100585938
60354816358,0.253662109375,0.478698730469,-0.4990234375,-0.676391601562
60354838860,0.269897460938,0.471862792969,-0.503967285156,-0.671203613281
60354855166,0.28857421875,0.458984375,-0.514404296875,-0.664428710938
60354876408,0.308776855469,0.439025878906,-0.529846191406,-0.656616210938
60354898941,0.329711914062,0.4140625,-0.547607421875,-0.648071289062
60354915169,0.350219726562,0.385498046875,-0.566101074219,-0.639038085938
60354936323,0.371337890625,0.354370117188,-0.585144042969,-0.627868652344
60354958806,0.393859863281,0.323059082031,-0.603210449219,-0.613708496094
60354984137,0.415893554688,0.29296875,-0.619079589844,-0.598327636719
60354996198,0.436828613281,0.264221191406,-0.632568359375,-0.58251953125
60355018809,0.454772949219,0.234985351562,-0.644409179688,-0.568054199219
60355036645,0.46923828125,0.206237792969,-0.654479980469,-0.555847167969
60355056311,0.480590820312,0.181457519531,-0.662292480469,-0.54541015625
60355078789,0.489013671875,0.162902832031,-0.667907714844,-0.536926269531
60355096642,0.496337890625,0.149658203125,-0.671813964844,-0.529113769531
60355116448,0.503112792969,0.141357421875,-0.674194335938,-0.521911621094
60355138937,0.508422851562,0.135559082031,-0.675598144531,-0.516479492188
60355156638,0.512084960938,0.130432128906,-0.676391601562,-0.513061523438
60355176358,0.514831542969,0.126831054688,-0.67626953125,-0.511413574219
60355198811,0.517211914062,0.125183105469,-0.67529296875,-0.510681152344
60355216665,0.519653320312,0.124267578125,-0.673645019531,-0.510681152344
60355236367,0.521911621094,0.12353515625,-0.671630859375,-0.511169433594
60355258788,0.523803710938,0.122802734375,-0.669250488281,-0.512512207031
60355276627,0.52587890625,0.122436523438,-0.666442871094,-0.51416015625
60355296215,0.528015136719,0.122131347656,-0.663635253906,-0.515625
60355318789,0.530029296875,0.121154785156,-0.661560058594,-0.516540527344
60355336637,0.53173828125,0.119506835938,-0.659790039062,-0.517395019531
60355356335,0.533386230469,0.118347167969,-0.657897949219,-0.518371582031
60355378756,0.53466796875,0.11767578125,-0.65625,-0.519287109375
60355397142,0.535583496094,0.117004394531,-0.655151367188,-0.519897460938
60355416348,0.536376953125,0.116394042969,-0.654357910156,-0.520141601562
60355449116,0.536865234375,0.115478515625,-0.654052734375,-0.520263671875
60355456635,0.537292480469,0.115051269531,-0.654052734375,-0.519958496094
60355476199,0.537231445312,0.114624023438,-0.654174804688,-0.519897460938
60355498784,0.537170410156,0.114624023438,-0.654418945312,-0.519653320312
60355516623,0.536987304688,0.115051269531,-0.654663085938,-0.51953125
60355536328,0.536804199219,0.115295410156,-0.654968261719,-0.519226074219
60355558699,0.53662109375,0.11572265625,-0.655334472656,-0.518859863281
60355576627,0.536499023438,0.116394042969,-0.655578613281,-0.518493652344
60355597939,0.536376953125,0.116943359375,-0.655944824219,-0.51806640625
60355614583,0.536193847656,0.116882324219,-0.656372070312,-0.517761230469
60355636616,0.536193847656,0.116882324219,-0.656616210938,-0.517395019531
60355657687,0.536437988281,0.117248535156,-0.656433105469,-0.517272949219
60355674124,0.536560058594,0.117431640625,-0.65625,-0.517395019531
60355696611,0.536743164062,0.117553710938,-0.656005859375,-0.517517089844
60355719148,0.536926269531,0.117919921875,-0.655700683594,-0.517517089844
60355734125,0.537109375,0.118591308594,-0.655456542969,-0.517578125
60355756592,0.537170410156,0.11962890625,-0.655090332031,-0.517700195312
60355779136,0.536987304688,0.120300292969,-0.655090332031,-0.517822265625
60355794138,0.536743164062,0.120849609375,-0.6552734375,-0.517700195312
60355817327,0.536437988281,0.121337890625,-0.655456542969,-0.517578125
60355837693,0.5361328125,0.121948242188,-0.655639648438,-0.517517089844
60355854167,0.535766601562,0.122619628906,-0.655822753906,-0.517517089844
60355876631,0.535400390625,0.123352050781,-0.655944824219,-0.517578125
60355899140,0.534912109375,0.124145507812,-0.656127929688,-0.517700195312
60355919491,0.534240722656,0.124877929688,-0.656372070312,-0.517883300781
60355935794,0.533508300781,0.12548828125,-0.656555175781,-0.518249511719
60355958398,0.532409667969,0.126159667969,-0.656799316406,-0.518859863281
60355980772,0.53125,0.127014160156,-0.656921386719,-0.519775390625
60355996292,0.529907226562,0.127868652344,-0.656555175781,-0.521362304688
60356018309,0.527709960938,0.129028320312,-0.656066894531,-0.52392578125
60356039344,0.5244140625,0.131530761719,-0.655456542969,-0.52734375
60356055780,0.519714355469,0.138610839844,-0.654052734375,-0.531921386719
60356078343,0.513671875,0.149047851562,-0.652465820312,-0.536926269531
60356092615,0.507141113281,0.162719726562,-0.650268554688,-0.541748046875
60356115807,0.499328613281,0.177368164062,-0.647033691406,-0.548278808594
60356138318,0.489074707031,0.193237304688,-0.64306640625,-0.556762695312
60356159462,0.478271484375,0.212158203125,-0.638122558594,-0.564880371094
60356175793,0.466247558594,0.23291015625,-0.632263183594,-0.5732421875
60356198337,0.453063964844,0.25634765625,-0.625244140625,-0.581481933594
60356219469,0.439147949219,0.280090332031,-0.616638183594,-0.59033203125
60356235816,0.421508789062,0.302429199219,-0.607299804688,-0.601745605469
60356258331,0.400695800781,0.325317382812,-0.597717285156,-0.613464355469
60356279330,0.379821777344,0.349060058594,-0.587585449219,-0.623474121094
60356295841,0.359497070312,0.372619628906,-0.576538085938,-0.632080078125
60356318338,0.339965820312,0.392822265625,-0.566772460938,-0.639465332031
60356339516,0.320617675781,0.408386230469,-0.558898925781,-0.646606445312
60356361936,0.302856445312,0.422119140625,-0.551452636719,-0.652709960938
60356378330,0.288391113281,0.435485839844,-0.543518066406,-0.657104492188
60356399374,0.276794433594,0.447021484375,-0.536437988281,-0.660217285156
60356415786,0.266540527344,0.455810546875,-0.530883789062,-0.662841796875
60356438343,0.257080078125,0.462219238281,-0.52685546875,-0.665344238281
60356459496,0.248596191406,0.467529296875,-0.523071289062,-0.667907714844
60356475821,0.241394042969,0.472961425781,-0.519348144531,-0.669555664062
60356498296,0.235778808594,0.478454589844,-0.516235351562,-0.670104980469
60356519422,0.230529785156,0.483520507812,-0.514099121094,-0.669921875
60356535838,0.224304199219,0.487426757812,-0.513427734375,-0.669738769531
60356558363,0.214904785156,0.490051269531,-0.514099121094,-0.670349121094
60356579341,0.203796386719,0.49169921875,-0.51318359375,-0.67333984375
60356595773,0.199645996094,0.490905761719,-0.511962890625,-0.676086425781
60356618298,0.199829101562,0.48583984375,-0.513305664062,-0.678649902344
60356639307,0.204223632812,0.481384277344,-0.514831542969,-0.679382324219
60356655753,0.209167480469,0.481750488281,-0.514526367188,-0.677856445312
60356678313,0.210693359375,0.484191894531,-0.512634277344,-0.677001953125
60356699307,0.209594726562,0.48583984375,-0.510437011719,-0.677856445312
60356715740,0.207214355469,0.485717773438,-0.509582519531,-0.679321289062
60356738307,0.20458984375,0.483947753906,-0.510620117188,-0.680603027344
60356759305,0.203186035156,0.481750488281,-0.512268066406,-0.681274414062
