60153971129,0.104309082031,0.488464355469,-0.553405761719,-0.666564941406
60153986185,0.104248046875,0.488464355469,-0.553405761719,-0.666564941406
60154007473,0.103637695312,0.49072265625,-0.552856445312,-0.665405273438
60154031195,0.09521484375,0.491027832031,-0.549621582031,-0.669128417969
60154046164,0.0935668945312,0.490844726562,-0.549072265625,-0.669921875
60154067535,0.0861206054688,0.487731933594,-0.547607421875,-0.674438476562
60154091186,0.0851440429688,0.486633300781,-0.547729492188,-0.675231933594
60154106145,0.0881958007812,0.484802246094,-0.549865722656,-0.674438476562
60154167675,0.0961303710938,0.487060546875,-0.551940917969,-0.670043945312
60154168375,0.09765625,0.488159179688,-0.552001953125,-0.6689453125
60154169204,0.0967407226562,0.490905761719,-0.55029296875,-0.66845703125
60154180505,0.0897827148438,0.489318847656,-0.548278808594,-0.672241210938
60154198898,0.0928344726562,0.487060546875,-0.549865722656,-0.672180175781
60154218822,0.0932006835938,0.487060546875,-0.550048828125,-0.671936035156
60154241197,0.09326171875,0.487121582031,-0.550109863281,-0.671936035156
60154260335,0.0933227539062,0.487121582031,-0.550109863281,-0.671875
60154309900,0.0933837890625,0.487060546875,-0.550109863281,-0.671875
60154310606,0.0933227539062,0.487365722656,-0.549682617188,-0.672058105469
60154317574,0.0904541015625,0.491027832031,-0.547058105469,-0.671936035156
60154348190,0.0925903320312,0.491333007812,-0.547729492188,-0.670837402344
60154359636,0.0946655273438,0.4921875,-0.548156738281,-0.669616699219
60154384244,0.095703125,0.4931640625,-0.548095703125,-0.668762207031
60154406777,0.0930786132812,0.494812011719,-0.546264648438,-0.66943359375
60154427540,0.0859375,0.492431640625,-0.544494628906,-0.673583984375
60154444295,0.0845947265625,0.491271972656,-0.544494628906,-0.674560546875
60154466694,0.0864868164062,0.488464355469,-0.546630859375,-0.674682617188
60154487856,0.0942993164062,0.490478515625,-0.548706054688,-0.670471191406
60154504326,0.1005859375,0.489318847656,-0.551025390625,-0.668518066406
60154526768,0.10009765625,0.489379882812,-0.551574707031,-0.668029785156
60154547911,0.100341796875,0.489074707031,-0.5517578125,-0.668090820312
60154564245,0.100341796875,0.489013671875,-0.551818847656,-0.668090820312
60154586760,0.100341796875,0.489013671875,-0.551818847656,-0.668090820312
60154609203,0.100402832031,0.489013671875,-0.551818847656,-0.668090820312
60154623628,0.100402832031,0.489013671875,-0.551818847656,-0.668090820312
60154646789,0.100463867188,0.488952636719,-0.551879882812,-0.668029785156
60154669249,0.100463867188,0.488952636719,-0.551879882812,-0.668029785156
60154674699,0.100769042969,0.489013671875,-0.5517578125,-0.668029785156
60154697276,0.101623535156,0.489135742188,-0.5517578125,-0.667846679688
60154712240,0.102355957031,0.488708496094,-0.552307128906,-0.667602539062
60154734750,0.103698730469,0.488098144531,-0.552795410156,-0.66748046875
60154757262,0.107055664062,0.487854003906,-0.552429199219,-0.667358398438
60154779737,0.113403320312,0.487487792969,-0.551574707031,-0.667297363281
60154794713,0.123046875,0.486083984375,-0.552001953125,-0.666259765625
60154817268,0.13427734375,0.483459472656,-0.5546875,-0.663757324219
60154840186,0.143798828125,0.479187011719,-0.559020996094,-0.661193847656
60154854776,0.152221679688,0.47412109375,-0.564025878906,-0.65869140625
60154877261,0.16015625,0.468139648438,-0.569458007812,-0.656494140625
60154899908,0.167724609375,0.459777832031,-0.575927734375,-0.654846191406
60154914663,0.175170898438,0.448181152344,-0.584228515625,-0.653564453125
60154937131,0.182556152344,0.434387207031,-0.59326171875,-0.652770996094
60154959616,0.189819335938,0.419982910156,-0.601684570312,-0.652404785156
60154974728,0.197387695312,0.406372070312,-0.60888671875,-0.652038574219
60154997288,0.203674316406,0.39306640625,-0.615539550781,-0.652038574219
60155019671,0.2080078125,0.379211425781,-0.622741699219,-0.652038574219
60155034653,0.2099609375,0.364135742188,-0.630920410156,-0.652160644531
60155057277,0.208740234375,0.34765625,-0.640747070312,-0.651977539062
60155079790,0.203979492188,0.329895019531,-0.651184082031,-0.652404785156
60155094743,0.196350097656,0.310485839844,-0.662292480469,-0.653015136719
60155117244,0.187316894531,0.290161132812,-0.673767089844,-0.6533203125
60155132261,0.178283691406,0.270812988281,-0.684326171875,-0.653198242188
60155154764,0.170288085938,0.251892089844,-0.694030761719,-0.652648925781
60155177314,0.161865234375,0.231689453125,-0.703369140625,-0.652221679688
60155192235,0.153381347656,0.211059570312,-0.712341308594,-0.651611328125
60155214901,0.144897460938,0.190673828125,-0.720520019531,-0.650817871094
60155237264,0.136413574219,0.171020507812,-0.7275390625,-0.650329589844
60155252314,0.125610351562,0.151550292969,-0.733581542969,-0.650512695312
60155274795,0.112854003906,0.133239746094,-0.739379882812,-0.650329589844
60155297237,0.0997924804688,0.116455078125,-0.744995117188,-0.649291992188
60155315099,0.0870361328125,0.100524902344,-0.749938964844,-0.648071289062
60155334776,0.075439453125,0.0862426757812,-0.753967285156,-0.646850585938
60155357261,0.0664672851562,0.0743408203125,-0.757629394531,-0.645080566406
60155375015,0.0579833984375,0.062744140625,-0.761108398438,-0.643005371094
60155394667,0.0493774414062,0.0498046875,-0.7646484375,-0.640625
60155417275,0.0406494140625,0.0360717773438,-0.767883300781,-0.638305664062
60155435037,0.0319213867188,0.0230712890625,-0.770446777344,-0.636413574219
60155454593,0.023193359375,0.0111694335938,-0.772583007812,-0.634460449219
60155477150,0.0147705078125,-0.00030517578125,-0.774475097656,-0.632507324219
60155495012,0.00726318359375,-0.01123046875,-0.776062011719,-0.630554199219
60155514628,0.00079345703125,-0.0208740234375,-0.777465820312,-0.628662109375
60155537236,-0.004638671875,-0.029296875,-0.778625488281,-0.626892089844
60155555083,-0.009521484375,-0.0369262695312,-0.779663085938,-0.625122070312
60155574772,-0.0140380859375,-0.0442504882812,-0.780578613281,-0.623352050781
60155597236,-0.0182495117188,-0.0512084960938,-0.781616210938,-0.621459960938
60155615065,-0.0223388671875,-0.0573120117188,-0.782653808594,-0.619506835938
60155634749,-0.026611328125,-0.0629272460938,-0.783630371094,-0.617492675781
60155657401,-0.0311279296875,-0.0684814453125,-0.78466796875,-0.615417480469
60155675090,-0.0354614257812,-0.0736083984375,-0.785583496094,-0.613464355469
60155696077,-0.0390625,-0.0771484375,-0.786437988281,-0.611694335938
60155717245,-0.0421142578125,-0.0792236328125,-0.787231445312,-0.610168457031
60155735046,-0.044921875,-0.080810546875,-0.788146972656,-0.608581542969
60155763616,-0.0478515625,-0.08251953125,-0.7890625,-0.60693359375
60155777233,-0.0509643554688,-0.0843505859375,-0.789855957031,-0.605407714844
60155795027,-0.0540771484375,-0.0860595703125,-0.79052734375,-0.60400390625
60155816115,-0.056640625,-0.0872802734375,-0.791320800781,-0.6025390625
60155837273,-0.0587768554688,-0.0879516601562,-0.792175292969,-0.601196289062
60155855041,-0.0609130859375,-0.088623046875,-0.792846679688,-0.599975585938
60155877526,-0.0630493164062,-0.0892333984375,-0.79345703125,-0.598754882812
60155897296,-0.0651245117188,-0.0899658203125,-0.794189453125,-0.597534179688
60155921093,-0.0667114257812,-0.0903930664062,-0.794616699219,-0.596740722656
60155936086,-0.0679931640625,-0.0904541015625,-0.794799804688,-0.596252441406
60155957094,-0.0689086914062,-0.0900268554688,-0.794982910156,-0.596008300781
60155975071,-0.069580078125,-0.08935546875,-0.795227050781,-0.595764160156
60155996052,-0.0702514648438,-0.0891723632812,-0.795532226562,-0.595275878906
60156017188,-0.0708618164062,-0.0895385742188,-0.795776367188,-0.594787597656
60156035035,-0.071533203125,-0.0899658203125,-0.7958984375,-0.594543457031
60156057561,-0.0718994140625,-0.0901489257812,-0.795837402344,-0.594543457031
60156077243,-0.0718994140625,-0.0901489257812,-0.795837402344,-0.594543457031
60156095034,-0.0719604492188,-0.0905151367188,-0.795776367188,-0.594543457031
60156117566,-0.072265625,-0.09130859375,-0.795532226562,-0.594665527344
60156137287,-0.072509765625,-0.0919799804688,-0.795349121094,-0.594787597656
60156155131,-0.072509765625,-0.0921020507812,-0.795166015625,-0.595092773438
60156177570,-0.072509765625,-0.0922241210938,-0.794799804688,-0.595520019531
60156198639,-0.0725708007812,-0.0923461914062,-0.794555664062,-0.595825195312
60156215056,-0.0726318359375,-0.0924072265625,-0.794250488281,-0.59619140625
60156237514,-0.07275390625,-0.0925903320312,-0.7939453125,-0.596557617188
60156257265,-0.072998046875,-0.0928344726562,-0.793762207031,-0.5966796875
60156274348,-0.0733642578125,-0.0933227539062,-0.793579101562,-0.596801757812
60156296808,-0.0738525390625,-0.0935668945312,-0.793395996094,-0.596984863281
60156317748,-0.0743408203125,-0.0938110351562,-0.793273925781,-0.597106933594
60156334180,-0.0747680664062,-0.0940551757812,-0.793212890625,-0.597045898438
60156356737,-0.0752563476562,-0.0945434570312,-0.793151855469,-0.597045898438
60156371090,-0.07568359375,-0.094970703125,-0.793029785156,-0.597045898438
60156394244,-0.075927734375,-0.0952758789062,-0.792907714844,-0.59716796875
60156416763,-0.076171875,-0.09521484375,-0.792724609375,-0.597351074219
60156431093,-0.0763549804688,-0.0950927734375,-0.792602539062,-0.597473144531
60156454198,-0.0767211914062,-0.0950317382812,-0.79248046875,-0.59765625
60156476688,-0.0770874023438,-0.0950317382812,-0.792358398438,-0.597717285156
60156491132,-0.077392578125,-0.0948486328125,-0.792236328125,-0.597839355469
60156514242,-0.0776977539062,-0.0944213867188,-0.792114257812,-0.598083496094
60156536745,-0.078125,-0.0941162109375,-0.791809082031,-0.598510742188
60156557864,-0.0784301757812,-0.0939331054688,-0.791564941406,-0.598815917969
60156574269,-0.078369140625,-0.093505859375,-0.791442871094,-0.598999023438
60156596736,-0.0780639648438,-0.0931396484375,-0.791381835938,-0.599182128906
60156617825,-0.0778198242188,-0.0931396484375,-0.791259765625,-0.599426269531
60156634217,-0.0775756835938,-0.093505859375,-0.791015625,-0.599670410156
60156656764,-0.0773315429688,-0.09375,-0.790771484375,-0.599975585938
60156677889,-0.0769653320312,-0.0938110351562,-0.790649414062,-0.600219726562
60156694221,-0.0765991210938,-0.09375,-0.79052734375,-0.600402832031
60156716729,-0.076416015625,-0.093994140625,-0.790466308594,-0.600463867188
60156737896,-0.0765380859375,-0.094482421875,-0.790405273438,-0.600463867188
60156754265,-0.0768432617188,-0.094970703125,-0.790283203125,-0.600463867188
60156776707,-0.0768432617188,-0.0950317382812,-0.790283203125,-0.600463867188
60156797912,-0.0767822265625,-0.094970703125,-0.790161132812,-0.600646972656
60156814265,-0.0765380859375,-0.0947265625,-0.790100097656,-0.600830078125
60156836715,-0.076416015625,-0.0943603515625,-0.790100097656,-0.600952148438
60156857878,-0.076416015625,-0.0943603515625,-0.790100097656,-0.600952148438
60156874193,-0.0765380859375,-0.0947875976562,-0.789978027344,-0.600952148438
60156896737,-0.07666015625,-0.0949096679688,-0.789794921875,-0.601135253906
60156917891,-0.0765380859375,-0.0945434570312,-0.789672851562,-0.601440429688
60156934238,-0.0762329101562,-0.0938110351562,-0.789611816406,-0.601623535156
60156956847,-0.0758666992188,-0.09326171875,-0.789611816406,-0.601745605469
60156979172,-0.0757446289062,-0.0931396484375,-0.789489746094,-0.601989746094
60156994204,-0.0759887695312,-0.0933837890625,-0.789245605469,-0.602233886719
60157016735,-0.0759887695312,-0.09326171875,-0.789245605469,-0.602294921875
60157039215,-0.0758056640625,-0.0927734375,-0.789245605469,-0.602355957031
60157054199,-0.075439453125,-0.0922241210938,-0.789184570312,-0.6025390625
60157076756,-0.0751342773438,-0.0918579101562,-0.789184570312,-0.602661132812
60157099198,-0.0747680664062,-0.0916748046875,-0.789123535156,-0.602844238281
60157114203,-0.07470703125,-0.0918579101562,-0.788879394531,-0.603088378906
60157136715,-0.0745239257812,-0.091796875,-0.788757324219,-0.603332519531
60157159210,-0.0741577148438,-0.0914916992188,-0.788696289062,-0.603454589844
60157173585,-0.07373046875,-0.0911254882812,-0.788757324219,-0.603454589844
60157196743,-0.073486328125,-0.0910034179688,-0.788818359375,-0.603454589844
60157219189,-0.0734252929688,-0.0909423828125,-0.788879394531,-0.603454589844
60157233535,-0.0731201171875,-0.0905151367188,-0.788879394531,-0.603515625
60157257417,-0.07275390625,-0.08984375,-0.788940429688,-0.603576660156
60157279216,-0.0724487304688,-0.08935546875,-0.788940429688,-0.603637695312
60157293565,-0.072265625,-0.0889892578125,-0.788940429688,-0.603820800781
60157316748,-0.0720825195312,-0.088623046875,-0.788818359375,-0.60400390625
60157339217,-0.071533203125,-0.087890625,-0.788696289062,-0.604309082031
60157354028,-0.0704956054688,-0.0866088867188,-0.788513183594,-0.604858398438
60157376710,-0.06884765625,-0.0849609375,-0.788208007812,-0.605651855469
60157399248,-0.0662841796875,-0.082763671875,-0.787841796875,-0.606811523438
60157420304,-0.0626220703125,-0.0792846679688,-0.787231445312,-0.608337402344
60157436713,-0.057861328125,-0.0740356445312,-0.786743164062,-0.610168457031
60157459147,-0.0518188476562,-0.0667114257812,-0.786376953125,-0.611999511719
60157480391,-0.0444946289062,-0.0584716796875,-0.786437988281,-0.613403320312
60157496738,-0.0357666015625,-0.0505981445312,-0.786499023438,-0.614562988281
60157519199,-0.0247802734375,-0.0424194335938,-0.786254882812,-0.616027832031
60157540357,-0.0111694335938,-0.0328369140625,-0.785461425781,-0.617980957031
60157556790,0.00445556640625,-0.0218505859375,-0.783996582031,-0.620422363281
60157579225,0.0216064453125,-0.0093994140625,-0.781921386719,-0.622985839844
60157600332,0.0398559570312,0.00360107421875,-0.779357910156,-0.625427246094
60157616687,0.0579833984375,0.016357421875,-0.776062011719,-0.627807617188
60157639219,0.074951171875,0.0296630859375,-0.771850585938,-0.630737304688
60157660366,0.0903930664062,0.04443359375,-0.766540527344,-0.63427734375
60157676711,0.105651855469,0.0623168945312,-0.759948730469,-0.638366699219
60157699244,0.120056152344,0.0836791992188,-0.752136230469,-0.642578125
60157720452,0.132995605469,0.1064453125,-0.743896484375,-0.646301269531
60157736717,0.14404296875,0.12939453125,-0.735534667969,-0.649291992188
60157759193,0.153869628906,0.152160644531,-0.726867675781,-0.651794433594
60157780548,0.161499023438,0.172424316406,-0.718322753906,-0.654418945312
60157796766,0.167236328125,0.190002441406,-0.710083007812,-0.657104492188
60157819193,0.170288085938,0.204223632812,-0.702453613281,-0.660217285156
60157840312,0.171752929688,0.217102050781,-0.695190429688,-0.663391113281
60157856111,0.173706054688,0.230102539062,-0.687805175781,-0.666198730469
60157879236,0.176208496094,0.242553710938,-0.680297851562,-0.668823242188
60157901699,0.179809570312,0.255249023438,-0.67236328125,-0.671203613281
60157916038,0.185119628906,0.268981933594,-0.663879394531,-0.6728515625
60157939211,0.191040039062,0.282165527344,-0.655395507812,-0.674072265625
60157961706,0.196594238281,0.293029785156,-0.647827148438,-0.675170898438
60157976000,0.201843261719,0.302856445312,-0.640808105469,-0.675964355469
60157999189,0.205444335938,0.311401367188,-0.634338378906,-0.677124023438
60158021695,0.206237792969,0.318481445312,-0.628234863281,-0.679321289062
60158044223,0.206176757812,0.324951171875,-0.622497558594,-0.681518554688
60158059156,0.207092285156,0.331176757812,-0.6171875,-0.683044433594
60158098038,0.208312988281,0.336975097656,-0.612365722656,-0.684204101562
60158102809,0.208923339844,0.342346191406,-0.60791015625,-0.685302734375
60158119242,0.208740234375,0.348571777344,-0.603820800781,-0.685852050781
60158141693,0.207702636719,0.355224609375,-0.599853515625,-0.686218261719
60158162989,0.206909179688,0.3623046875,-0.595947265625,-0.686157226562
60158179189,0.204895019531,0.368469238281,-0.592224121094,-0.686706542969
60158201709,0.202758789062,0.374755859375,-0.588928222656,-0.686767578125
60158222968,0.200561523438,0.380981445312,-0.586059570312,-0.686401367188
60158239193,0.198974609375,0.387512207031,-0.5830078125,-0.685852050781
60158261664,0.197326660156,0.393737792969,-0.579650878906,-0.685668945312
60158290274,0.195373535156,0.399780273438,-0.576232910156,-0.685546875
60158299216,0.192749023438,0.405883789062,-0.573303222656,-0.685180664062
60158321745,0.190368652344,0.412536621094,-0.569641113281,-0.684936523438
60158342880,0.188049316406,0.419006347656,-0.565979003906,-0.684692382812
60158359229,0.185241699219,0.424255371094,-0.563049316406,-0.6845703125
60158389251,0.1826171875,0.429443359375,-0.560424804688,-0.684204101562
60158402823,0.180114746094,0.435546875,-0.556945800781,-0.683898925781
60158419246,0.177856445312,0.44189453125,-0.552795410156,-0.683776855469
60158442131,0.174621582031,0.447570800781,-0.549011230469,-0.683959960938
60158462837,0.171142578125,0.452941894531,-0.545471191406,-0.684143066406
60158479339,0.168395996094,0.458190917969,-0.542175292969,-0.683898925781
60158501733,0.165588378906,0.462585449219,-0.539611816406,-0.683715820312
60158522776,0.163024902344,0.466369628906,-0.537353515625,-0.683532714844
60158539169,0.161010742188,0.470092773438,-0.53564453125,-0.682800292969
60158561655,0.158935546875,0.473693847656,-0.535217285156,-0.68115234375
60158582842,0.156005859375,0.477661132812,-0.535034179688,-0.679138183594
60158599247,0.152038574219,0.482727050781,-0.533996582031,-0.677307128906
60158621687,0.147766113281,0.487243652344,-0.53271484375,-0.676025390625
60158642840,0.141418457031,0.488159179688,-0.533264160156,-0.676330566406
60158659147,0.136352539062,0.486755371094,-0.533203125,-0.678344726562
60158681661,0.133972167969,0.484558105469,-0.532531738281,-0.680908203125
60158702823,0.133605957031,0.48193359375,-0.533203125,-0.682373046875
60158719152,0.134338378906,0.480590820312,-0.534790039062,-0.681945800781
60158741720,0.134521484375,0.481567382812,-0.53515625,-0.680908203125
60158762869,0.132446289062,0.483642578125,-0.534301757812,-0.680480957031
60158785215,0.12841796875,0.485717773438,-0.533447265625,-0.680480957031
60158801684,0.124206542969,0.486328125,-0.533874511719,-0.680480957031
60158822785,0.120910644531,0.485229492188,-0.535583496094,-0.680480957031
60158838508,0.11865234375,0.483520507812,-0.537292480469,-0.680786132812
60158861714,0.118225097656,0.482727050781,-0.538269042969,-0.680725097656
60158884185,0.118957519531,0.483215332031,-0.538330078125,-0.68017578125
60158898514,0.1201171875,0.484558105469,-0.537414550781,-0.6796875
60158921666,0.120971679688,0.485717773438,-0.536193847656,-0.6796875
60158944179,0.121520996094,0.485778808594,-0.535400390625,-0.68017578125
60158959173,0.122131347656,0.485046386719,-0.534912109375,-0.680969238281
60158981659,0.123291015625,0.484375,-0.534423828125,-0.681640625
60159004162,0.125061035156,0.484436035156,-0.533569335938,-0.681945800781
60159018470,0.126037597656,0.484558105469,-0.532592773438,-0.682373046875
60159041661,0.126831054688,0.485107421875,-0.531433105469,-0.682800292969
60159064215,0.127319335938,0.485412597656,-0.530395507812,-0.683288574219
60159078541,0.127807617188,0.485229492188,-0.529968261719,-0.683654785156
