59933331405,0.150817871094,0.513366699219,-0.568664550781,-0.624755859375
59933354956,0.150817871094,0.513366699219,-0.568725585938,-0.624755859375
59933376366,0.150085449219,0.51171875,-0.569030761719,-0.6259765625
59933391402,0.159240722656,0.51123046875,-0.572326660156,-0.62109375
59933415123,0.160888671875,0.51123046875,-0.572875976562,-0.620178222656
59933436431,0.169189453125,0.51416015625,-0.573974609375,-0.614501953125
59933451396,0.17041015625,0.515258789062,-0.57373046875,-0.613464355469
59933475103,0.167358398438,0.517395019531,-0.571472167969,-0.614624023438
59933520775,0.158752441406,0.515014648438,-0.569946289062,-0.620300292969
59933522744,0.157104492188,0.513854980469,-0.570007324219,-0.62158203125
59933542147,0.158020019531,0.510803222656,-0.572082519531,-0.621948242188
59933557143,0.165466308594,0.512329101562,-0.573791503906,-0.617248535156
59933572845,0.163391113281,0.513793945312,-0.572570800781,-0.61767578125
59933595111,0.163024902344,0.513488769531,-0.572265625,-0.618286132812
59933638692,0.162963867188,0.513427734375,-0.572265625,-0.618347167969
59933648838,0.162841796875,0.513427734375,-0.572265625,-0.618408203125
59933661945,0.162780761719,0.513427734375,-0.572265625,-0.618469238281
59933676919,0.162414550781,0.515014648438,-0.572204589844,-0.617248535156
59933692561,0.160888671875,0.518798828125,-0.569580078125,-0.616882324219
59933713716,0.162902832031,0.51953125,-0.56982421875,-0.615539550781
59933736821,0.164306640625,0.520568847656,-0.569702148438,-0.614440917969
59933752581,0.162719726562,0.523193359375,-0.567626953125,-0.614501953125
59933773647,0.155212402344,0.522155761719,-0.565368652344,-0.619384765625
59933796870,0.148681640625,0.518615722656,-0.564758300781,-0.62451171875
59933812493,0.15087890625,0.517822265625,-0.5654296875,-0.6240234375
59933833798,0.161804199219,0.522644042969,-0.565551757812,-0.617126464844
59933856720,0.172546386719,0.530639648438,-0.563232421875,-0.609436035156
59933872514,0.180908203125,0.531555175781,-0.5625,-0.60693359375
59933893769,0.185852050781,0.535461425781,-0.557189941406,-0.606872558594
59933916858,0.193237304688,0.537536621094,-0.55419921875,-0.60546875
59933932563,0.203979492188,0.536926269531,-0.555847167969,-0.601013183594
59933953611,0.216003417969,0.532592773438,-0.560729980469,-0.596069335938
59933976903,0.230102539062,0.5224609375,-0.56982421875,-0.591125488281
59933992567,0.247985839844,0.50830078125,-0.581298828125,-0.585021972656
59934015505,0.270446777344,0.492248535156,-0.592468261719,-0.577575683594
59934044421,0.2958984375,0.473449707031,-0.604248046875,-0.568542480469
59934060671,0.322509765625,0.452392578125,-0.61669921875,-0.557678222656
59934075067,0.3486328125,0.429016113281,-0.629333496094,-0.546264648438
59934096868,0.373291015625,0.401245117188,-0.642944335938,-0.535034179688
59934112985,0.396606445312,0.369567871094,-0.656982421875,-0.52392578125
59934135069,0.418029785156,0.336486816406,-0.669921875,-0.513061523438
59934156768,0.437377929688,0.302795410156,-0.680786132812,-0.503540039062
59934172582,0.455200195312,0.268249511719,-0.68994140625,-0.494812011719
59934203176,0.471862792969,0.234191894531,-0.697082519531,-0.486450195312
59934216844,0.488098144531,0.20166015625,-0.701965332031,-0.477844238281
59934232538,0.5029296875,0.171630859375,-0.704772949219,-0.470031738281
59934255020,0.515686035156,0.145812988281,-0.705383300781,-0.463989257812
59934293063,0.526611328125,0.122253417969,-0.704650878906,-0.459594726562
59934295474,0.536254882812,0.103088378906,-0.703186035156,-0.455383300781
59934315058,0.545166015625,0.0877075195312,-0.701904296875,-0.450012207031
59934336142,0.55322265625,0.0758666992188,-0.700988769531,-0.443664550781
59934352586,0.560241699219,0.0677490234375,-0.700134277344,-0.4375
59934375027,0.566101074219,0.06201171875,-0.699157714844,-0.432312011719
59934396121,0.570983886719,0.0576171875,-0.698120117188,-0.428100585938
59934412506,0.575927734375,0.0553588867188,-0.696716308594,-0.424072265625
59934435046,0.581481933594,0.05712890625,-0.695373535156,-0.41845703125
59934456077,0.587524414062,0.0635375976562,-0.695617675781,-0.408569335938
59934479292,0.594787597656,0.0753173828125,-0.697143554688,-0.393188476562
59934495005,0.604370117188,0.0884399414062,-0.699096679688,-0.371765136719
59934508662,0.616943359375,0.0991821289062,-0.700378417969,-0.345031738281
59934531924,0.631591796875,0.106262207031,-0.700500488281,-0.314880371094
59934554275,0.643981933594,0.111022949219,-0.699035644531,-0.290466308594
59934568605,0.650512695312,0.118041992188,-0.699523925781,-0.271240234375
59934591901,0.65478515625,0.134765625,-0.698974609375,-0.254028320312
59934614376,0.655700683594,0.151184082031,-0.697204589844,-0.247192382812
59934628596,0.655212402344,0.1572265625,-0.695251464844,-0.250244140625
59934651243,0.653747558594,0.155517578125,-0.69482421875,-0.256225585938
59934674257,0.651977539062,0.153198242188,-0.69677734375,-0.256896972656
59934688530,0.650268554688,0.155212402344,-0.699645996094,-0.252136230469
59934711056,0.648742675781,0.158935546875,-0.701782226562,-0.247863769531
59934734342,0.647338867188,0.160095214844,-0.702941894531,-0.247436523438
59934748691,0.646606445312,0.15869140625,-0.703735351562,-0.248046875
59934771153,0.646179199219,0.157470703125,-0.704650878906,-0.247192382812
59934794237,0.646118164062,0.157104492188,-0.705261230469,-0.245788574219
59934808725,0.645935058594,0.156311035156,-0.705871582031,-0.2451171875
59934831255,0.645690917969,0.155090332031,-0.706298828125,-0.245300292969
59934854278,0.6455078125,0.153930664062,-0.706665039062,-0.245422363281
59934868570,0.645446777344,0.153015136719,-0.706970214844,-0.245361328125
59934891058,0.645568847656,0.152954101562,-0.706787109375,-0.245483398438
59934914382,0.645446777344,0.152587890625,-0.706665039062,-0.246398925781
59934928733,0.645141601562,0.152160644531,-0.706665039062,-0.24755859375
59934951265,0.64453125,0.151794433594,-0.706909179688,-0.248718261719
59934974373,0.64404296875,0.152282714844,-0.706909179688,-0.249633789062
59934988644,0.643371582031,0.152893066406,-0.70703125,-0.250610351562
59935011123,0.642822265625,0.153625488281,-0.707092285156,-0.251403808594
59935034421,0.64208984375,0.154174804688,-0.707214355469,-0.252685546875
59935048576,0.641418457031,0.154663085938,-0.707153320312,-0.254089355469
59935071064,0.640747070312,0.155212402344,-0.707153320312,-0.255493164062
59935094300,0.640197753906,0.155517578125,-0.707153320312,-0.256652832031
59935108707,0.6396484375,0.156066894531,-0.707275390625,-0.257507324219
59935131104,0.638916015625,0.156677246094,-0.707397460938,-0.258422851562
59935154251,0.638122558594,0.156982421875,-0.707641601562,-0.259704589844
59935168744,0.637084960938,0.157287597656,-0.707763671875,-0.261535644531
59935191162,0.635986328125,0.157592773438,-0.707946777344,-0.263610839844
59935214329,0.634765625,0.158020019531,-0.7080078125,-0.266235351562
59935228689,0.6337890625,0.158630371094,-0.707641601562,-0.26904296875
59935251225,0.632629394531,0.159362792969,-0.707275390625,-0.272277832031
59935274307,0.631225585938,0.160583496094,-0.706665039062,-0.2763671875
59935288647,0.629455566406,0.162109375,-0.705871582031,-0.281555175781
59935311083,0.627319335938,0.16357421875,-0.704956054688,-0.28759765625
59935334410,0.624816894531,0.165954589844,-0.703918457031,-0.294250488281
59935348675,0.621398925781,0.167785644531,-0.70361328125,-0.301086425781
59935371053,0.617004394531,0.169738769531,-0.703918457031,-0.308166503906
59935394241,0.611633300781,0.173645019531,-0.704406738281,-0.315612792969
59935408697,0.604736328125,0.17919921875,-0.705200195312,-0.323852539062
59935431096,0.596435546875,0.185485839844,-0.706359863281,-0.332946777344
59935453591,0.587890625,0.194091796875,-0.707092285156,-0.341674804688
59935468753,0.57861328125,0.204711914062,-0.70751953125,-0.350219726562
59935491189,0.568176269531,0.217346191406,-0.707397460938,-0.35986328125
59935513635,0.556335449219,0.231018066406,-0.706909179688,-0.370666503906
59935528685,0.543640136719,0.2451171875,-0.705749511719,-0.382446289062
59935551215,0.530639648438,0.260009765625,-0.703857421875,-0.394287109375
59935573691,0.517150878906,0.275085449219,-0.701110839844,-0.406616210938
59935588593,0.503784179688,0.289978027344,-0.697448730469,-0.419189453125
59935611231,0.490783691406,0.3046875,-0.692687988281,-0.431823730469
59935633646,0.477844238281,0.318542480469,-0.687683105469,-0.444213867188
59935648647,0.464965820312,0.332580566406,-0.681762695312,-0.45654296875
59935671069,0.45263671875,0.346435546875,-0.674621582031,-0.469055175781
59935693634,0.440002441406,0.358154296875,-0.667602539062,-0.482116699219
59935708665,0.4267578125,0.368713378906,-0.661010742188,-0.494995117188
59935731145,0.413208007812,0.379455566406,-0.654479980469,-0.506896972656
59935753607,0.399963378906,0.390258789062,-0.647583007812,-0.518005371094
59935768585,0.387023925781,0.400939941406,-0.639953613281,-0.529113769531
59935791163,0.373107910156,0.411010742188,-0.63232421875,-0.540405273438
59935813677,0.358459472656,0.420349121094,-0.625671386719,-0.550842285156
59935828702,0.344299316406,0.430114746094,-0.619812011719,-0.558898925781
59935851212,0.331359863281,0.440368652344,-0.614318847656,-0.564758300781
59935873566,0.319274902344,0.450317382812,-0.608520507812,-0.570129394531
59935888544,0.307250976562,0.458190917969,-0.603637695312,-0.575622558594
59935911046,0.295837402344,0.464904785156,-0.600219726562,-0.579772949219
59935933578,0.284851074219,0.472106933594,-0.597106933594,-0.582641601562
59935948659,0.274353027344,0.47998046875,-0.593322753906,-0.585144042969
59935971064,0.264526367188,0.488159179688,-0.588806152344,-0.587463378906
59935987737,0.25537109375,0.494873046875,-0.584899902344,-0.589721679688
59936008669,0.247009277344,0.499755859375,-0.582336425781,-0.591735839844
59936031255,0.239318847656,0.503967285156,-0.580078125,-0.593505859375
59936047536,0.232543945312,0.508483886719,-0.577575683594,-0.594787597656
59936068714,0.226684570312,0.513427734375,-0.574768066406,-0.595520019531
59936091162,0.22119140625,0.517395019531,-0.572692871094,-0.59619140625
59936107501,0.215637207031,0.520324707031,-0.5712890625,-0.596984863281
59936128646,0.209838867188,0.523010253906,-0.56982421875,-0.59814453125
59936151164,0.20361328125,0.525024414062,-0.568725585938,-0.599548339844
59936167513,0.197448730469,0.52734375,-0.567932128906,-0.600341796875
59936188538,0.190795898438,0.529907226562,-0.567321777344,-0.600830078125
59936211237,0.183349609375,0.532348632812,-0.566467285156,-0.601745605469
59936227535,0.173034667969,0.533508300781,-0.566345214844,-0.603942871094
59936250040,0.165161132812,0.533874511719,-0.56494140625,-0.607055664062
59936271163,0.16259765625,0.532531738281,-0.564514160156,-0.609375
59936287518,0.161071777344,0.527465820312,-0.566772460938,-0.612060546875
59936310011,0.1611328125,0.523681640625,-0.569152832031,-0.613098144531
59936331200,0.161499023438,0.523498535156,-0.569702148438,-0.612670898438
59936347537,0.160705566406,0.525695800781,-0.568298339844,-0.6123046875
59936376710,0.158874511719,0.528015136719,-0.566345214844,-0.612548828125
59936391184,0.156188964844,0.52880859375,-0.565551757812,-0.61328125
59936407468,0.153564453125,0.527526855469,-0.566528320312,-0.614135742188
59936430047,0.151733398438,0.525268554688,-0.568298339844,-0.614929199219
59936459318,0.150817871094,0.523010253906,-0.56982421875,-0.615661621094
59936467545,0.150634765625,0.521789550781,-0.570495605469,-0.616088867188
