59610530814,-0.239196777344,-0.401062011719,0.460021972656,0.755187988281
59610553665,-0.239318847656,-0.401184082031,0.4599609375,0.755126953125
59610577402,-0.2392578125,-0.401123046875,0.4599609375,0.755187988281
59610592364,-0.241149902344,-0.402648925781,0.459289550781,0.754150390625
59610613736,-0.240417480469,-0.400024414062,0.460327148438,0.755126953125
59610637342,-0.241271972656,-0.397155761719,0.461975097656,0.75537109375
59610652314,-0.248596191406,-0.396118164062,0.46435546875,0.752075195312
59610673643,-0.250793457031,-0.396667480469,0.464599609375,0.750915527344
59610697444,-0.251342773438,-0.3974609375,0.464294433594,0.75048828125
59610727993,-0.244689941406,-0.399169921875,0.461791992188,0.753356933594
59610736327,-0.242309570312,-0.398742675781,0.46142578125,0.754516601562
59610748681,-0.239440917969,-0.395263671875,0.462341308594,0.756713867188
59610772964,-0.244323730469,-0.393676757812,0.464233398438,0.754821777344
59610793480,-0.244750976562,-0.393737792969,0.464538574219,0.754455566406
59610808557,-0.244384765625,-0.394165039062,0.46435546875,0.754516601562
59610853480,-0.244323730469,-0.394165039062,0.46435546875,0.754516601562
59610863598,-0.244323730469,-0.394226074219,0.464294433594,0.754516601562
59610869889,-0.244262695312,-0.394226074219,0.464294433594,0.754516601562
59610891614,-0.240966796875,-0.396118164062,0.463562011719,0.755065917969
59610921596,-0.244934082031,-0.392578125,0.466369628906,0.75390625
59610937933,-0.244995117188,-0.391845703125,0.466674804688,0.754028320312
59610953067,-0.251281738281,-0.390441894531,0.468872070312,0.751342773438
59610975473,-0.253540039062,-0.390869140625,0.469177246094,0.750183105469
59610997976,-0.254272460938,-0.391784667969,0.468933105469,0.749633789062
59611012965,-0.247619628906,-0.393615722656,0.466491699219,0.752380371094
59611035438,-0.245300292969,-0.393188476562,0.466125488281,0.753601074219
59611057962,-0.243530273438,-0.389892578125,0.467346191406,0.755126953125
59611072964,-0.251037597656,-0.38916015625,0.469482421875,0.751708984375
59611095437,-0.248107910156,-0.39208984375,0.467956542969,0.752136230469
59611117969,-0.247253417969,-0.392272949219,0.467529296875,0.752563476562
59611132370,-0.247192382812,-0.392333984375,0.467468261719,0.752563476562
59611155405,-0.247131347656,-0.392395019531,0.467468261719,0.752624511719
59611177991,-0.2470703125,-0.392456054688,0.467407226562,0.752624511719
59611200427,-0.2470703125,-0.392517089844,0.467407226562,0.752624511719
59611215384,-0.247009277344,-0.392578125,0.467346191406,0.752624511719
59611237950,-0.246948242188,-0.392578125,0.467346191406,0.752624511719
59611252292,-0.246520996094,-0.392639160156,0.46728515625,0.752746582031
59611275432,-0.24609375,-0.392639160156,0.467163085938,0.752990722656
59611297948,-0.245971679688,-0.392700195312,0.467163085938,0.752990722656
59611312344,-0.24609375,-0.393127441406,0.466918945312,0.752868652344
59611335473,-0.246032714844,-0.393188476562,0.466857910156,0.752868652344
59611365457,-0.246032714844,-0.393249511719,0.466857910156,0.752868652344
59611372345,-0.245971679688,-0.393310546875,0.466796875,0.7529296875
59611395467,-0.245849609375,-0.393920898438,0.466491699219,0.752807617188
59611417938,-0.246276855469,-0.395446777344,0.465942382812,0.752197265625
59611439004,-0.247863769531,-0.397705078125,0.464660644531,0.751281738281
59611455386,-0.251892089844,-0.400695800781,0.462280273438,0.749816894531
59611477957,-0.257141113281,-0.403076171875,0.459716796875,0.748352050781
59611499068,-0.2626953125,-0.404846191406,0.456665039062,0.747314453125
59611515437,-0.267883300781,-0.404663085938,0.454650878906,0.746826171875
59611537980,-0.271728515625,-0.400756835938,0.455383300781,0.7470703125
59611559084,-0.276489257812,-0.394714355469,0.458251953125,0.746826171875
59611576783,-0.283569335938,-0.38720703125,0.461120605469,0.746276855469
59611597954,-0.292907714844,-0.376953125,0.464599609375,0.745788574219
59611619112,-0.304260253906,-0.364501953125,0.469177246094,0.744567871094
59611635457,-0.317077636719,-0.351135253906,0.474060058594,0.742553710938
59611657940,-0.330078125,-0.337280273438,0.478698730469,0.740356445312
59611679031,-0.342529296875,-0.322875976562,0.483703613281,0.737854003906
59611694786,-0.353881835938,-0.307800292969,0.489501953125,0.735107421875
59611717965,-0.364562988281,-0.29248046875,0.495544433594,0.732055664062
59611739047,-0.374816894531,-0.276977539062,0.501403808594,0.728942871094
59611756786,-0.385070800781,-0.26220703125,0.506591796875,0.725463867188
59611778070,-0.394958496094,-0.248840332031,0.510986328125,0.721740722656
59611799036,-0.403869628906,-0.236267089844,0.515014648438,0.718200683594
59611814748,-0.412536621094,-0.223999023438,0.518981933594,0.714294433594
59611844222,-0.4208984375,-0.212280273438,0.522766113281,0.710266113281
59611860439,-0.428894042969,-0.200866699219,0.525817871094,0.70654296875
59611882892,-0.436462402344,-0.189697265625,0.528381347656,0.703063964844
59611903933,-0.443359375,-0.178588867188,0.530700683594,0.699890136719
59611920485,-0.449340820312,-0.166687011719,0.533447265625,0.696899414062
59611942959,-0.455627441406,-0.15478515625,0.535949707031,0.693664550781
59611964092,-0.462341308594,-0.143127441406,0.538146972656,0.690002441406
59611980394,-0.469177246094,-0.131713867188,0.539978027344,0.686218261719
59612002904,-0.4755859375,-0.119323730469,0.541381835938,0.682983398438
59612031582,-0.481567382812,-0.106018066406,0.54248046875,0.680114746094
59612040491,-0.487243652344,-0.0929565429688,0.542907714844,0.677612304688
59612062961,-0.493041992188,-0.0805053710938,0.54296875,0.674926757812
59612084076,-0.498596191406,-0.0685424804688,0.542724609375,0.67236328125
59612100439,-0.504089355469,-0.0568237304688,0.542297363281,0.669738769531
59612122916,-0.508605957031,-0.0448608398438,0.541687011719,0.667724609375
59612144111,-0.512878417969,-0.0335083007812,0.541015625,0.665649414062
59612160433,-0.516784667969,-0.022705078125,0.540100097656,0.663879394531
59612182918,-0.520629882812,-0.0127563476562,0.539245605469,0.661743164062
59612203997,-0.524536132812,-0.00445556640625,0.538024902344,0.659790039062
59612226617,-0.528015136719,0.0035400390625,0.536865234375,0.658020019531
59612242940,-0.53076171875,0.0111083984375,0.535949707031,0.656433105469
59612264093,-0.533142089844,0.0174560546875,0.534790039062,0.6552734375
59612280434,-0.535095214844,0.0222778320312,0.533508300781,0.654602050781
59612310415,-0.537170410156,0.0260620117188,0.531921386719,0.654052734375
59612324111,-0.539001464844,0.0299072265625,0.5302734375,0.653686523438
59612347921,-0.540344238281,0.0338745117188,0.529052734375,0.653442382812
59612362931,-0.5419921875,0.0363159179688,0.527587890625,0.653137207031
59612385483,-0.543823242188,0.0376586914062,0.525817871094,0.652893066406
59612399764,-0.545288085938,0.0394287109375,0.524475097656,0.652709960938
59612429173,-0.546813964844,0.0413208007812,0.523193359375,0.652282714844
59612445411,-0.54833984375,0.043212890625,0.521911621094,0.651916503906
59612460414,-0.549743652344,0.0447387695312,0.520812988281,0.651550292969
59612482939,-0.550598144531,0.0460205078125,0.519714355469,0.651611328125
59612505389,-0.5517578125,0.046630859375,0.518615722656,0.651428222656
59612520376,-0.552612304688,0.0471801757812,0.517639160156,0.651428222656
59612542960,-0.553161621094,0.0477294921875,0.517028808594,0.651428222656
59612565395,-0.553588867188,0.0479736328125,0.516296386719,0.651611328125
59612588572,-0.554016113281,0.0477294921875,0.515625,0.65185546875
59612602901,-0.554138183594,0.0477905273438,0.51513671875,0.652099609375
59612625476,-0.554138183594,0.0479125976562,0.514953613281,0.652282714844
59612639785,-0.553833007812,0.0476684570312,0.515014648438,0.652465820312
59612662958,-0.553771972656,0.0472412109375,0.515075683594,0.652526855469
59612668437,-0.553894042969,0.0469970703125,0.515014648438,0.652465820312
59612690959,-0.553894042969,0.0469970703125,0.515014648438,0.652465820312
59612707343,-0.553833007812,0.0473022460938,0.51513671875,0.652404785156
59612728512,-0.553894042969,0.0477905273438,0.515380859375,0.652099609375
59612750919,-0.554016113281,0.048095703125,0.515747070312,0.651733398438
59612767350,-0.554382324219,0.0484008789062,0.515869140625,0.651306152344
59612788360,-0.554565429688,0.0486450195312,0.515808105469,0.651184082031
59612810811,-0.5546875,0.0488891601562,0.515686035156,0.651123046875
59612827319,-0.554748535156,0.0493774414062,0.515625,0.651062011719
59612848461,-0.554870605469,0.0498657226562,0.515686035156,0.65087890625
59612870912,-0.554992675781,0.0501098632812,0.515747070312,0.650695800781
59612887338,-0.555053710938,0.0501098632812,0.515747070312,0.650695800781
59612908493,-0.554992675781,0.0502319335938,0.515563964844,0.650817871094
59612931017,-0.554809570312,0.0506591796875,0.515441894531,0.651062011719
59612947239,-0.554870605469,0.0508422851562,0.515258789062,0.651184082031
59612975912,-0.554809570312,0.0509033203125,0.515075683594,0.6513671875
59612990940,-0.554870605469,0.0509643554688,0.514892578125,0.651489257812
59613007218,-0.554870605469,0.051025390625,0.514831542969,0.651428222656
59613028506,-0.554931640625,0.0509643554688,0.514831542969,0.651428222656
59613050975,-0.554931640625,0.0509643554688,0.514831542969,0.651428222656
59613067237,-0.554931640625,0.051025390625,0.514831542969,0.651428222656
59613088470,-0.554931640625,0.051025390625,0.514831542969,0.651428222656
59613111038,-0.554931640625,0.051025390625,0.514831542969,0.651428222656
59613127347,-0.554992675781,0.05078125,0.514770507812,0.651428222656
59613148435,-0.554992675781,0.0505981445312,0.514709472656,0.651489257812
59613170934,-0.554992675781,0.0505981445312,0.514709472656,0.651489257812
59613187343,-0.555053710938,0.0506591796875,0.514709472656,0.651489257812
59613215774,-0.55517578125,0.0505981445312,0.514587402344,0.651489257812
59613230959,-0.55517578125,0.0505981445312,0.514587402344,0.651428222656
59613247342,-0.55517578125,0.0505981445312,0.514587402344,0.651428222656
59613268469,-0.55517578125,0.0505981445312,0.514587402344,0.651428222656
59613290894,-0.55517578125,0.0505981445312,0.514587402344,0.651428222656
59613307297,-0.55517578125,0.0506591796875,0.514587402344,0.651428222656
59613328494,-0.55517578125,0.0506591796875,0.514587402344,0.651428222656
59613350968,-0.55517578125,0.0506591796875,0.514587402344,0.651428222656
59613368669,-0.554870605469,0.0505981445312,0.5146484375,0.651672363281
59613388379,-0.5546875,0.0504760742188,0.514709472656,0.651794433594
59613413775,-0.554626464844,0.0501098632812,0.514709472656,0.65185546875
59613428694,-0.554565429688,0.0499267578125,0.514587402344,0.652038574219
59613448397,-0.554443359375,0.0499877929688,0.514526367188,0.652160644531
59613471051,-0.554443359375,0.0499877929688,0.514526367188,0.652160644531
59613488759,-0.554443359375,0.0499877929688,0.514526367188,0.652160644531
59613508502,-0.554565429688,0.0498046875,0.514404296875,0.652160644531
59613530775,-0.554504394531,0.0496215820312,0.51416015625,0.652465820312
59613548655,-0.554504394531,0.0496215820312,0.51416015625,0.652404785156
59613575951,-0.554504394531,0.0496826171875,0.51416015625,0.652404785156
59613593755,-0.554504394531,0.0493774414062,0.514221191406,0.652404785156
59613608696,-0.554504394531,0.0493774414062,0.514221191406,0.652404785156
59613628360,-0.554321289062,0.0494384765625,0.514343261719,0.652465820312
59613650854,-0.55419921875,0.04931640625,0.514465332031,0.652465820312
59613668667,-0.554138183594,0.0491943359375,0.514587402344,0.652404785156
59613688458,-0.554260253906,0.0488891601562,0.514526367188,0.652404785156
59613710821,-0.554260253906,0.0488891601562,0.514526367188,0.652404785156
59613728745,-0.554260253906,0.0488891601562,0.514526367188,0.652404785156
59613748398,-0.554260253906,0.0488891601562,0.514526367188,0.652404785156
59613773684,-0.554260253906,0.0488891601562,0.514526367188,0.652404785156
59613788728,-0.554260253906,0.0488891601562,0.514526367188,0.652404785156
59613808463,-0.554260253906,0.0488891601562,0.514526367188,0.652404785156
59613826235,-0.554260253906,0.0488891601562,0.514526367188,0.652404785156
59613848659,-0.554260253906,0.0488891601562,0.514526367188,0.652404785156
59613868505,-0.554260253906,0.0488891601562,0.514526367188,0.652404785156
59613886244,-0.554138183594,0.0487670898438,0.514587402344,0.652465820312
59613908718,-0.55419921875,0.0487670898438,0.514587402344,0.652465820312
59613928356,-0.55419921875,0.0487670898438,0.514587402344,0.652465820312
59613952324,-0.55419921875,0.0485229492188,0.514465332031,0.652526855469
59613974781,-0.554260253906,0.0484008789062,0.514282226562,0.652648925781
59613989794,-0.554260253906,0.0482177734375,0.514221191406,0.652709960938
59614006200,-0.554321289062,0.0479736328125,0.514038085938,0.652770996094
59614028688,-0.554321289062,0.0476684570312,0.513977050781,0.652893066406
59614049753,-0.55419921875,0.0474853515625,0.513854980469,0.653076171875
59614066182,-0.55419921875,0.0471801757812,0.513793945312,0.653198242188
59614088701,-0.554077148438,0.046875,0.513793945312,0.653259277344
59614134274,-0.553955078125,0.0465698242188,0.513793945312,0.653381347656
59614138395,-0.5537109375,0.046142578125,0.513854980469,0.653625488281
59614148711,-0.553405761719,0.045654296875,0.513854980469,0.653869628906
59614169739,-0.553161621094,0.0451049804688,0.513916015625,0.654113769531
59614186197,-0.552734375,0.0445556640625,0.514038085938,0.654418945312
59614208751,-0.552307128906,0.0438842773438,0.51416015625,0.654663085938
59614229168,-0.551696777344,0.0432739257812,0.514526367188,0.654968261719
59614252912,-0.550659179688,0.042724609375,0.515502929688,0.655090332031
59614267869,-0.549682617188,0.0422973632812,0.516418457031,0.6552734375
59614297982,-0.548767089844,0.0413818359375,0.517211914062,0.655456542969
59614305392,-0.5478515625,0.0396728515625,0.517944335938,0.65576171875
59614327912,-0.546813964844,0.037841796875,0.518737792969,0.656066894531
59614350392,-0.5458984375,0.0357666015625,0.519714355469,0.656188964844
59614365388,-0.545288085938,0.0333862304688,0.520568847656,0.656127929688
59614387907,-0.544738769531,0.031005859375,0.521728515625,0.655822753906
59614410399,-0.544250488281,0.0284423828125,0.522827148438,0.655456542969
59614425360,-0.543395996094,0.0252075195312,0.524169921875,0.655212402344
59614447917,-0.541931152344,0.0214233398438,0.525695800781,0.655334472656
59614470364,-0.539978027344,0.0167236328125,0.527648925781,0.655517578125
59614484678,-0.537658691406,0.0103759765625,0.52978515625,0.655822753906
59614507912,-0.53466796875,0.003173828125,0.531799316406,0.656677246094
59614530378,-0.531188964844,-0.00482177734375,0.533996582031,0.65771484375
59614559061,-0.527404785156,-0.0143432617188,0.536193847656,0.658874511719
59614567912,-0.523010253906,-0.0254516601562,0.538208007812,0.660339355469
59614590389,-0.518676757812,-0.0379638671875,0.5400390625,0.661682128906
59614611560,-0.513977050781,-0.0513916015625,0.541931152344,0.662902832031
59614628009,-0.508605957031,-0.0659790039062,0.543579101562,0.664428710938
59614650415,-0.502197265625,-0.081298828125,0.544616699219,0.666687011719
59614671566,-0.495361328125,-0.0974731445312,0.545166015625,0.669250488281
59614687897,-0.489135742188,-0.114685058594,0.545166015625,0.671081542969
59614710448,-0.482421875,-0.131896972656,0.544921875,0.672973632812
59614731527,-0.474975585938,-0.149475097656,0.544311523438,0.675048828125
59614747885,-0.466247558594,-0.166870117188,0.54345703125,0.677795410156
59614770428,-0.457153320312,-0.18408203125,0.541809082031,0.680847167969
59614791563,-0.447387695312,-0.201110839844,0.539855957031,0.684020996094
59614807914,-0.437805175781,-0.217895507812,0.537475585938,0.68701171875
59614830409,-0.428283691406,-0.23388671875,0.53466796875,0.689880371094
59614851440,-0.418029785156,-0.24853515625,0.531677246094,0.693359375
59614867845,-0.407348632812,-0.263122558594,0.528076171875,0.697082519531
59614890388,-0.396057128906,-0.276245117188,0.523986816406,0.701599121094
59614911522,-0.384399414062,-0.286499023438,0.520751953125,0.706359863281
59614927859,-0.372924804688,-0.295715332031,0.517761230469,0.7109375
59614950376,-0.362915039062,-0.306396484375,0.514038085938,0.714294433594
59614971512,-0.354553222656,-0.317810058594,0.509460449219,0.716735839844
59614987908,-0.346313476562,-0.327575683594,0.504943847656,0.719543457031
59615010428,-0.337890625,-0.335388183594,0.500915527344,0.722778320312
59615038931,-0.329406738281,-0.342468261719,0.497192382812,0.725952148438
59615047218,-0.32177734375,-0.349792480469,0.493041992188,0.728698730469
59615070362,-0.315368652344,-0.356689453125,0.488952636719,0.730895996094
59615091460,-0.309814453125,-0.362060546875,0.485961914062,0.732604980469
59615107919,-0.304321289062,-0.365966796875,0.484497070312,0.733947753906
59615130389,-0.29931640625,-0.369445800781,0.483276367188,0.735046386719
59615152157,-0.295471191406,-0.373718261719,0.481506347656,0.735595703125
59615167285,-0.292053222656,-0.377868652344,0.479919433594,0.735900878906
59615190369,-0.289306640625,-0.381530761719,0.479248046875,0.735534667969
59615211560,-0.286560058594,-0.384582519531,0.479187011719,0.735046386719
59615227225,-0.283447265625,-0.387329101562,0.479187011719,0.734802246094
59615250414,-0.280456542969,-0.390625,0.478637695312,0.734619140625
59615272861,-0.278015136719,-0.393981933594,0.477722167969,0.734313964844
59615287266,-0.276000976562,-0.396728515625,0.477355957031,0.733825683594
59615310376,-0.274047851562,-0.39892578125,0.477478027344,0.733337402344
59615332857,-0.271545410156,-0.401184082031,0.477294921875,0.733093261719
59615347172,-0.268920898438,-0.403625488281,0.476684570312,0.733154296875
59615370338,-0.266052246094,-0.406372070312,0.475769042969,0.733215332031
59615392894,-0.262512207031,-0.408630371094,0.475280761719,0.733581542969
59615407214,-0.258850097656,-0.410766601562,0.474670410156,0.734130859375
59615430444,-0.254699707031,-0.41162109375,0.473693847656,0.735717773438
59615452895,-0.252014160156,-0.410766601562,0.47265625,0.73779296875
59615467213,-0.251403808594,-0.408752441406,0.47216796875,0.739440917969
59615490361,-0.251831054688,-0.407165527344,0.472290039062,0.740051269531
59615513317,-0.252258300781,-0.406860351562,0.472290039062,0.740112304688
59615527270,-0.251403808594,-0.407348632812,0.472045898438,0.740295410156
59615550289,-0.248840332031,-0.407531738281,0.4716796875,0.741271972656
59615572876,-0.245483398438,-0.406982421875,0.471313476562,0.742919921875
59615594184,-0.242370605469,-0.406188964844,0.471008300781,0.744567871094
59615610359,-0.239990234375,-0.40576171875,0.470764160156,0.745727539062
59615638951,-0.237670898438,-0.405395507812,0.470764160156,0.746643066406
59615654013,-0.235534667969,-0.405090332031,0.470764160156,0.747497558594
59615670388,-0.233581542969,-0.404418945312,0.470947265625,0.748352050781
59615692877,-0.231750488281,-0.403503417969,0.471374511719,0.749145507812
59615707141,-0.230224609375,-0.402648925781,0.471984863281,0.749694824219
59615730339,-0.229187011719,-0.402099609375,0.472534179688,0.75
