59854372566,0.212646484375,0.515197753906,-0.539794921875,-0.630859375
59854395353,0.212585449219,0.515258789062,-0.539794921875,-0.630859375
59854419021,0.210754394531,0.517822265625,-0.538940429688,-0.630065917969
59854433875,0.204467773438,0.5166015625,-0.537780761719,-0.634155273438
59854455223,0.202331542969,0.516174316406,-0.537353515625,-0.635498046875
59854478967,0.200439453125,0.515319824219,-0.537292480469,-0.636901855469
59854493992,0.199096679688,0.51171875,-0.539001464844,-0.638793945312
59854515293,0.200866699219,0.51171875,-0.539489746094,-0.637817382812
59854539002,0.203063964844,0.512634277344,-0.539672851562,-0.63623046875
59854569137,0.205444335938,0.516418457031,-0.538146972656,-0.633666992188
59854579926,0.199584960938,0.516662597656,-0.536010742188,-0.637145996094
59854598409,0.197509765625,0.515747070312,-0.535888671875,-0.638610839844
59854612881,0.197326660156,0.516784667969,-0.535278320312,-0.638366699219
59854637158,0.197387695312,0.516906738281,-0.535461425781,-0.638122558594
59854658602,0.197448730469,0.516845703125,-0.535522460938,-0.638061523438
59854695060,0.197509765625,0.516784667969,-0.535583496094,-0.638061523438
59854705097,0.197631835938,0.516784667969,-0.535583496094,-0.638000488281
59854718296,0.198425292969,0.516967773438,-0.536315917969,-0.637023925781
59854733177,0.202697753906,0.513549804688,-0.53955078125,-0.635681152344
59854755807,0.200439453125,0.51318359375,-0.5390625,-0.637084960938
59854770152,0.198486328125,0.512329101562,-0.538940429688,-0.638488769531
59854793349,0.196655273438,0.508666992188,-0.54052734375,-0.640686035156
59854815764,0.203125,0.508483886719,-0.542724609375,-0.636962890625
59854830145,0.205322265625,0.509399414062,-0.542846679688,-0.635375976562
59854853279,0.207458496094,0.513244628906,-0.541198730469,-0.632995605469
59854875791,0.20068359375,0.513061523438,-0.5390625,-0.637145996094
59854890023,0.193115234375,0.509216308594,-0.538757324219,-0.642761230469
59854913265,0.188781738281,0.508728027344,-0.537780761719,-0.645263671875
59854935765,0.189880371094,0.5078125,-0.538024902344,-0.6455078125
59854950003,0.190246582031,0.507751464844,-0.538208007812,-0.645263671875
59854973245,0.190612792969,0.507751464844,-0.538330078125,-0.645080566406
59854995959,0.190734863281,0.5078125,-0.538330078125,-0.644958496094
59855010000,0.191467285156,0.508117675781,-0.538391113281,-0.644470214844
59855033148,0.192138671875,0.508483886719,-0.538330078125,-0.64404296875
59855055648,0.192260742188,0.508544921875,-0.538330078125,-0.643981933594
59855071417,0.192565917969,0.508544921875,-0.538513183594,-0.643676757812
59855093285,0.192687988281,0.508605957031,-0.538513183594,-0.643615722656
59855115741,0.192810058594,0.508666992188,-0.538513183594,-0.6435546875
59855131501,0.192932128906,0.508666992188,-0.538513183594,-0.643432617188
59855153266,0.193054199219,0.508728027344,-0.53857421875,-0.643371582031
59855175776,0.193176269531,0.5087890625,-0.53857421875,-0.643310546875
59855191419,0.193298339844,0.5087890625,-0.53857421875,-0.643188476562
59855213118,0.193420410156,0.508850097656,-0.53857421875,-0.643127441406
59855235741,0.193542480469,0.508911132812,-0.53857421875,-0.64306640625
59855251491,0.193603515625,0.508972167969,-0.538635253906,-0.642944335938
59855273212,0.193725585938,0.508972167969,-0.538635253906,-0.642883300781
59855295846,0.19384765625,0.508972167969,-0.538635253906,-0.642822265625
59855311463,0.194396972656,0.50927734375,-0.538635253906,-0.642456054688
59855332617,0.194519042969,0.509338378906,-0.538635253906,-0.642395019531
59855355769,0.194580078125,0.509338378906,-0.538696289062,-0.642333984375
59855371418,0.194702148438,0.509399414062,-0.538696289062,-0.642211914062
59855394019,0.194763183594,0.509399414062,-0.538696289062,-0.642150878906
59855415630,0.194885253906,0.509399414062,-0.538757324219,-0.64208984375
59855431486,0.195007324219,0.509460449219,-0.538757324219,-0.642028808594
59855452539,0.195068359375,0.509460449219,-0.538757324219,-0.641967773438
59855475735,0.195190429688,0.509521484375,-0.538757324219,-0.641906738281
59855491508,0.1953125,0.509521484375,-0.538818359375,-0.641845703125
59855512578,0.195373535156,0.509582519531,-0.538818359375,-0.641784667969
59855535790,0.195495605469,0.509582519531,-0.538818359375,-0.641723632812
59855551426,0.195983886719,0.510009765625,-0.538696289062,-0.641357421875
59855572528,0.196716308594,0.5107421875,-0.538269042969,-0.640869140625
59855595816,0.198059082031,0.512084960938,-0.537719726562,-0.639892578125
59855611463,0.20068359375,0.514587402344,-0.536437988281,-0.638122558594
59855632532,0.205322265625,0.517883300781,-0.533874511719,-0.636108398438
59855655793,0.212036132812,0.520080566406,-0.531555175781,-0.634094238281
59855671465,0.221130371094,0.520690917969,-0.530029296875,-0.631713867188
59855693941,0.232177734375,0.5205078125,-0.529724121094,-0.628173828125
59855717155,0.242431640625,0.516784667969,-0.531799316406,-0.625610351562
59855731397,0.252807617188,0.509094238281,-0.536254882812,-0.6240234375
59855753959,0.266540527344,0.497741699219,-0.542419433594,-0.6220703125
59855777574,0.284301757812,0.484130859375,-0.54931640625,-0.618957519531
59855798282,0.304870605469,0.467895507812,-0.556762695312,-0.614929199219
59855813971,0.326477050781,0.449279785156,-0.565246582031,-0.609924316406
59855837098,0.347900390625,0.428161621094,-0.575256347656,-0.603942871094
59855858276,0.3681640625,0.404724121094,-0.586181640625,-0.597534179688
59855873945,0.387145996094,0.379089355469,-0.597595214844,-0.591064453125
59855897104,0.404663085938,0.350769042969,-0.609252929688,-0.584838867188
59855918336,0.421447753906,0.321350097656,-0.620056152344,-0.578491210938
59855933934,0.437072753906,0.291625976562,-0.629821777344,-0.572021484375
59855957119,0.451049804688,0.26123046875,-0.638366699219,-0.56640625
59855978264,0.463989257812,0.231079101562,-0.645446777344,-0.56103515625
59855993965,0.47607421875,0.202026367188,-0.651245117188,-0.555358886719
59856017108,0.487121582031,0.172668457031,-0.656188964844,-0.5498046875
59856038261,0.496826171875,0.144470214844,-0.660522460938,-0.544067382812
59856053964,0.505432128906,0.118591308594,-0.663940429688,-0.538269042969
59856077122,0.513366699219,0.0943603515625,-0.666381835938,-0.532470703125
59856098260,0.52099609375,0.0723876953125,-0.66748046875,-0.527099609375
59856113937,0.528137207031,0.0524291992188,-0.668029785156,-0.521667480469
59856137088,0.534973144531,0.0355224609375,-0.667907714844,-0.516235351562
59856158331,0.540832519531,0.0208740234375,-0.667541503906,-0.511352539062
59856182144,0.545776367188,0.00909423828125,-0.667297363281,-0.506713867188
59856197069,0.549987792969,-0.00091552734375,-0.66748046875,-0.502075195312
59856225647,0.5537109375,-0.00921630859375,-0.667663574219,-0.49755859375
59856233976,0.556640625,-0.014892578125,-0.668273925781,-0.493347167969
59856257132,0.558837890625,-0.0191650390625,-0.669372558594,-0.489196777344
59856278340,0.560180664062,-0.0225219726562,-0.670837402344,-0.485473632812
59856293934,0.561218261719,-0.0250244140625,-0.672424316406,-0.48193359375
59856316425,0.562316894531,-0.0261840820312,-0.673950195312,-0.478515625
59856338280,0.563415527344,-0.0258178710938,-0.674987792969,-0.475646972656
59856353963,0.564453125,-0.023681640625,-0.675659179688,-0.473693847656
59856376475,0.56494140625,-0.0206909179688,-0.676147460938,-0.472534179688
59856405757,0.564819335938,-0.017578125,-0.676391601562,-0.472534179688
59856413934,0.564636230469,-0.0137939453125,-0.675964355469,-0.473388671875
59856436421,0.564514160156,-0.00946044921875,-0.674621582031,-0.4755859375
59856458280,0.564514160156,-0.00408935546875,-0.672424316406,-0.478637695312
59856473915,0.564758300781,0.00079345703125,-0.669921875,-0.48193359375
59856504592,0.5654296875,0.00543212890625,-0.667358398438,-0.484741210938
59856519637,0.566223144531,0.0093994140625,-0.664794921875,-0.487182617188
59856533929,0.566711425781,0.0115966796875,-0.662719726562,-0.489501953125
59856556419,0.567199707031,0.0125122070312,-0.660949707031,-0.4912109375
59856579561,0.567749023438,0.0125732421875,-0.659912109375,-0.492004394531
59856593976,0.568359375,0.0120849609375,-0.659484863281,-0.491882324219
59856616470,0.56884765625,0.010986328125,-0.659423828125,-0.491394042969
59856639629,0.569274902344,0.00946044921875,-0.659729003906,-0.490539550781
59856653937,0.569641113281,0.0079345703125,-0.660095214844,-0.489624023438
59856676440,0.569946289062,0.006591796875,-0.660461425781,-0.48876953125
59856690103,0.570251464844,0.00567626953125,-0.660827636719,-0.487976074219
59856713116,0.570434570312,0.0047607421875,-0.6611328125,-0.487365722656
59856735612,0.570678710938,0.00408935546875,-0.661376953125,-0.486755371094
59856750026,0.570861816406,0.0037841796875,-0.661437988281,-0.486450195312
59856773169,0.571044921875,0.0037841796875,-0.661499023438,-0.486206054688
59856787522,0.5712890625,0.0042724609375,-0.661376953125,-0.486083984375
59856810093,0.571472167969,0.004638671875,-0.661254882812,-0.486022949219
59856833216,0.571533203125,0.004638671875,-0.661193847656,-0.485961914062
59856847577,0.571838378906,0.0052490234375,-0.661071777344,-0.485717773438
59856878906,0.572143554688,0.00579833984375,-0.660949707031,-0.485534667969
59856893244,0.572326660156,0.00628662109375,-0.660949707031,-0.4853515625
59856907620,0.572631835938,0.00677490234375,-0.660888671875,-0.485107421875
59856930203,0.573059082031,0.00726318359375,-0.660766601562,-0.484741210938
59856953129,0.573425292969,0.00775146484375,-0.66064453125,-0.484436035156
59856967448,0.573852539062,0.00811767578125,-0.660522460938,-0.484130859375
59856990145,0.574096679688,0.00860595703125,-0.660400390625,-0.483947753906
59857013213,0.574340820312,0.00921630859375,-0.660278320312,-0.483825683594
59857027581,0.574523925781,0.0100708007812,-0.660217285156,-0.483764648438
59857050169,0.574645996094,0.0111694335938,-0.660095214844,-0.483703613281
59857073270,0.574584960938,0.0126342773438,-0.660095214844,-0.483764648438
59857087622,0.574340820312,0.0145874023438,-0.660217285156,-0.483764648438
59857110087,0.573669433594,0.01708984375,-0.660827636719,-0.483642578125
59857133137,0.57275390625,0.0204467773438,-0.661682128906,-0.483459472656
59857147607,0.5712890625,0.0247802734375,-0.662902832031,-0.4833984375
59857170063,0.569274902344,0.0307006835938,-0.664123535156,-0.483703613281
59857193209,0.56689453125,0.0386962890625,-0.665405273438,-0.484069824219
59857207477,0.563537597656,0.0479736328125,-0.667053222656,-0.484985351562
59857229955,0.559143066406,0.0591430664062,-0.669250488281,-0.48583984375
59857253149,0.553955078125,0.0714721679688,-0.671508789062,-0.486938476562
59857267486,0.54833984375,0.0848388671875,-0.673828125,-0.487976074219
59857291438,0.542663574219,0.0995483398438,-0.675598144531,-0.489074707031
59857313267,0.536682128906,0.116088867188,-0.676574707031,-0.490661621094
59857327517,0.530334472656,0.13427734375,-0.677001953125,-0.492370605469
59857349993,0.523254394531,0.152954101562,-0.677062988281,-0.494384765625
59857373223,0.515930175781,0.172485351562,-0.676452636719,-0.496459960938
59857387604,0.508361816406,0.192321777344,-0.675170898438,-0.498779296875
59857410062,0.500183105469,0.212219238281,-0.673278808594,-0.501525878906
59857432584,0.490966796875,0.232116699219,-0.671020507812,-0.504821777344
59857447636,0.4814453125,0.251770019531,-0.668518066406,-0.507873535156
59857470072,0.472290039062,0.271179199219,-0.665649414062,-0.510192871094
59857492419,0.462890625,0.290405273438,-0.662231445312,-0.5126953125
59857507424,0.452575683594,0.30859375,-0.658386230469,-0.516235351562
59857530000,0.44189453125,0.326354980469,-0.653930664062,-0.520202636719
59857552614,0.430969238281,0.343139648438,-0.648986816406,-0.524719238281
59857567500,0.419494628906,0.359619140625,-0.642944335938,-0.530395507812
59857590072,0.40771484375,0.374816894531,-0.636596679688,-0.536682128906
59857612603,0.394836425781,0.388427734375,-0.630615234375,-0.543701171875
59857627481,0.381896972656,0.402160644531,-0.624084472656,-0.550415039062
59857650083,0.369262695312,0.415710449219,-0.616882324219,-0.557067871094
59857672604,0.356262207031,0.427612304688,-0.610107421875,-0.563903808594
59857687557,0.342163085938,0.438171386719,-0.603942871094,-0.571166992188
59857709959,0.328186035156,0.449523925781,-0.597045898438,-0.577697753906
59857732582,0.314208984375,0.46044921875,-0.58984375,-0.584289550781
59857747536,0.300476074219,0.470886230469,-0.582580566406,-0.590454101562
59857770068,0.287475585938,0.480224609375,-0.575805664062,-0.596008300781
59857792570,0.274719238281,0.488708496094,-0.569458007812,-0.601196289062
59857807661,0.262634277344,0.49755859375,-0.562805175781,-0.605590820312
59857830021,0.251281738281,0.506408691406,-0.555908203125,-0.609436035156
59857852559,0.240844726562,0.513305664062,-0.550964355469,-0.612365722656
59857867461,0.231201171875,0.51904296875,-0.547973632812,-0.613891601562
59857891382,0.222045898438,0.525024414062,-0.54541015625,-0.614501953125
59857912539,0.212585449219,0.531677246094,-0.542236328125,-0.614929199219
59857927645,0.202575683594,0.537109375,-0.538696289062,-0.61669921875
59857950016,0.1953125,0.539733886719,-0.535705566406,-0.619323730469
59857972547,0.192138671875,0.535400390625,-0.537109375,-0.622863769531
59857987625,0.190979003906,0.52734375,-0.541687011719,-0.626159667969
59858010013,0.190612792969,0.520751953125,-0.5458984375,-0.628112792969
59858032584,0.191223144531,0.518737792969,-0.548156738281,-0.627624511719
59858047438,0.191772460938,0.521423339844,-0.547241210938,-0.626037597656
59858070065,0.190490722656,0.526611328125,-0.543212890625,-0.625610351562
59858092564,0.187316894531,0.530578613281,-0.539001464844,-0.626831054688
59858107556,0.184631347656,0.530456542969,-0.5380859375,-0.628540039062
59858130206,0.183715820312,0.527160644531,-0.541015625,-0.629028320312
59858152585,0.182983398438,0.523193359375,-0.544982910156,-0.629150390625
59858168927,0.182373046875,0.521118164062,-0.546936035156,-0.629333496094
59858190135,0.182495117188,0.521545410156,-0.546325683594,-0.629516601562
59858212603,0.183410644531,0.523132324219,-0.544189453125,-0.629760742188
59858228888,0.184753417969,0.524658203125,-0.541931152344,-0.630065917969
59858249982,0.185852050781,0.525451660156,-0.540100097656,-0.630676269531
59858266388,0.186462402344,0.525512695312,-0.538696289062,-0.631591796875
59858288917,0.186706542969,0.525207519531,-0.537658691406,-0.632629394531
59858310014,0.186706542969,0.524963378906,-0.536682128906,-0.633728027344
59858326388,0.18701171875,0.525024414062,-0.535522460938,-0.634521484375
59858348938,0.187866210938,0.525329589844,-0.534240722656,-0.635131835938
59858370125,0.189086914062,0.525512695312,-0.533203125,-0.635498046875
59858386393,0.190246582031,0.525268554688,-0.532592773438,-0.635803222656
