59874682343,0.43603515625,-0.8046875,0.3798828125
59874706143,0.35107421875,-0.7822265625,0.20068359375
59874720987,0.56982421875,-0.748046875,-0.0009765625
59874742394,-0.31689453125,-0.947265625,-0.30615234375
59874766156,-0.09326171875,-0.87646484375,-0.35986328125
59874781161,0.498046875,-0.6943359375,0.05859375
59874803664,1.05322265625,-0.59130859375,0.787109375
59874824944,1.07763671875,-0.67041015625,1.18115234375
59874864336,0.51708984375,-0.87451171875,0.85791015625
59874866445,-0.12109375,-1.02197265625,0.095703125
59874886398,-0.2568359375,-0.97119140625,-0.400390625
59874901297,-0.18310546875,-0.90673828125,0.2568359375
59874926279,0.36376953125,-0.78076171875,0.3701171875
59874946409,0.41455078125,-0.8134765625,0.39453125
59874982433,0.4345703125,-0.80810546875,0.38671875
59874992290,0.43798828125,-0.8037109375,0.38525390625
59875013497,0.41357421875,-0.80126953125,0.3349609375
59875020334,0.595703125,-0.8056640625,0.732421875
59875042830,0.220703125,-0.74462890625,-0.06640625
59875065703,0.330078125,-0.7412109375,-0.0849609375
59875080443,0.87548828125,-0.61962890625,0.4990234375
59875102967,1.15576171875,-0.61767578125,1.0927734375
59875125558,0.796875,-0.7880859375,1.0693359375
59875140465,0.0732421875,-0.98388671875,0.3779296875
59875162958,-0.2841796875,-0.99658203125,-0.326171875
59875185450,0.11669921875,-0.8115234375,-0.28369140625
59875200334,0.724609375,-0.6328125,0.37255859375
59875222926,0.4150390625,-0.77099609375,0.3232421875
59875245364,0.43310546875,-0.81103515625,0.4013671875
59875260486,0.4287109375,-0.80224609375,0.380859375
59875282832,0.43017578125,-0.80322265625,0.38916015625
59875305300,0.43408203125,-0.80029296875,0.3876953125
59875320299,0.4296875,-0.802734375,0.38232421875
59875342832,0.435546875,-0.8076171875,0.3857421875
59875365613,0.43603515625,-0.80810546875,0.3818359375
59875380446,0.43701171875,-0.8134765625,0.3896484375
59875402932,0.4326171875,-0.81005859375,0.388671875
59875425302,0.44091796875,-0.810546875,0.38720703125
59875440425,0.43505859375,-0.8095703125,0.3818359375
59875462860,0.43408203125,-0.806640625,0.38671875
59875485487,0.43408203125,-0.8037109375,0.38427734375
59875500390,0.4375,-0.80810546875,0.3876953125
59875522990,0.43310546875,-0.8037109375,0.3837890625
59875545463,0.4345703125,-0.80224609375,0.38330078125
59875560435,0.43212890625,-0.80126953125,0.3837890625
59875582900,0.43115234375,-0.80029296875,0.39013671875
59875605588,0.43994140625,-0.80126953125,0.384765625
59875619849,0.43505859375,-0.802734375,0.38818359375
59875642833,0.431640625,-0.8076171875,0.38330078125
59875665475,0.4365234375,-0.8037109375,0.3935546875
59875679781,0.4365234375,-0.8037109375,0.39306640625
59875702762,0.43603515625,-0.80029296875,0.3974609375
59875725307,0.4404296875,-0.80224609375,0.39013671875
59875739800,0.439453125,-0.80908203125,0.3876953125
59875762872,0.4453125,-0.80419921875,0.38818359375
59875785464,0.435546875,-0.80029296875,0.3876953125
59875799729,0.43505859375,-0.796875,0.3857421875
59875822958,0.44140625,-0.8076171875,0.38525390625
59875845532,0.439453125,-0.8115234375,0.38330078125
59875859676,0.435546875,-0.80859375,0.3759765625
59875882990,0.4326171875,-0.80078125,0.3798828125
59875905509,0.43212890625,-0.8017578125,0.3837890625
59875919745,0.431640625,-0.80615234375,0.3818359375
59875942809,0.44287109375,-0.8076171875,0.39013671875
59875965437,0.44677734375,-0.8056640625,0.41259765625
59875981112,0.46435546875,-0.83544921875,0.40869140625
59876011554,0.49365234375,-0.83056640625,0.4169921875
59876025443,0.47314453125,-0.88037109375,0.4072265625
59876041001,0.49267578125,-0.88427734375,0.42431640625
59876064304,0.4921875,-0.97412109375,0.46630859375
59876085478,0.45361328125,-1.09814453125,0.5126953125
59876101121,0.365234375,-1.1640625,0.52880859375
59876124347,0.2890625,-1.13232421875,0.5498046875
59876145443,0.201171875,-1.1103515625,0.55078125
59876161039,0.1103515625,-1.10693359375,0.5439453125
59876184244,0.0361328125,-1.09130859375,0.5126953125
59876205352,-0.04443359375,-1.0830078125,0.486328125
59876221092,-0.12255859375,-1.03271484375,0.4736328125
59876244354,-0.166015625,-0.9873046875,0.4482421875
59876265334,-0.20458984375,-0.93017578125,0.4248046875
59876281082,-0.24951171875,-0.8564453125,0.39208984375
59876304232,-0.2744140625,-0.78759765625,0.373046875
59876325136,-0.2841796875,-0.7685546875,0.3583984375
59876341087,-0.28369140625,-0.74462890625,0.35546875
59876364248,-0.3203125,-0.67529296875,0.33447265625
59876385435,-0.35791015625,-0.63623046875,0.322265625
59876401797,-0.37890625,-0.65966796875,0.33154296875
59876424298,-0.4072265625,-0.64306640625,0.33203125
59876445402,-0.435546875,-0.62109375,0.3369140625
59876461016,-0.45556640625,-0.58544921875,0.3388671875
59876484716,-0.50048828125,-0.5693359375,0.34228515625
59876505362,-0.54150390625,-0.5703125,0.33056640625
59876521559,-0.53125,-0.55029296875,0.349609375
59876543696,-0.54296875,-0.53564453125,0.35302734375
59876565476,-0.6083984375,-0.5244140625,0.3388671875
59876581115,-0.6318359375,-0.53271484375,0.34228515625
59876603621,-0.58251953125,-0.52197265625,0.34619140625
59876625416,-0.61181640625,-0.556640625,0.3701171875
59876641119,-0.67236328125,-0.5283203125,0.37744140625
59876663625,-0.68310546875,-0.50830078125,0.38916015625
59876692875,-0.72998046875,-0.52294921875,0.40283203125
59876701072,-0.73779296875,-0.5048828125,0.40771484375
59876723561,-0.73046875,-0.52880859375,0.43408203125
59876746693,-0.7626953125,-0.53515625,0.42431640625
59876761041,-0.76611328125,-0.53759765625,0.431640625
59876783614,-0.77490234375,-0.5791015625,0.43603515625
59876806707,-0.72216796875,-0.62744140625,0.43701171875
59876821044,-0.73876953125,-0.642578125,0.4267578125
59876843641,-0.76220703125,-0.634765625,0.42724609375
59876866743,-0.744140625,-0.61376953125,0.4306640625
59876881021,-0.72607421875,-0.61865234375,0.4208984375
59876903516,-0.7265625,-0.623046875,0.4091796875
59876926752,-0.72216796875,-0.60693359375,0.40966796875
59876941087,-0.71435546875,-0.59765625,0.40673828125
59876963588,-0.7041015625,-0.591796875,0.392578125
59876986740,-0.685546875,-0.5947265625,0.39404296875
59877001083,-0.7041015625,-0.5849609375,0.39501953125
59877023565,-0.69189453125,-0.59228515625,0.38037109375
59877046791,-0.69091796875,-0.595703125,0.38427734375
59877061081,-0.68701171875,-0.58349609375,0.38330078125
59877083602,-0.6796875,-0.59423828125,0.380859375
59877106743,-0.67138671875,-0.60888671875,0.373046875
59877121065,-0.66015625,-0.59130859375,0.376953125
59877143629,-0.66357421875,-0.5869140625,0.37060546875
59877166737,-0.6484375,-0.57568359375,0.37548828125
59877181074,-0.6455078125,-0.572265625,0.37939453125
59877203584,-0.611328125,-0.57666015625,0.38037109375
59877226912,-0.580078125,-0.591796875,0.37451171875
59877247767,-0.57275390625,-0.5810546875,0.36328125
59877263512,-0.56787109375,-0.58154296875,0.35595703125
59877286698,-0.59765625,-0.5869140625,0.36083984375
59877307891,-0.55908203125,-0.6025390625,0.3662109375
59877323589,-0.52734375,-0.6201171875,0.35888671875
59877346738,-0.5263671875,-0.6513671875,0.3505859375
59877359759,-0.5322265625,-0.68359375,0.353515625
59877382807,-0.5341796875,-0.7080078125,0.359375
59877397213,-0.509765625,-0.7392578125,0.3701171875
59877419688,-0.4814453125,-0.76708984375,0.38623046875
59877442787,-0.48095703125,-0.79541015625,0.39892578125
59877457289,-0.453125,-0.80712890625,0.40673828125
59877479738,-0.42724609375,-0.80419921875,0.42626953125
59877502953,-0.39794921875,-0.83544921875,0.4296875
59877517224,-0.3369140625,-0.86083984375,0.4287109375
59877539789,-0.32275390625,-0.875,0.43310546875
59877562895,-0.31884765625,-0.86328125,0.44970703125
59877577100,-0.29296875,-0.8994140625,0.44140625
59877599669,-0.236328125,-0.90771484375,0.4443359375
59877622891,-0.1767578125,-0.93701171875,0.443359375
59877637089,-0.1396484375,-0.92529296875,0.43798828125
59877668609,-0.12890625,-0.92431640625,0.46044921875
59877682870,-0.1123046875,-0.9599609375,0.44775390625
59877697110,-0.0380859375,-0.94287109375,0.45849609375
59877719661,0.01171875,-0.94287109375,0.4443359375
59877742826,0.02978515625,-0.90869140625,0.43701171875
59877757050,0.05517578125,-0.92578125,0.44189453125
59877779754,0.12451171875,-0.95263671875,0.4462890625
59877802839,0.19921875,-0.95263671875,0.4306640625
59877817229,0.2412109375,-0.93408203125,0.4208984375
59877839770,0.251953125,-0.9111328125,0.40478515625
59877871544,0.2939453125,-0.9248046875,0.3994140625
59877878519,0.35400390625,-0.9453125,0.39208984375
59877899702,0.39013671875,-0.9423828125,0.39013671875
59877922756,0.37890625,-0.87109375,0.3779296875
59877937270,0.35302734375,-0.79150390625,0.3642578125
59877959633,0.37548828125,-0.8154296875,0.36181640625
59877982739,0.42333984375,-0.88525390625,0.365234375
59877997091,0.42333984375,-0.91015625,0.3642578125
59878019701,0.37646484375,-0.85791015625,0.34375
59878042792,0.3623046875,-0.82373046875,0.33740234375
59878057242,0.3916015625,-0.80615234375,0.32958984375
59878095918,0.451171875,-0.81787109375,0.37841796875
59878102839,0.50341796875,-0.9755859375,0.39208984375
59878117288,0.521484375,-0.984375,0.4365234375
59878148404,0.43701171875,-0.86474609375,0.42333984375
59878162894,0.35498046875,-0.75048828125,0.36474609375
59878177077,0.373046875,-0.74755859375,0.34033203125
59878209859,0.431640625,-0.7783203125,0.3232421875
59878214714,0.48095703125,-0.81005859375,0.32861328125
59878237217,0.4970703125,-0.84423828125,0.34326171875
59878259622,0.4853515625,-0.8603515625,0.3515625
59878274566,0.451171875,-0.82568359375,0.3544921875
59878298522,0.42529296875,-0.80126953125,0.35107421875
59878328413,0.41259765625,-0.80419921875,0.35546875
59878334685,0.421875,-0.81396484375,0.3623046875
59878357160,0.42919921875,-0.8291015625,0.36279296875
59878379592,0.44287109375,-0.8291015625,0.36572265625
59878394633,0.44921875,-0.8271484375,0.37646484375
59878417140,0.44970703125,-0.8212890625,0.38427734375
59878439682,0.4482421875,-0.814453125,0.37451171875
59878455988,0.45166015625,-0.8115234375,0.37744140625
59878478570,0.45849609375,-0.81298828125,0.36328125
59878499669,0.46337890625,-0.80859375,0.3662109375
59878515991,0.4599609375,-0.8095703125,0.3681640625
59878537237,0.45947265625,-0.8056640625,0.36474609375
59878559555,0.44677734375,-0.810546875,0.359375
59878576067,0.43994140625,-0.814453125,0.36669921875
59878597118,0.43603515625,-0.81591796875,0.3603515625
59878621105,0.4287109375,-0.81494140625,0.36669921875
59878636013,0.42626953125,-0.81494140625,0.37060546875
59878657120,0.42919921875,-0.82275390625,0.36962890625
59878679695,0.4296875,-0.814453125,0.3701171875
59878703524,0.4306640625,-0.818359375,0.37158203125
59878717211,0.4365234375,-0.81396484375,0.3798828125
59878739552,0.43701171875,-0.82275390625,0.388671875
59878756034,0.4365234375,-0.818359375,0.390625
59878777290,0.43505859375,-0.814453125,0.39453125
59878799702,0.43701171875,-0.80517578125,0.39306640625
59878816027,0.4404296875,-0.7939453125,0.39013671875
59878837207,0.43994140625,-0.80224609375,0.38232421875
59878859626,0.44970703125,-0.806640625,0.38330078125
59878876039,0.451171875,-0.810546875,0.375
59878897154,0.44482421875,-0.80615234375,0.37451171875
59878919706,0.43994140625,-0.80419921875,0.37109375
