60229584817,0.167175292969,0.488647460938,-0.57666015625,-0.633056640625
60229606221,0.167297363281,0.488647460938,-0.576721191406,-0.632995605469
60229621006,0.164428710938,0.491455078125,-0.57470703125,-0.633361816406
60229644919,0.169738769531,0.489379882812,-0.577331542969,-0.631225585938
60229666097,0.170532226562,0.488891601562,-0.577819824219,-0.630920410156
60229681112,0.178283691406,0.489685058594,-0.579650878906,-0.62646484375
60229704881,0.180297851562,0.490600585938,-0.579711914062,-0.625122070312
60229726311,0.180603027344,0.491394042969,-0.579345703125,-0.624694824219
60229771163,0.173889160156,0.491638183594,-0.577209472656,-0.62841796875
60229781788,0.164916992188,0.488464355469,-0.576171875,-0.634216308594
60229787547,0.163940429688,0.487548828125,-0.576416015625,-0.635009765625
60229802499,0.167419433594,0.486145019531,-0.578247070312,-0.633483886719
60229827566,0.167358398438,0.486022949219,-0.578308105469,-0.633544921875
60229856815,0.166931152344,0.486572265625,-0.578308105469,-0.633239746094
60229883396,0.166931152344,0.486572265625,-0.578308105469,-0.633239746094
60229893499,0.166870117188,0.486572265625,-0.578308105469,-0.633239746094
60229906650,0.166870117188,0.486572265625,-0.578308105469,-0.633239746094
60229921685,0.167724609375,0.484191894531,-0.578857421875,-0.634338378906
60229944171,0.176635742188,0.483581542969,-0.581726074219,-0.629760742188
60229967939,0.178527832031,0.483642578125,-0.582214355469,-0.628723144531
60229982373,0.180786132812,0.484313964844,-0.582458496094,-0.627319335938
60230011538,0.185546875,0.488464355469,-0.581420898438,-0.623596191406
60230027985,0.182495117188,0.491027832031,-0.578979492188,-0.624816894531
60230049153,0.175415039062,0.491333007812,-0.576232910156,-0.629089355469
60230065560,0.173706054688,0.490905761719,-0.574584960938,-0.631469726562
60230088019,0.183288574219,0.49267578125,-0.573791503906,-0.628112792969
60230109240,0.200866699219,0.497985839844,-0.571960449219,-0.6201171875
60230125465,0.208312988281,0.50146484375,-0.568359375,-0.6181640625
60230147955,0.220397949219,0.501281738281,-0.568664550781,-0.613830566406
60230169205,0.232421875,0.497680664062,-0.570068359375,-0.611022949219
60230185489,0.245910644531,0.491027832031,-0.573364257812,-0.608032226562
60230207958,0.2626953125,0.482849121094,-0.577819824219,-0.603393554688
60230229064,0.282165527344,0.473327636719,-0.582824707031,-0.597229003906
60230245513,0.303405761719,0.461486816406,-0.588500976562,-0.590454101562
60230267963,0.325622558594,0.447692871094,-0.594177246094,-0.583557128906
60230289114,0.348205566406,0.432495117188,-0.599792480469,-0.576232910156
60230305454,0.37060546875,0.416076660156,-0.605834960938,-0.567932128906
60230327989,0.392944335938,0.399047851562,-0.612121582031,-0.558227539062
60230349286,0.415283203125,0.381530761719,-0.618041992188,-0.547790527344
60230365467,0.4375,0.363708496094,-0.623413085938,-0.536315917969
60230387944,0.459533691406,0.344787597656,-0.628662109375,-0.524169921875
60230409278,0.480834960938,0.325073242188,-0.633178710938,-0.512084960938
60230425491,0.501098632812,0.3056640625,-0.636962890625,-0.499816894531
60230447966,0.520751953125,0.286743164062,-0.639953613281,-0.486877441406
60230468959,0.53955078125,0.268127441406,-0.642333984375,-0.473754882812
60230484819,0.556701660156,0.249328613281,-0.644104003906,-0.461547851562
60230507961,0.572143554688,0.231140136719,-0.645568847656,-0.450012207031
60230529118,0.586059570312,0.213928222656,-0.646667480469,-0.438842773438
60230545459,0.5986328125,0.1982421875,-0.647216796875,-0.428344726562
60230567937,0.610412597656,0.185180664062,-0.646606445312,-0.41845703125
60230589041,0.620971679688,0.174011230469,-0.645446777344,-0.409362792969
60230605461,0.630065917969,0.164611816406,-0.644165039062,-0.401245117188
60230627965,0.637817382812,0.157043457031,-0.642822265625,-0.394165039062
60230648960,0.64453125,0.152038574219,-0.641479492188,-0.387268066406
60230664814,0.650024414062,0.148803710938,-0.640625,-0.380737304688
60230687988,0.65478515625,0.146850585938,-0.639709472656,-0.374755859375
60230709060,0.659362792969,0.146667480469,-0.638366699219,-0.369079589844
60230724809,0.663879394531,0.14794921875,-0.636169433594,-0.364196777344
60230747967,0.667602539062,0.150024414062,-0.633605957031,-0.361083984375
60230770482,0.670349121094,0.152099609375,-0.630981445312,-0.359680175781
60230784859,0.672485351562,0.15478515625,-0.627868652344,-0.359985351562
60230807988,0.674072265625,0.158813476562,-0.624267578125,-0.361511230469
60230830439,0.675170898438,0.16357421875,-0.620361328125,-0.364135742188
60230845244,0.675720214844,0.16845703125,-0.616333007812,-0.36767578125
60230874105,0.67578125,0.172485351562,-0.612548828125,-0.372009277344
60230890465,0.675537109375,0.176391601562,-0.609130859375,-0.376159667969
60230912962,0.675048828125,0.180541992188,-0.606140136719,-0.3798828125
60230934156,0.674682617188,0.184020996094,-0.603881835938,-0.382507324219
60230950460,0.674499511719,0.186157226562,-0.602172851562,-0.384460449219
60230972901,0.674377441406,0.187072753906,-0.600830078125,-0.386291503906
60230994084,0.674011230469,0.187255859375,-0.600158691406,-0.387939453125
60231010486,0.673706054688,0.187133789062,-0.599853515625,-0.388977050781
60231032964,0.673645019531,0.186889648438,-0.599731445312,-0.389282226562
60231054059,0.673767089844,0.186401367188,-0.599670410156,-0.389526367188
60231070443,0.673828125,0.185607910156,-0.599548339844,-0.389953613281
60231092954,0.673645019531,0.184265136719,-0.599487304688,-0.390991210938
60231114151,0.673400878906,0.182861328125,-0.599426269531,-0.39208984375
60231130439,0.673400878906,0.182434082031,-0.599182128906,-0.392761230469
60231152979,0.673645019531,0.182189941406,-0.598876953125,-0.392944335938
60231174115,0.673950195312,0.181457519531,-0.5986328125,-0.39306640625
60231190488,0.674072265625,0.180480957031,-0.598510742188,-0.3935546875
60231212949,0.674133300781,0.179443359375,-0.598327636719,-0.394165039062
60231234141,0.674255371094,0.178649902344,-0.59814453125,-0.39453125
60231249833,0.674682617188,0.178405761719,-0.597961425781,-0.394287109375
60231272974,0.674987792969,0.178283691406,-0.597839355469,-0.393981933594
60231295444,0.675170898438,0.177917480469,-0.597717285156,-0.39404296875
60231310409,0.675170898438,0.17724609375,-0.597595214844,-0.394470214844
60231332960,0.675048828125,0.176818847656,-0.597595214844,-0.394897460938
60231355444,0.674926757812,0.176513671875,-0.597717285156,-0.394958496094
60231370522,0.674926757812,0.176513671875,-0.597778320312,-0.394958496094
60231399016,0.675109863281,0.176330566406,-0.597717285156,-0.394836425781
60231415446,0.675170898438,0.176086425781,-0.59765625,-0.394897460938
60231429806,0.675231933594,0.175537109375,-0.59765625,-0.395141601562
60231452910,0.675354003906,0.174865722656,-0.597595214844,-0.395202636719
60231475397,0.675537109375,0.174377441406,-0.597595214844,-0.395141601562
60231489744,0.675659179688,0.173950195312,-0.597595214844,-0.395080566406
60231512941,0.675598144531,0.173950195312,-0.59765625,-0.395080566406
60231535479,0.67529296875,0.173828125,-0.597900390625,-0.395263671875
60231549791,0.6748046875,0.173889160156,-0.598205566406,-0.395629882812
60231572915,0.674194335938,0.174072265625,-0.598571777344,-0.396057128906
60231595445,0.673645019531,0.174072265625,-0.598937988281,-0.396484375
60231609781,0.673095703125,0.173950195312,-0.599304199219,-0.39697265625
60231632960,0.672302246094,0.173461914062,-0.599731445312,-0.397766113281
60231655409,0.671569824219,0.172607421875,-0.600219726562,-0.398742675781
60231669881,0.670715332031,0.171691894531,-0.600830078125,-0.399536132812
60231692959,0.670043945312,0.171081542969,-0.601440429688,-0.400085449219
60231715435,0.66943359375,0.170837402344,-0.601928710938,-0.400451660156
60231729787,0.668884277344,0.170471191406,-0.602416992188,-0.400817871094
60231752976,0.668395996094,0.169677734375,-0.602783203125,-0.401428222656
60231775439,0.667785644531,0.168212890625,-0.603210449219,-0.402465820312
60231796442,0.6669921875,0.166198730469,-0.603698730469,-0.40380859375
60231812963,0.665893554688,0.163879394531,-0.604309082031,-0.405639648438
60231835458,0.66455078125,0.161804199219,-0.605102539062,-0.407470703125
60231856512,0.663330078125,0.160278320312,-0.605895996094,-0.408874511719
60231872950,0.662292480469,0.159362792969,-0.606689453125,-0.409851074219
60231895467,0.661193847656,0.15869140625,-0.607482910156,-0.41064453125
60231900924,0.659912109375,0.1572265625,-0.6083984375,-0.411987304688
60231923443,0.658020019531,0.154174804688,-0.609619140625,-0.414306640625
60231938474,0.655029296875,0.149963378906,-0.611389160156,-0.41796875
60231961016,0.650756835938,0.145324707031,-0.613830566406,-0.422668457031
60231983379,0.645812988281,0.141967773438,-0.616516113281,-0.427429199219
60231998465,0.639770507812,0.139770507812,-0.619934082031,-0.432250976562
60232020998,0.632446289062,0.13916015625,-0.624267578125,-0.436950683594
60232043428,0.623413085938,0.140808105469,-0.629638671875,-0.441772460938
60232058461,0.612915039062,0.145385742188,-0.635437011719,-0.446533203125
60232080948,0.601013183594,0.152648925781,-0.641662597656,-0.451477050781
60232103458,0.587036132812,0.162292480469,-0.648315429688,-0.456848144531
60232118499,0.570434570312,0.174499511719,-0.655700683594,-0.462890625
60232140931,0.552001953125,0.189819335938,-0.662780761719,-0.468994140625
60232163587,0.530944824219,0.207763671875,-0.669494628906,-0.476196289062
60232178486,0.50732421875,0.228759765625,-0.675354003906,-0.483947753906
60232200916,0.480590820312,0.250427246094,-0.680725097656,-0.492858886719
60232223584,0.450622558594,0.270812988281,-0.685852050781,-0.503234863281
60232238469,0.418884277344,0.28955078125,-0.690612792969,-0.513610839844
60232260978,0.385986328125,0.306945800781,-0.694030761719,-0.524536132812
60232283492,0.353637695312,0.322326660156,-0.695495605469,-0.536071777344
60232298578,0.323791503906,0.336486816406,-0.694519042969,-0.54736328125
60232320950,0.298583984375,0.352294921875,-0.690490722656,-0.556762695312
60232343353,0.277648925781,0.370971679688,-0.683288574219,-0.564270019531
60232358480,0.25927734375,0.390869140625,-0.674133300781,-0.570617675781
60232380867,0.242309570312,0.408569335938,-0.665100097656,-0.576293945312
60232403415,0.226684570312,0.422424316406,-0.657592773438,-0.581176757812
60232418462,0.213684082031,0.434631347656,-0.650024414062,-0.585632324219
60232440896,0.203857421875,0.446716308594,-0.641357421875,-0.589538574219
60232463633,0.196411132812,0.458068847656,-0.632751464844,-0.592712402344
60232478255,0.190185546875,0.467651367188,-0.625427246094,-0.595031738281
60232500847,0.184692382812,0.475158691406,-0.619445800781,-0.597045898438
60232518780,0.179138183594,0.48046875,-0.614624023438,-0.599487304688
60232538567,0.172607421875,0.483947753906,-0.610534667969,-0.602722167969
60232560948,0.165710449219,0.487670898438,-0.606384277344,-0.605834960938
60232578721,0.158325195312,0.491333007812,-0.602111816406,-0.609130859375
60232598436,0.153198242188,0.494567871094,-0.597534179688,-0.6123046875
60232621006,0.152526855469,0.495971679688,-0.594299316406,-0.614501953125
60232638796,0.153137207031,0.494384765625,-0.593688964844,-0.6162109375
60232658602,0.153259277344,0.492065429688,-0.594116210938,-0.617614746094
60232681036,0.152709960938,0.490661621094,-0.594177246094,-0.618774414062
60232698725,0.151733398438,0.490905761719,-0.593322753906,-0.61962890625
60232718508,0.150390625,0.492248535156,-0.591552734375,-0.62060546875
60232740793,0.148803710938,0.493225097656,-0.589904785156,-0.621765136719
60232758683,0.147521972656,0.492919921875,-0.589294433594,-0.622924804688
60232778400,0.146911621094,0.491882324219,-0.58935546875,-0.623840332031
60232800956,0.146789550781,0.491027832031,-0.589538574219,-0.624389648438
60232818723,0.146484375,0.490234375,-0.589721679688,-0.624877929688
