59538161293,-2,1,-1,-1,-1,-2,0,-1
59538161293,-2,2,-4,0,-2,-1,-1,-3
59538163429,8,0,-1,0,-2,-1,0,0
59538163429,-2,1,-3,-1,0,-1,1,-2
59538164164,-1,1,-6,-2,-1,0,3,2
59538164164,-4,2,-2,-3,-1,-1,-2,-2
59538165576,-2,3,-4,-2,1,-1,0,1
59538165576,-1,0,-3,-1,-1,-2,-3,-5
59538173367,2,0,-2,-1,-1,1,3,0
59538173367,-2,-2,-2,0,-3,-1,-1,-1
59538179813,-3,0,-2,-1,-1,-2,-4,-3
59538179813,-1,-1,-1,-2,0,0,4,3
59538191278,-8,-1,-1,0,-1,-3,-3,-5
59538191278,1,-1,0,-1,0,2,0,0
59538203562,-4,-3,-1,-1,-1,0,-2,-1
59538203562,-3,-1,-3,-1,-1,-3,-2,-1
59538217705,0,-2,0,0,-1,-2,-2,-3
59538217705,1,-4,-2,1,-1,-2,-1,0
59538225010,-2,-2,-2,-1,0,-2,-1,0
59538225010,2,-1,0,-1,1,-1,2,-2
59538235590,-1,-1,0,0,-2,0,2,0
59538235590,8,2,-2,-1,-1,-1,-1,5
59538272991,-3,-1,-1,-1,0,-1,-5,-4
59538272991,-3,-1,0,-1,-1,0,7,1
59538273811,-3,-1,-1,0,-3,0,-2,-2
59538273811,-3,-1,0,0,0,0,0,1
59538274600,-1,0,-1,-1,-1,-1,-1,-1
59538274600,0,0,-1,-2,-2,-2,-4,3
59538277131,-3,-2,0,1,-1,-3,-1,-8
59538277131,-1,0,0,-2,-1,0,-1,-2
59538285333,-1,-1,-4,1,1,0,-3,-2
59538285333,-1,0,-2,0,0,0,3,-1
59538292113,1,-3,0,-2,0,-2,0,1
59538292113,0,-5,0,-1,-2,-2,-3,-3
59538299641,0,0,1,-4,-2,-3,1,-3
59538299641,-1,-3,0,-1,-1,-1,-2,-1
59538314581,-1,-1,-1,-1,0,1,0,2
59538314581,-8,-3,-2,-1,-1,-1,3,-1
59538322145,2,-4,0,-2,-3,-1,-3,1
59538322145,9,-1,1,-1,-1,-1,-2,0
59538346051,-6,-2,2,-2,-4,-1,3,0
59538346051,1,-1,1,-2,-1,0,-9,-6
59538346665,-3,-2,1,0,0,0,3,-1
59538346665,-2,0,-1,-3,0,-2,-2,-3
59538360311,-2,-1,0,-3,0,0,-1,2
59538360311,9,2,-1,-1,-2,-1,-5,-2
59538360988,-13,-1,1,-1,0,-2,4,1
59538360988,-3,-1,0,0,-1,-1,-2,-1
59538382920,1,2,1,2,1,-2,-1,-2
59538382920,2,-1,-2,-1,-2,-1,1,3
59538383492,4,-2,0,-2,0,-1,-3,-3
59538383492,-1,-2,-2,0,-1,-1,-1,0
59538406068,0,-1,2,-3,-1,-1,-2,-1
59538406068,-2,-2,-1,-2,-1,-2,-1,-1
59538406632,3,-2,1,0,0,0,-1,0
59538406632,-3,-3,2,-1,-2,-2,1,-3
59538420322,-1,-5,1,0,-1,-2,-4,-3
59538420322,-1,-2,4,-1,-1,-2,-2,0
59538421124,-7,-2,-1,-1,-2,1,2,-1
59538421124,20,-2,3,-1,-2,2,4,3
59538442792,-5,-2,0,-2,0,-1,-2,0
59538442792,-2,-1,0,0,0,-2,8,2
59538443454,-3,-4,0,-2,-2,0,-4,-4
59538443454,-6,0,-2,-1,0,-1,-4,-1
59538466021,2,-2,-1,-3,-2,-1,-1,-3
59538466021,-1,-2,1,-3,-2,-1,-5,-5
59538466645,3,0,-1,-2,-4,-4,-3,-1
59538466645,-8,-3,0,-2,-3,-2,-1,-4
59538480301,1,-2,-3,-2,-3,-4,-2,-1
59538480301,-5,-2,0,-2,-2,0,-1,0
59538481035,1,-1,-2,-1,-1,-1,0,1
59538481035,-4,-1,1,1,-3,-2,-5,-5
59538502812,-1,1,-1,-1,0,-4,-2,-1
59538502812,-2,-2,0,-1,-1,-3,0,-1
59538503494,3,-1,-3,-2,-3,-2,-1,1
59538503494,-8,-1,-1,-2,-1,-2,-4,-4
59538525932,4,-1,-2,0,-3,0,3,0
59538525932,3,0,0,-1,-1,0,0,3
59538526635,-7,-3,-1,-1,1,1,7,4
59538526635,-8,-2,0,-1,0,0,-4,-4
59538540187,-6,-1,0,0,0,-2,-3,-4
59538540187,-2,-3,-3,-2,0,-2,-1,-2
59538540995,5,-2,0,0,-1,-3,-4,-1
59538540995,-1,-1,-1,0,-3,-1,-3,0
59538562813,-3,-3,-1,-1,-3,0,-1,0
59538562813,-1,0,1,-2,0,-1,-1,0
59538563456,1,-1,0,0,0,-1,-2,-3
59538563456,0,-1,-3,-1,0,0,4,3
59538585949,0,-2,-1,-2,-1,0,-5,-3
59538585949,-7,-3,-3,0,-3,-1,-2,-4
59538586685,4,-2,0,-2,-3,-3,-8,-3
59538586685,1,0,-1,-1,-1,-2,4,-2
59538599629,4,0,0,-1,-1,-3,-1,5
59538599629,0,3,0,-2,-1,1,-1,-5
59538607825,-7,1,-1,-1,-1,-1,2,-3
59538607825,2,-1,-1,-1,-1,-1,-1,-1
59538622794,1,-1,-3,1,-2,-2,-5,0
59538622794,0,-1,-2,1,-1,-1,-1,-1
59538623502,0,0,-2,1,-1,-1,3,0
59538623502,1,-1,0,-3,-1,-2,-8,-3
59538646020,-6,-1,1,-2,-1,0,2,-1
59538646020,1,-3,0,1,-2,-1,0,-5
59538646635,5,1,0,-1,-2,0,-2,3
59538646635,-3,-1,-1,2,0,-1,-5,-5
59538659610,-1,0,-3,-2,-1,-2,-6,-1
59538659610,-1,-2,0,-1,-1,-1,9,4
59538667798,-1,-3,-1,-2,-2,-2,-8,-7
59538667798,-4,-1,-3,-2,-2,-1,-5,-2
59538683655,1,-4,0,1,0,0,3,-1
59538683655,1,0,-2,-1,1,-1,-4,-2
59538684181,-3,-2,0,1,0,0,4,1
59538684181,-1,-2,1,-1,-2,-3,0,0
59538705985,2,0,-3,-1,-3,0,0,-1
59538705985,-5,-1,0,-2,-2,-2,-5,-8
59538706656,-1,-1,1,-1,0,-2,-2,2
59538706656,2,-1,-1,0,-1,-1,-1,-4
59538719644,-1,-2,0,0,0,1,3,3
59538719644,1,-2,1,-1,-1,1,-1,2
59538727808,0,3,-2,-2,0,-1,-4,-1
59538727808,-4,-1,-1,-1,-3,-1,1,0
59538743589,-2,-1,-1,0,-1,-2,-9,-4
59538743589,5,2,-1,0,-1,0,11,4
59538744135,-6,-2,0,-1,0,-1,-4,-5
59538744135,1,0,0,-1,0,0,4,2
59538765716,-11,-1,-1,-1,-2,-1,-2,-4
59538765716,10,-1,-1,-3,-2,-1,-4,3
59538766414,-1,-3,1,-1,-2,-1,-5,-2
59538766414,-1,-2,-1,0,0,0,2,1
59538779512,-2,-1,0,-3,0,-1,0,-2
59538779512,-5,-1,-3,-1,-1,-3,-4,-1
59538787854,2,-2,-1,-1,0,2,8,2
59538787854,-1,-2,0,-2,-1,-1,-5,0
59538803463,3,-2,-1,0,0,-1,1,-3
59538803463,-4,-2,0,-2,-2,-1,0,4
59538804174,3,0,0,0,-2,-1,-1,1
59538804174,-3,-2,1,-1,0,-3,-6,-5
59538826086,8,-2,0,-1,-2,-1,9,7
59538826086,1,-3,0,0,-1,-2,1,1
59538826641,-8,1,-4,-1,-1,0,0,-3
59538826641,3,-4,-3,0,0,0,-2,-1
59538839637,0,0,-1,0,0,-1,0,2
59538839637,3,-2,-2,-2,0,-2,-8,-7
59538847779,-4,-1,-1,-2,-1,-2,-2,-1
59538847779,-3,-1,-1,-1,-1,0,2,0
59538863535,-3,-2,-3,-1,-2,-2,1,-2
59538863535,-2,1,0,0,-1,-1,-2,-1
59538864193,-4,-2,1,0,-2,-1,1,-4
59538864193,2,-1,0,-2,0,-3,-3,-2
59538885984,1,0,-1,0,1,-1,-1,0
59538885984,-5,-2,-2,-3,1,-2,-4,-1
59538886662,3,-3,-3,1,1,-1,-1,1
59538886662,-2,1,-2,0,-1,0,0,0
59538899644,-2,-1,-1,-1,-1,0,2,-2
59538899644,-3,0,-1,0,-1,-1,-2,1
59538907687,0,1,0,0,-2,-4,-2,-1
59538907687,1,-1,0,-2,-1,0,4,1
59538923337,-4,1,-1,0,0,-1,-3,0
59538923337,2,1,2,1,0,0,-1,-7
59538924122,1,-1,-2,-1,-1,-1,-3,-2
59538924122,-3,1,-2,0,0,-3,-2,-1
59538945837,-4,0,-2,-2,-1,-2,0,-3
59538945837,3,-1,0,-1,-1,0,-3,3
59538946623,-4,0,1,-1,1,1,-1,2
59538946623,-7,-3,0,-1,-3,0,1,-3
59538959510,0,-2,-1,-2,0,0,-3,-2
59538959510,-1,-2,-3,0,-2,-2,-7,0
59538967649,-1,-2,-3,0,0,-3,8,2
59538967649,2,-1,-2,-1,-1,0,-2,1
59538983435,2,-1,0,-2,1,-1,0,-1
59538983435,-3,-2,-2,0,-1,-2,-3,-2
59538984099,2,-1,-2,1,-1,0,-1,-3
59538984099,-9,0,1,-1,-1,-2,-2,-4
59539006062,10,0,-1,1,-1,0,-4,2
59539006062,-3,0,-3,-2,-2,-1,1,-2
59539007499,-1,1,-3,-2,0,-1,-4,-2
59539007499,0,1,-2,-1,-1,0,2,5
59539019619,-4,1,-2,-1,-3,-3,2,-2
59539019619,-3,-3,0,-2,-1,0,-11,-5
59539028505,2,1,-1,-1,-3,2,1,3
59539028505,-1,-2,-1,-1,-2,0,-1,-3
59539042569,-3,1,-2,0,-2,-1,0,-1
59539042569,-2,-2,0,0,0,-3,1,0
59539050992,-1,-2,-1,-2,0,1,-4,0
59539050992,5,-2,-1,-2,-1,-3,-8,-1
59539065970,0,-2,0,-1,0,-1,3,1
59539065970,1,0,-2,0,-2,-1,2,2
59539067487,-3,1,-1,0,-2,-2,-1,1
59539067487,0,0,-2,1,0,0,-3,-3
59539088435,2,-1,-1,0,-2,-2,-10,-6
59539088435,-3,-1,-3,-1,-1,0,4,-1
59539090044,-3,-3,1,-1,1,1,-1,-4
59539090044,13,6,4,5,-5,-5,3,16
59539103432,-10,-8,-7,-4,3,2,-4,-14
59539103432,-3,0,-2,-10,-2,3,1,-1
59539105002,0,0,2,-7,-10,-9,-2,-5
59539105002,-1,0,-1,-1,-9,-9,-4,1
59539125962,-4,1,9,32,23,9,-1,-1
59539125962,4,2,12,-4,2,15,10,4
59539127457,-5,-18,-50,-27,-15,8,1,1
59539127457,-3,-4,2,-29,1,-14,-1,-4
59539148547,4,6,6,-3,-1,0,4,6
59539148547,-6,-5,-12,-6,-11,0,-8,-6
59539149997,-2,0,12,21,29,-5,-5,-5
59539149997,-3,-9,-9,4,-4,20,1,-3
59539162727,1,3,19,7,-15,-18,2,0
59539162727,3,2,-1,5,21,18,6,9
59539169681,6,19,-2,-24,-23,-29,-7,1
59539169681,-10,-24,-10,-9,-9,-24,-1,-6
59539186029,-4,-7,-3,0,-18,5,-12,-3
59539186029,-2,-2,6,11,35,-12,6,-3
59539187485,5,7,10,23,-3,23,7,9
59539187485,8,11,24,13,26,9,2,3
59539208609,-5,1,2,16,-14,2,3,-5
59539208609,-2,-18,-41,-61,-44,-23,-13,0
59539209986,-4,2,1,-7,28,26,2,-2
59539209986,-16,-3,-11,2,-12,-16,-2,-12
59539222833,6,2,-4,-35,-10,-6,-1,5
59539222833,-6,8,8,23,2,8,-2,-7
59539229611,2,-10,9,7,-4,-15,-4,-1
59539229611,2,8,10,24,12,23,7,3
59539244590,12,7,7,14,17,4,4,12
59539244590,-18,-10,9,-4,-9,-12,-2,-12
59539253493,-1,-5,-13,-8,-14,-4,-2,0
59539253493,-6,-7,-9,9,7,4,-3,-12
59539268492,18,-2,-14,-6,3,0,5,19
59539268492,-1,14,14,-10,-11,-3,-3,2
59539269976,-1,-5,6,-7,-5,-7,-3,-3
59539269976,-7,-3,-5,-4,-3,5,0,-4
59539290974,9,-3,-7,6,5,0,3,14
59539290974,-12,-5,1,23,5,7,1,-18
59539292450,0,6,11,2,-1,-11,-1,-2
59539292450,-11,-5,-6,7,1,4,3,-5
59539304618,-10,-11,1,-29,-12,1,-1,-16
59539304618,4,-15,-10,6,9,-1,-7,9
59539313559,5,-12,-3,-1,-4,0,-4,4
59539313559,12,-8,-2,-20,-10,-5,3,31
59539328489,-22,4,6,-21,-9,-8,-11,-33
59539328489,0,7,-5,13,8,8,5,-4
59539329978,-5,-9,-17,-13,-5,-3,-1,-8
59539329978,8,26,8,20,3,-1,-1,6
59539351009,-15,-2,-11,-1,7,2,5,-8
59539351009,-13,13,-1,-15,-7,-8,-1,6
59539352441,14,9,8,20,6,5,1,5
59539352441,7,5,22,-1,-5,-1,-4,-8
59539364607,20,4,-46,-40,-9,-8,-6,2
59539364607,-16,-4,2,3,-9,-7,-1,-1
59539373492,-16,0,-5,12,1,4,2,-2
59539373492,-6,-8,3,-14,-6,-8,-8,-8
59539388499,-3,-5,8,23,7,1,-1,0
59539388499,13,0,3,10,-1,-2,2,8
59539390004,19,6,0,-12,-1,-1,-2,16
59539390004,-20,-15,-5,16,3,-1,-4,-30
59539410895,-13,12,16,10,6,2,1,-2
59539410895,4,-26,-23,-12,-12,-9,-4,-3
59539412627,-7,-12,-13,-24,-9,-3,-2,2
59539412627,10,17,-2,-6,-8,-3,0,14
59539424504,-10,-11,-1,15,11,3,-2,-3
59539424504,1,3,23,10,10,9,2,-4
59539433462,-1,-2,11,1,-1,-3,3,-2
59539433462,3,3,-13,-19,0,2,0,-1
59539447758,14,2,-23,-31,-14,-12,-9,-6
59539447758,-4,4,11,20,1,1,-5,1
59539454572,-7,-1,5,-8,1,0,7,-11
59539454572,11,5,3,7,4,3,-4,10
59539470852,12,8,1,13,-1,-2,2,26
59539470852,-9,-1,0,-8,-3,-2,-9,-36
59539472467,7,2,-7,4,-2,2,2,9
59539472467,-16,-9,8,0,-2,-4,-1,-3
59539484485,1,-8,15,-18,2,4,3,-1
59539484485,4,0,-5,-3,-4,-5,-3,6
59539493509,-15,-3,3,3,-9,-6,-9,-8
59539493509,17,-11,-41,0,8,7,4,0
59539507708,-8,-12,-30,-23,-27,-9,-5,-5
59539507708,0,12,21,8,13,-2,4,7
59539514505,-3,-6,-16,18,10,5,-1,-15
59539514505,1,-2,6,-14,-5,-6,0,7
59539530969,-5,16,35,18,2,4,-1,-5
59539530969,8,-8,-16,-2,-2,-2,3,6
59539532606,12,9,23,-4,-2,2,-2,5
59539532606,-2,1,-6,8,4,0,0,10
59539544645,-7,-10,-12,-6,-1,3,1,-6
59539544645,4,0,4,-3,-4,-2,0,3
59539561023,-3,-7,-6,-4,-4,-7,-6,-7
59539561023,5,4,13,-3,-4,0,1,6
59539567800,6,5,-3,15,8,0,0,12
59539567800,0,-3,-6,-9,-2,-2,-1,0
59539574653,-5,-3,5,3,-2,-4,-1,-3
59539574653,-8,2,6,2,0,-3,-5,-11
59539590977,3,-1,13,6,-1,0,0,-1
59539590977,0,-6,-24,-2,-4,-1,-2,-9
59539592452,-12,4,1,-4,8,5,1,17
59539592452,-1,4,23,5,-7,2,2,-21
59539613383,-10,-4,-10,4,10,-3,-6,-6
59539613383,3,-5,-4,0,-3,1,3,7
59539614978,5,2,4,-1,1,-1,0,13
59539614978,-12,-6,-6,-2,-2,-1,-6,-32
59539627787,-1,5,5,-5,-3,-1,0,6
59539627787,-2,2,0,7,-3,-4,-6,-11
59539634558,-4,3,2,-12,-4,-1,0,-6
59539634558,-1,-19,-23,-13,2,1,2,12
59539650981,-5,-10,-3,-7,-5,-4,-6,-23
59539650981,0,4,15,-6,-1,1,4,10
59539652463,-3,-4,-2,8,-1,-1,-3,-11
59539652463,-6,0,-18,-12,-5,0,0,5
59539673492,14,-10,6,19,7,1,0,6
59539673492,17,10,7,-9,1,2,2,20
59539674985,-2,-5,-6,14,1,0,0,-12
59539674985,-17,-1,-18,-22,-7,-5,-7,-15
59539688513,-7,-7,-7,11,0,-6,0,-1
59539688513,-4,2,8,9,0,-1,-4,-4
59539689991,7,2,-5,5,-2,-1,0,-2
59539689991,4,-2,10,-11,4,1,2,7
59539710928,-4,-4,-18,-4,0,2,1,2
59539710928,1,-1,6,5,-9,-8,-4,-6
59539712456,-6,2,-7,-16,0,-3,-5,-1
59539712456,1,0,3,11,-2,1,-2,1
59539733546,-2,3,15,3,0,2,2,-2
59539733546,-9,-3,-9,-7,0,1,-1,2
59539734995,3,-5,-14,-5,-4,-2,1,-8
59539734995,7,0,-3,-5,-3,-4,-2,13
59539747809,13,11,7,2,0,0,2,0
59539747809,-5,-9,-13,-1,0,0,-3,-5
59539754693,2,1,13,9,3,1,5,19
59539754693,2,2,3,14,-1,-4,-4,-15
59539771054,-2,4,0,-13,-3,-1,-3,5
59539771054,9,6,-6,9,5,5,4,1
59539772449,-3,2,12,-18,-4,-3,1,1
59539772449,2,1,-10,-3,-2,0,3,4
59539793502,-7,-1,5,5,-2,-3,-2,-4
59539793502,14,-2,-5,-4,-1,-2,-3,2
59539794986,-12,-8,-5,2,9,4,-3,-10
59539794986,-8,-3,1,4,1,-2,2,-8
59539807787,-3,-6,-4,-2,-13,-11,-2,1
59539807787,-7,-9,-8,-21,-7,-3,0,-3
59539814643,4,1,16,14,4,4,1,2
59539814643,-1,2,-5,4,2,2,-3,2
59539830970,0,-2,-2,-7,2,-1,-3,-3
59539830970,3,-3,-6,5,-6,-5,0,10
59539832537,-2,-3,1,-4,-5,-3,-6,-11
59539832537,-7,1,13,9,5,4,0,2
59539853354,-5,-4,-6,-5,-5,0,1,-5
59539853354,3,0,9,4,-1,-1,2,0
59539854934,-2,2,-17,-9,-2,-1,0,-3
59539854934,1,-5,-6,2,-3,-7,-6,-5
59539867861,-10,3,0,3,1,3,-2,3
59539867861,-12,4,1,-7,0,1,-2,-6
59539874577,9,0,2,12,3,0,2,8
59539874577,-10,5,3,-12,-13,-5,-2,-11
59539891401,12,0,6,-6,4,0,3,13
59539891401,-9,-10,-19,-21,-4,-1,-1,-4
59539897082,-4,-2,1,-2,-4,-3,-1,-5
59539897082,0,-3,-4,4,0,0,-1,6
59539913595,4,1,7,5,0,0,-1,-2
59539913595,-11,3,12,3,2,5,-4,-12
59539914970,-6,-3,-11,-3,-8,-13,-1,-6
59539914970,8,2,5,-8,-1,3,1,5
59539927684,-12,-11,-14,-4,1,0,0,-7
59539927684,5,2,1,-1,-3,-6,-1,1
59539934437,0,3,15,4,6,7,1,5
59539934437,-8,0,-15,13,-1,-2,1,-12
59539950907,11,2,-4,-12,-2,-2,0,13
59539950907,4,1,-14,-6,-1,3,0,6
59539952453,-8,-8,4,2,-3,-6,-3,-9
59539952453,3,0,7,6,4,1,1,4
59539973421,1,-3,5,10,1,2,-1,6
59539973421,-4,2,7,-3,0,-2,1,-19
59539974972,8,2,-5,3,0,0,1,6
59539974972,4,4,11,-2,1,-1,1,4
59539995936,-14,-6,-20,-1,-5,-4,-3,-8
59539995936,4,-2,6,1,-1,0,1,0
59539997453,-9,1,8,6,1,2,-4,-11
59539997453,-2,-3,-8,-21,-7,-4,-3,-3
59540010807,-4,-3,-4,12,7,7,4,-2
59540010807,6,-3,5,4,-4,-4,-5,1
59540012448,3,6,5,-5,-6,-3,-1,-1
59540012448,-3,0,0,-2,0,0,-2,-4
59540033576,-1,3,-3,-5,-2,-2,-4,1
59540033576,-4,2,-2,5,2,0,-1,2
59540035034,-10,-5,-7,3,-5,-6,1,-8
59540035034,2,-4,14,-11,-3,-4,1,1
59540047821,3,-2,-4,-2,2,4,2,-7
59540047821,-2,-2,0,-2,2,3,4,2
59540054597,-2,-2,-16,-6,-2,0,-4,-2
59540054597,2,-5,-9,-4,-8,-6,-5,6
59540071022,-9,4,10,5,7,-1,0,-9
59540071022,-5,-1,-4,9,-1,-1,-5,-6
59540072512,17,2,8,-7,-3,-3,0,28
59540072512,-6,-8,-20,-7,0,1,-1,-8
59540093548,-5,1,5,-7,-5,-1,-2,-2
59540093548,9,-3,0,8,4,4,3,2
59540094974,-7,-7,-6,3,-4,-5,-4,-1
59540094974,-5,1,2,6,3,3,3,-2
59540107078,3,7,10,6,-4,0,-1,2
59540107078,7,2,4,-2,0,-3,2,12
59540116018,-8,-2,-14,-19,-5,0,-2,-13
59540116018,-8,-4,-2,6,1,-2,-1,8
59540130969,4,-4,-3,3,3,1,3,-3
59540130969,-7,2,8,0,0,-4,-5,-15
59540132480,15,8,6,4,0,3,-7,7
59540132480,-10,-10,-13,-12,0,1,9,-12
59540160931,-1,-2,7,-8,-7,-7,-2,-2
59540160931,-9,-7,-2,7,3,1,2,1
59540162449,8,-3,-7,-3,-4,-2,-6,-11
59540162449,6,2,-1,-2,5,1,-4,5
59540167146,0,-1,-2,1,-2,-2,-9,1
59540167146,-2,7,9,-7,-4,1,2,-8
59540176002,-5,-4,-13,1,1,1,3,9
59540176002,10,0,5,-3,-3,-4,-2,4
59540190932,-6,-4,-1,-7,-1,-3,1,-8
59540190932,-3,2,-2,6,0,-1,-2,2
59540192489,3,-4,-6,6,0,-1,1,0
59540192489,2,-5,3,-3,-6,-4,-1,-1
59540213433,1,-1,-5,-9,1,2,2,-4
59540213433,-7,-7,-3,5,-1,-2,-2,-4
59540214988,9,6,15,2,6,5,0,8
59540214988,-27,-4,-13,0,-5,-2,-3,-30
59540227097,3,1,-1,3,-11,-7,-4,2
59540227097,-1,1,-13,-12,1,-4,0,4
59540235985,-3,1,1,2,4,5,1,-8
59540235985,13,-4,8,10,6,-4,-2,12
59540250946,-7,5,-3,-5,-2,1,-5,-1
59540250946,16,-4,-13,0,-5,0,0,-4
59540252415,-14,-1,6,0,-2,-5,-1,-11
59540252415,14,8,0,-7,-5,-1,5,14
59540272526,-9,-7,-15,2,3,0,4,-6
59540272526,6,2,15,-5,1,0,-1,10
59540280983,-8,-8,-19,-8,-5,-4,-3,-7
59540280983,-11,1,4,16,2,3,-6,-6
59540287088,21,5,10,0,-1,-4,-1,15
59540287088,-5,1,-11,-6,-4,-2,-1,13
59540296014,3,3,4,2,0,1,-2,-16
59540296014,0,0,12,3,0,-1,-4,-10
59540310831,-15,-7,0,-17,-1,1,-1,-11
59540310831,-3,-13,-26,-5,-4,-4,-4,-3
59540312436,-2,-2,1,-4,-6,-5,4,5
59540312436,8,2,-5,-7,-1,1,-1,9
59540333505,-3,-1,2,5,-8,-6,-2,-8
59540333505,-3,5,3,3,9,6,2,1
59540334891,-3,2,6,-10,-5,-1,-1,2
59540334891,2,-8,-12,6,-3,-1,0,3
59540347153,2,0,4,2,0,0,-2,-6
59540347153,-2,-9,-11,-16,-14,-7,-4,-1
59540355995,-2,-8,-2,5,5,0,0,3
59540355995,3,6,1,2,3,2,1,1
59540371056,-3,0,4,9,3,2,3,4
59540371056,5,3,18,1,-3,-6,1,0
59540372474,-3,-4,-14,-9,-5,-2,-4,-1
59540372474,10,-6,-6,-10,-5,-5,-3,1
59540393503,-16,-1,-1,13,9,4,4,-3
59540393503,-10,5,3,-6,4,0,-1,2
59540394960,8,-5,8,13,-1,-3,-1,4
59540394960,1,4,-9,-23,-3,-2,-2,-7
59540407023,6,-1,3,7,1,-1,-2,1
59540407023,-3,-2,-2,3,-6,0,6,13
59540415937,-14,-2,2,-6,2,-2,-6,-19
59540415937,0,5,8,5,4,1,3,12
59540430845,0,-5,-6,-2,-2,-2,-6,-2
59540430845,-2,-2,-2,-10,-6,-4,-4,-9
59540432442,0,-3,-10,-12,-5,-3,1,3
59540432442,-5,6,9,9,2,1,0,-6
59540453336,2,3,-2,-1,2,0,4,9
59540453336,-2,-4,3,4,3,6,5,10
59540455041,-11,-2,-1,-1,-6,-5,-1,-18
59540455041,-1,-2,-14,-3,-5,-2,-1,-1
59540467111,-3,-1,17,4,-1,-1,0,-2
59540467111,-4,1,-11,1,0,-1,-3,-2
59540476006,-4,-1,4,-4,2,3,-4,-2
59540476006,2,3,5,13,0,-1,-1,1
59540490971,8,3,-2,-29,-7,-5,2,12
59540490971,8,-7,-14,4,2,0,-6,-22
59540492445,-9,3,11,12,2,5,5,11
59540492445,1,-8,4,-1,-4,-3,0,6
59540513361,-24,-6,-12,-3,-2,-3,-6,-24
59540513361,12,6,15,7,3,-1,-2,7
59540514982,0,-2,-8,2,-4,-4,-2,1
59540514982,-3,0,-3,-7,0,2,-1,3
59540535896,13,-3,-11,-6,-3,-1,-2,21
59540535896,-23,-11,-4,-5,-4,-5,-3,-34
59540537428,15,0,7,9,3,0,0,0
59540537428,-6,2,7,-2,-3,-1,7,11
59540550915,7,-2,-2,2,-1,1,-10,-13
59540550915,-2,3,0,3,5,5,2,-1
59540552428,8,0,7,-2,0,-1,-1,6
59540552428,1,-5,-24,-6,-1,-4,-2,-2
59540573558,-4,5,2,4,1,0,1,-5
59540573558,-6,-7,-14,-5,-4,-5,0,1
59540574971,3,-4,-11,-16,-7,-3,2,6
59540574971,1,2,7,2,-1,0,-1,0
59540595912,-1,-3,5,7,-5,-4,-1,-4
59540595912,3,-4,3,7,1,0,-2,3
59540597415,-3,1,3,7,5,2,-4,3
59540597415,1,2,9,-2,-2,-3,-5,-12
59540610929,4,-1,-8,2,-2,-2,-1,1
59540610929,-2,8,6,-22,-6,-4,-3,-4
59540612511,-4,-3,-5,4,4,4,4,0
59540612511,-1,6,13,0,-2,-1,-2,-4
59540633640,4,-2,-22,-2,-4,-2,3,-7
59540633640,-6,-3,5,-3,-2,-3,-2,18
59540634978,13,2,-4,-2,-2,0,-3,-3
59540634978,0,-3,-5,-1,2,0,1,-1
59540655988,-6,1,2,-10,-1,-1,1,-1
59540655988,-7,4,5,8,3,1,0,-3
59540657450,4,-6,-8,-12,-5,-8,-3,4
59540657450,-2,0,8,11,0,2,-4,-2
59540670902,-5,-3,-3,-2,2,1,0,-3
59540670902,9,-1,-2,0,-5,-7,-3,4
59540672517,-10,-1,5,-2,-5,-1,-1,-6
59540672517,3,0,-10,2,8,2,-1,-2
59540693479,-1,-5,-1,-8,-9,-8,-4,2
59540693479,0,-2,6,3,-5,-1,-2,-6
59540694958,-4,-5,2,-4,0,-2,1,2
59540694958,6,7,8,4,3,5,4,21
59540715988,-17,-11,-10,-2,-2,-2,-3,-35
59540715988,-5,0,4,6,-1,-2,-1,-6
59540717500,17,6,-14,-8,-2,-4,-5,3
59540717500,-9,-2,7,-10,-3,0,0,-9
59540730218,-3,1,-1,5,1,2,2,9
59540730218,-6,0,4,-3,-3,-2,-3,-6
59540736978,-5,0,-6,12,5,3,4,-1
59540736978,0,1,2,-5,-1,-1,-3,-3
59540753331,12,1,-4,-7,2,-1,-2,12
59540753331,1,-5,-1,-6,-9,-8,1,-7
59540754928,-9,3,3,1,2,2,0,2
59540754928,-3,1,6,13,0,-1,0,-3
59540776002,-5,-2,0,-8,-1,-1,-1,-2
59540776002,8,0,-18,-5,-6,-3,-2,10
59540777443,-6,0,6,1,1,-2,-5,-4
59540777443,-3,-7,-1,13,3,2,0,-1
59540790313,6,-1,3,-17,-5,-1,2,15
59540790313,-14,-4,0,4,3,0,-4,-33
59540797145,-2,1,5,1,-4,0,2,1
59540797145,-5,-2,-3,-4,-6,-6,-6,-11
59540813574,9,6,5,19,5,0,-4,9
59540813574,-7,2,-5,-9,-3,0,1,12
59540814973,-4,3,-9,3,3,3,2,-2
59540814973,-11,-9,-13,-12,-4,-4,-4,-8
59540836037,-9,-4,2,3,-5,-3,-2,-11
59540836037,12,6,9,7,6,4,1,15
59540837438,-3,0,-5,1,-3,2,-1,-9
59540837438,-2,-6,-8,-9,-8,-7,-3,1
59540850262,4,-4,-13,-9,-2,-6,-2,-6
59540850262,-8,-4,10,9,4,2,1,2
59540857116,-3,5,22,5,3,5,2,-1
59540857116,-2,-3,-17,4,-3,-1,1,0
59540873444,-2,-2,-7,-10,-2,-5,-4,-1
59540873444,10,1,5,-5,-1,-1,-1,1
59540874920,1,-6,-5,-1,-2,-5,-2,6
59540874920,1,1,3,-1,2,2,1,1
59540895884,-11,-1,5,8,-1,1,0,-21
59540895884,-5,0,-3,0,2,2,1,-2
59540897440,-2,-2,-2,-5,-7,-4,-2,6
59540897440,4,-1,0,-1,1,-4,-2,1
59540910139,2,-1,-3,6,3,3,1,3
59540910139,-1,-3,-6,-9,0,4,4,-1
59540916915,-3,-2,-1,2,3,-3,-1,-4
59540916915,0,5,6,2,-1,-3,-3,0
59540933456,1,2,8,-1,0,-1,0,2
59540933456,5,6,-6,5,-4,-3,-1,5
59540934913,0,-1,-7,-4,1,2,1,6
59540934913,1,-1,4,0,0,0,-1,-5
59540955994,0,0,6,-2,-2,-1,-1,1
59540955994,5,0,2,2,2,1,2,5
59540957455,-3,0,5,10,1,-2,-3,-19
59540957455,1,-3,-8,-13,-3,-1,0,-1
59540970210,-3,-3,-12,3,-2,1,1,5
59540970210,-3,3,6,-1,-1,-4,-6,-4
59540977098,4,-5,-8,-2,-2,-3,-4,21
59540977098,-6,-2,-4,-12,-4,-2,-3,-26
59540994057,-3,-2,8,1,-3,-1,1,2
59540994057,2,-5,-8,-8,1,2,0,5
59540995404,-1,-1,2,1,0,-1,1,4
59540995404,4,1,3,-3,-2,-3,-1,5
59541015971,1,3,8,5,0,-2,-1,-2
59541015971,-6,-8,-4,15,-4,-7,0,-8
59541017474,1,0,-3,-8,3,4,1,-6
59541017474,-3,-5,-6,-4,-3,-1,-3,3
59541029601,-3,-1,3,-3,-2,0,-2,-3
59541029601,5,-1,-4,-1,-2,0,-4,-1
59541038487,-2,3,3,0,-2,-4,1,4
59541038487,-10,-4,-6,1,-3,1,-2,-11
59541053510,8,0,16,6,4,2,4,12
59541053510,-1,-10,-24,-10,-2,1,0,-5
59541054945,-4,-5,-6,-5,-8,-5,1,-10
59541054945,8,2,3,-9,-1,-3,-1,11
59541075894,-2,1,-3,3,5,4,2,0
59541075894,-6,-1,10,4,-1,-5,-1,-4
59541077426,-10,-2,-8,-12,-1,-1,-2,-11
59541077426,-7,-14,-12,5,-5,-3,-1,10
59541089479,5,6,-3,1,-4,-3,-3,-11
59541089479,-6,6,-3,1,3,1,1,-2
59541098500,5,-1,-12,3,-7,1,-3,6
59541098500,0,-4,-27,-8,1,-1,3,-2
59541113419,3,-2,-9,-2,3,0,0,2
59541113419,1,-4,-11,-4,-5,-5,-2,5
59541115061,1,2,2,-5,-1,-2,-4,-8
59541115061,0,4,17,10,8,4,3,0
59541136012,2,0,6,1,-1,0,-2,1
59541136012,1,5,16,8,4,1,0,-3
59541137441,1,-1,-3,-14,-8,-5,-2,-4
59541137441,-2,-3,-6,-4,1,-1,-1,-1
59541149598,-4,-2,0,-2,-1,-4,-2,0
59541149598,0,-1,6,-4,-7,-9,-5,-5
59541158437,-4,-5,-1,10,6,1,0,-4
59541158437,5,5,10,5,-3,-1,1,8
59541173484,-3,1,-3,-8,0,3,4,-1
59541173484,2,-7,-8,-11,0,3,4,10
59541174926,-7,1,7,4,1,0,-3,-29
59541174926,-2,1,4,-6,-6,-6,-5,0
59541196021,-7,-1,1,7,-4,-4,-3,1
59541196021,1,0,4,1,3,4,-1,-2
59541197455,5,1,-1,-6,-6,-2,0,8
59541197455,-9,3,11,7,2,0,-1,-6
59541209580,-4,-10,-14,-7,-3,0,-1,-8
59541209580,8,3,6,7,6,4,4,8
59541218440,-2,-2,1,8,-4,-7,-4,2
59541218440,1,2,-10,-22,-5,0,3,-4
59541233507,3,-8,2,-1,0,0,2,8
59541233507,-7,-3,-8,-6,-5,-4,-5,-11
59541234920,-2,-1,6,7,-1,-3,0,7
59541234920,5,0,-4,2,-3,-2,0,0
59541255942,6,5,4,4,2,-1,-1,-1
59541255942,-1,-9,-2,-5,-1,2,-1,-2
59541257444,-6,-7,4,-4,-3,-5,-2,-3
59541257444,6,-1,4,5,-1,-1,-2,9
59541270036,-6,0,-7,-20,-2,1,-2,-8
59541270036,-3,-3,1,1,-3,-4,-3,-4
59541278487,3,-1,-15,-8,-1,0,1,17
59541278487,-4,6,21,16,5,2,3,-31
59541293465,5,6,-2,0,-6,-4,-3,8
59541293465,-13,1,-3,-8,-3,-2,-6,-14
59541294920,5,2,-2,1,4,1,1,6
59541294920,0,-2,-8,2,5,3,-2,5
59541316096,-1,6,2,7,0,-1,0,2
59541316096,-1,-1,-5,-5,-7,-5,0,-2
59541317454,-10,-5,-4,-21,-5,-1,-2,-11
59541317454,8,0,11,13,3,1,2,8
59541329598,-4,-7,-7,-8,-1,1,0,-3
59541329598,2,3,5,-1,-3,1,-2,4
59541338509,2,-9,-4,10,-2,-2,0,9
59541338509,-9,-4,-8,-3,-5,-1,-4,-10
59541353490,-1,2,-2,-3,3,2,0,-5
59541353490,8,3,0,5,-1,-4,-1,-4
59541354951,-6,2,2,-3,2,5,2,-1
59541354951,-4,-1,-1,-4,-1,-2,-3,1
59541376011,2,-6,-15,5,0,-1,2,3
59541376011,-2,4,3,9,4,2,1,1
59541377458,-1,-1,-5,-16,0,-1,1,-5
59541377458,-10,0,-3,-7,-8,-7,-5,-13
59541397829,12,-2,3,-1,-2,-2,-1,6
59541397829,0,-2,-2,0,1,2,0,3
59541398441,-1,0,3,-3,-1,-2,-3,-8
59541398441,-6,1,2,-5,1,0,1,13
59541412667,-6,0,4,7,3,1,-5,-7
59541412667,3,-8,-14,-14,-5,-2,-3,-4
59541413464,3,1,6,15,2,0,-3,0
59541413464,3,-3,-15,-11,-7,-3,-2,-3
59541435369,-3,-1,12,5,1,-3,1,-1
59541435369,-1,3,-2,-5,0,0,0,5
59541435926,-2,0,-8,-8,-6,-5,-2,-6
59541435926,7,3,-2,5,-1,-1,-1,12
59541457758,-11,-13,5,2,1,-1,-1,-9
59541457758,-5,-3,1,1,0,-1,1,-4
59541458460,2,-1,-2,-3,-2,0,2,-1
59541458460,9,3,9,5,1,-2,1,10
59541472762,-2,5,-11,-4,-4,-3,-1,3
59541472762,-3,-1,10,12,0,-1,2,-4
59541473437,-1,-2,-3,-19,-1,1,-4,-1
59541473437,3,-5,-8,-5,-4,-3,-1,6
59541495379,1,1,4,5,-3,0,-2,-5
59541495379,-13,2,-3,-3,-3,-2,-3,-8
59541495945,-11,-4,-2,9,1,3,1,-4
59541495945,-1,-7,-1,-1,7,1,0,2
59541517862,-3,-5,-2,-6,-7,-5,-2,2
59541517862,5,2,4,4,8,5,1,-1
59541518450,4,-1,-1,-1,-5,-7,-1,8
59541518450,-11,-3,-24,-5,-3,2,0,-16
59541532777,9,6,5,-7,-2,-4,-2,1
59541532777,-3,-4,4,1,-3,-2,-1,-2
59541533436,1,2,6,2,0,-1,-1,1
59541533436,-9,3,13,15,5,3,1,-16
59541555286,-1,5,3,2,-1,-2,1,2
59541555286,0,-11,-24,-17,-7,-5,-3,-3
59541555965,10,3,10,9,4,1,-1,7
59541555965,-3,-5,-5,-5,-7,-2,-2,-2
59541577745,-2,-1,5,4,1,4,-1,1
59541577745,0,2,-3,-11,1,1,1,6
59541578421,-5,-5,-8,5,2,-1,0,-10
59541578421,4,2,1,-8,-5,-3,-2,2
59541592740,-11,-7,-5,-5,-1,-1,-4,-7
59541592740,15,3,8,6,0,1,3,5
59541593426,0,3,0,-6,4,0,-2,-6
59541593426,17,5,7,7,-1,0,0,21
59541615261,-9,0,-5,-3,-3,-5,-1,-9
59541615261,-5,-4,-7,-9,-3,-5,-3,-4
59541615900,-3,-2,2,8,-3,-4,0,-2
59541615900,6,5,8,0,4,5,3,6
59541637755,0,-9,-22,-13,-2,-2,-3,-7
59541637755,-2,-1,4,8,-1,0,-1,2
59541638414,-5,-2,-7,-3,-3,-3,-1,-11
59541638414,-15,-6,1,-3,-3,-1,-3,-19
59541652736,12,5,14,3,2,3,3,18
59541652736,4,0,-4,-3,-4,-3,-3,-4
59541653400,-3,-8,-4,-7,-5,-2,-2,-1
59541653400,-3,-3,-1,1,-2,-5,-3,0
59541675313,-4,2,-1,-1,-1,-1,-2,-6
59541675313,2,1,-3,-5,1,-2,0,5
59541675912,0,2,6,11,0,2,-1,2
59541675912,-3,-10,-11,-13,-3,-3,-1,-6
59541697737,2,-1,-2,6,0,-1,-1,5
59541697737,-3,-1,-2,-1,4,3,1,0
59541698388,2,2,1,0,-3,0,-1,-1
59541698388,-3,-1,-2,2,4,0,-1,0
59541712739,-1,-3,-3,2,-7,-2,-2,-3
59541712739,-3,-1,1,-5,-3,-4,-3,-3
59541713389,0,2,1,-6,-1,2,-1,-1
59541713389,-1,-3,-14,-2,-3,0,0,2
59541735243,-3,-1,3,-8,-2,0,0,-1
59541735243,-5,-8,-2,8,1,1,-1,-3
59541735909,2,0,-1,-2,-1,0,0,3
59541735909,-1,2,1,-2,-2,-3,1,1
59541757838,-2,-2,-1,2,1,0,-1,-5
59541757838,-2,-2,-3,-1,-3,-2,0,-1
59541758394,-1,4,7,-1,0,-2,-2,-2
59541758394,-1,-8,-8,-1,0,-3,-4,-2
59541772714,-1,-1,2,-5,-2,-1,0,-2
59541772714,-1,1,-3,-3,1,2,0,-3
59541773439,-1,-4,-10,0,-1,-5,-2,2
59541773439,-1,1,7,2,-4,0,-1,-1
59541795293,-3,-2,-4,-7,-3,0,-1,0
59541795293,0,1,4,1,-4,-4,0,0
59541795884,-1,0,-3,1,0,0,2,-3
59541795884,-1,4,-2,-8,0,-6,-3,-1
59541817761,-1,1,-2,0,-3,-2,0,-1
59541817761,-1,1,5,4,4,0,-3,-1
59541818438,-4,-7,-8,-1,2,4,3,0
59541818438,-2,-5,6,-3,-5,-2,0,1
59541832680,0,-2,-6,-1,-2,-3,-3,-2
59541832680,1,-1,1,-1,-4,-3,-6,0
59541833424,1,1,14,2,0,-3,-3,-2
59541833424,2,-2,1,-2,-2,2,7,2
59541855398,0,-1,0,1,0,0,-1,-2
59541855398,-1,-1,47,-2,-4,0,5,0
59541855932,-2,-2,16,1,1,0,-9,-2
59541855932,-4,-2,25,7,0,3,-3,-2
59541877787,-1,2,2,-7,1,-2,-1,-2
59541877787,-3,-1,-36,-1,1,-2,-4,-3
59541878441,0,-7,-30,2,-2,-2,2,-1
59541878441,-2,-2,-35,1,-4,-6,-4,-4
59541892762,-1,-9,-30,0,-7,-3,-1,-1
59541892762,1,2,-13,-3,2,2,-2,-1
59541893439,-1,2,-3,6,-2,0,2,0
59541893439,1,-1,-20,-9,4,1,-2,1
59541915171,-3,-2,-2,-2,-2,-2,-6,-1
59541915171,0,3,4,-2,-11,-7,-5,-1
59541915957,-3,-4,-11,-2,1,0,3,-1
59541915957,1,-1,2,-1,2,0,0,-2
59541937456,2,13,32,5,3,0,1,0
59541937456,-3,-8,-26,2,4,1,1,0
59541945281,1,6,10,-2,-5,-5,-6,0
59541945281,-2,0,-4,-6,-5,-5,-1,-3
59541952743,0,6,10,-7,1,0,0,0
59541952743,-1,10,15,7,3,1,1,-2
59541953393,-5,-4,-11,-8,-6,1,-2,-4
59541953393,-6,-5,5,2,-1,-6,1,-2
59541975389,-2,-10,-12,-4,1,4,-3,0
59541975389,0,-3,4,1,-6,-10,-1,0
59541975915,3,5,13,-5,1,-1,-2,3
59541975915,13,2,23,13,3,-1,-5,11
59541997764,-1,-8,-26,-17,-8,-4,1,-18
59541997764,-8,-4,0,5,8,6,2,2
59541998411,0,0,8,4,0,2,0,-1
59541998411,-1,1,4,6,8,3,1,2
59542012086,3,-3,2,10,5,-2,-2,5
59542012086,-2,-11,-28,-48,-27,-5,-5,-3
59542020265,-3,-6,-5,-1,0,-11,2,-2
59542020265,-1,9,18,8,2,6,-2,0
59542035150,0,0,-9,-2,1,-1,2,1
59542035150,-1,3,6,17,4,-2,1,-2
59542035937,-3,-1,-6,-3,-10,-3,-4,-3
59542035937,1,-7,-1,-3,-6,-4,-2,-4
59542066069,4,0,17,8,8,7,5,9
59542066069,-1,6,0,11,3,0,1,-4
59542066617,3,3,2,-11,1,1,0,2
59542066617,6,5,-9,-5,-4,-1,2,4
59542072082,-20,-5,-7,-7,-9,-9,-7,-22
59542072082,1,-4,-6,-6,-1,-2,-5,0
59542080268,7,0,1,17,2,2,0,0
59542080268,-19,-4,-12,-15,-2,-1,-6,-5
59542103471,-4,-5,-7,-7,-5,0,4,-3
59542103471,0,2,5,5,4,-2,6,5
59542104088,0,-2,-4,-5,-1,-1,1,-1
59542104088,-2,-1,5,5,-1,2,6,3
59542117711,7,4,5,4,0,-4,-3,7
59542117711,-5,-5,-4,1,0,1,-2,-5
59542118416,4,0,-6,-1,0,0,-2,6
59542118416,5,6,-2,-6,-3,-5,-4,-5
59542132146,-2,-4,1,0,1,2,0,1
59542132146,3,4,9,0,-5,-3,-1,0
59542140257,-3,-6,-4,-4,3,6,0,2
59542140257,-7,-4,-7,-4,-4,-6,-2,-7
59542155326,1,2,6,2,-1,-1,5,7
59542155326,3,-8,-20,-1,-1,1,6,8
59542155914,-11,-5,4,2,4,4,5,-16
59542155914,18,-16,7,-3,-3,3,-2,15
59542177746,7,-13,-5,-1,-4,-3,-1,6
59542177746,-2,-6,8,1,1,0,-2,-1
59542178412,-5,3,-2,-5,-3,-5,-16,-3
59542178412,-9,15,-6,2,1,2,-10,-10
59542192058,1,19,-1,2,-1,-4,-5,-4
59542192058,16,7,0,-1,-1,2,44,22
59542200234,-8,1,-2,-2,-5,-3,8,-7
59542200234,-15,-8,5,-1,-2,0,-11,-13
59542215001,-2,-7,3,-4,0,-2,-16,-4
59542215001,-3,-6,0,0,1,1,-19,-10
59542222827,2,-6,3,-1,-1,-2,1,8
59542222827,-1,1,-5,-1,-1,-4,4,1
59542238680,-1,-9,8,3,1,2,-1,-2
59542238680,-7,-14,-11,-12,-1,-4,-7,-6
59542239073,3,-18,3,-2,-4,-4,1,3
59542239073,0,-23,-2,-8,-6,-3,-1,-5
59542252003,-4,-15,-7,5,2,1,5,0
59542252003,1,0,12,12,4,2,-2,-1
59542260256,0,-1,-5,-4,-3,-1,-4,-4
59542260256,3,12,-1,5,2,-1,2,0
59542275341,-1,14,1,-6,-1,-2,2,2
59542275341,-3,15,4,-5,-5,-2,-8,-5
59542275925,-2,14,-2,0,-1,3,-2,-2
59542275925,-2,9,-3,0,-2,1,3,0
59542298626,-1,3,-3,-5,-4,-1,1,-1
59542298626,-1,4,4,1,1,-1,-8,-5
59542299080,-1,3,-4,-2,1,-4,-3,0
59542299080,6,2,-4,0,1,-2,6,5
59542311991,-22,-1,0,-1,-1,0,-2,-11
59542311991,3,5,-2,-1,0,0,0,1
59542320270,3,4,-4,1,-1,1,-1,2
59542320270,-4,2,1,0,-1,-1,0,-1
59542335151,4,4,-5,3,-1,0,-5,2
59542335151,-9,-1,-4,-3,-2,-2,-3,0
59542335946,0,-2,2,-1,0,-1,0,-6
59542335946,-1,-1,-4,-1,-1,-1,-1,-2
59542358553,6,2,1,0,-1,-2,-4,3
59542358553,-7,-6,1,0,-2,-2,3,-5
59542359112,-10,-5,-2,-2,-3,-3,-10,-9
59542359112,16,1,0,2,1,2,5,15
59542372033,-1,-1,-4,-1,-3,-4,0,-5
59542372033,3,-1,3,-1,0,1,4,3
59542380295,-1,0,2,-3,0,-1,1,0
59542380295,-6,-1,-4,-2,-1,-1,2,-8
59542395157,2,-3,-5,0,2,0,0,9
59542395157,3,1,-7,3,-1,1,-5,-3
59542395888,1,-7,-8,-10,-3,-2,1,2
59542395888,-5,-1,6,2,0,-2,-6,-4
59542418578,-1,-1,-2,0,-1,-1,4,-3
59542418578,-1,-2,3,-4,-4,-3,-4,-2
59542419092,1,0,2,0,1,-1,-4,0
59542419092,1,-2,1,3,1,1,9,3
59542440805,0,1,2,7,1,1,-2,-6
59542440805,-4,-4,-4,-5,-4,-3,-9,-1
59542441726,-13,1,0,4,0,2,11,-13
59542441726,4,3,0,-7,-3,-2,-2,-1
59542455071,-2,-2,3,2,1,1,-1,-1
59542455071,-2,1,6,6,3,0,-4,-3
59542455847,6,-3,-1,0,-1,-3,-3,7
59542455847,-7,-2,-7,-4,-4,-2,-6,-9
59542478451,1,0,3,-1,-1,-2,5,1
59542478451,4,-4,-3,-4,-1,0,-5,0
59542479093,1,1,0,1,-1,1,-10,1
59542479093,-3,-2,-2,1,2,2,11,0
59542500886,2,-1,-4,-4,-5,-2,-4,3
59542500886,-2,0,-1,0,-1,-3,3,1
59542501604,1,-1,-1,-1,-2,-1,-2,2
59542501604,-2,-4,1,2,-1,-2,-13,-4
59542515219,3,1,-7,-2,0,-2,10,6
59542515219,-6,-4,-2,1,-4,-1,-3,-9
59542515899,3,2,-1,3,0,-3,1,2
59542515899,-2,0,-1,1,-1,-2,-5,-6
59542538476,3,-1,0,0,-5,0,1,5
59542538476,-3,4,1,-2,0,-1,-10,4
59542539114,-18,-6,-1,-4,-2,-2,10,-22
59542539114,-4,-1,5,2,0,0,-7,-8
59542560941,-2,-5,-7,-4,-1,-1,-10,-3
59542560941,-1,0,-1,-1,-1,0,5,-3
59542561667,11,1,0,-1,0,0,-1,12
59542561667,-1,-3,-5,-2,-1,-1,8,5
59542575253,-3,-2,1,-2,-1,-3,-2,-10
59542575253,6,-3,-6,-3,-1,-1,-4,5
59542575895,3,0,-2,-1,0,0,-5,5
59542575895,-6,-1,-6,-4,-2,-3,3,-7
59542598385,0,0,1,0,1,1,-7,1
59542598385,-8,0,-1,-1,-3,-2,5,-1
59542599061,10,1,2,0,-1,-3,0,2
59542599061,-2,-2,-1,-4,-2,-2,-2,0
59542620958,-2,-1,-3,-4,0,-3,-2,-2
59542620958,-4,-1,1,-3,-2,1,-1,-3
59542621618,-2,3,5,2,2,-2,-14,-5
59542621618,3,-7,-13,-2,-2,0,12,7
59542635240,-1,-1,6,3,-1,-1,2,-4
59542635240,-1,-3,-5,-3,1,-3,-1,-1
59542635942,-6,-7,-7,-1,-2,-1,-2,-5
59542635942,2,-1,1,-1,0,-1,-5,1
59542658394,-4,-1,3,0,1,1,3,4
59542658394,-2,-4,2,2,-1,-1,2,-5
59542659081,2,-2,2,-1,0,0,-1,1
59542659081,-2,0,-5,-5,0,1,-7,-3
59542680884,-5,-1,-4,-2,-1,-2,-1,-1
59542680884,4,-3,-1,-1,-2,-1,3,2
59542681594,0,-1,-1,0,0,-1,5,-1
59542681594,3,1,3,2,1,-1,4,6
59542695205,-6,-2,-1,-3,0,2,2,-15
59542695205,-9,-1,0,-2,-2,-2,-6,-1
59542695908,-12,0,-2,-2,-2,-2,6,2
59542695908,0,2,2,-2,-2,-4,-7,-10
59542718463,2,3,-3,-2,-2,0,4,5
59542718463,3,4,3,0,2,-2,1,-1
59542719086,-4,-3,-6,-1,-2,-1,1,-2
59542719086,1,0,0,1,-2,2,-5,3
59542740945,4,0,-3,0,-2,0,-2,2
59542740945,2,0,1,-1,0,0,4,-1
59542741641,7,2,-1,-1,0,0,-3,7
59542741641,-5,-3,1,-3,0,-1,-1,-9
59542755261,2,1,2,0,1,-2,-2,0
59542755261,-1,0,-3,0,-1,-1,-5,-2
59542755880,4,-2,1,-4,-3,0,-1,-4
59542755880,-6,0,-2,2,0,-3,-2,-6
59542778490,4,0,-3,1,-1,-1,0,6
59542778490,-1,-2,-2,0,-2,2,-3,-4
59542779110,-5,1,-4,0,0,-1,4,2
59542779110,10,0,-2,-2,-4,-1,-2,6
59542801013,1,4,8,0,-3,-3,-3,-5
59542801013,3,-9,-14,-3,-1,-2,-3,-2
59542802404,-3,-3,-1,-1,0,-1,2,1
59542802404,7,-2,0,-2,-1,0,-4,10
59542815220,-16,-4,-3,-3,-2,0,3,-19
59542815220,1,-1,0,-1,-1,-1,-9,-2
59542815910,0,-1,1,-1,-1,0,5,-2
59542815910,0,-1,-2,-1,-1,-2,-1,5
59542838532,9,0,-3,0,-1,0,-2,1
59542838532,-4,-2,3,0,0,-1,-4,-4
59542839132,1,-1,-4,-2,0,1,-2,-1
59542839132,2,2,2,-2,-1,0,4,2
59542860923,-12,-3,-2,-1,-3,-1,-3,2
59542860923,0,-1,-4,-1,-1,-1,2,-2
59542861591,0,-1,0,0,-3,0,-9,-3
59542861591,-5,1,0,0,1,-1,3,-3
59542875224,4,-1,-1,-2,2,0,-4,-5
59542875224,1,0,1,-1,-1,-1,-6,4
59542875911,-2,-2,-2,0,-1,-1,1,0
59542875911,-9,-2,1,0,-1,-1,6,-4
59542898380,-1,-5,-2,-1,0,-2,-1,0
59542898380,9,4,5,0,-1,0,6,8
59542899090,0,-5,-1,-1,0,-1,-6,-2
59542899090,-5,-2,-4,-2,-2,0,-9,-5
59542920911,2,2,4,-2,0,-2,1,7
59542920911,-9,0,-1,0,1,-1,-3,-9
59542922436,2,-1,1,-2,-1,0,2,5
59542922436,-3,-1,-1,0,-1,-4,-9,2
59542934901,1,-3,-1,-3,-1,0,1,10
59542934901,-5,2,-1,-1,0,1,4,-10
59542943393,-2,-1,-3,-1,-2,-2,-4,-3
59542943393,-4,1,0,2,-1,-1,3,-4
59542958434,16,4,1,1,-2,-1,1,-2
59542958434,-12,-4,-4,0,-2,-1,7,8
59542960038,-2,0,-2,-2,-1,-1,-4,-2
59542960038,2,-3,2,-1,-1,0,-12,-4
59542981004,-1,0,0,-1,0,-2,2,-1
59542981004,2,1,-3,-1,-1,-2,0,1
59542982436,-2,-1,1,0,0,-1,1,-4
59542982436,-4,-2,-1,-1,-3,0,-4,1
59542994574,-2,-6,-5,-1,0,2,-1,-5
59542994574,-7,0,5,-1,-1,-3,0,1
59543003463,0,2,0,-1,0,0,3,10
59543003463,-8,-3,0,-1,0,0,1,-11
59543018398,-7,-1,-2,1,-1,-1,-10,-3
59543018398,16,-2,0,0,-2,-1,7,14
59543019918,-13,-1,-3,-2,-3,-2,-4,-23
59543019918,-1,-2,-1,1,0,-2,3,0
59543040878,-4,-1,-2,0,-3,0,8,1
59543040878,2,-3,2,-2,-2,-1,-5,1
59543042367,5,0,0,0,0,0,-1,5
59543042367,1,0,-4,-1,0,-1,0,-1
59543054583,-2,3,7,1,0,-1,-7,-1
59543054583,0,-9,-13,-1,-2,1,6,-4
59543063453,0,-1,-1,-1,0,0,-8,-2
59543063453,-3,-2,-1,-2,-2,1,1,-4
59543078471,7,-1,0,0,-2,-1,-1,7
59543078471,1,3,3,-1,-1,1,0,-4
59543079922,-1,-1,-2,-2,0,-1,2,3
59543079922,6,-4,-2,-1,0,-3,-8,-4
59543100777,-6,1,-4,-4,-2,-3,3,2
59543100777,-3,-1,-2,0,-1,-3,-10,-6
59543102402,0,-1,-1,1,-1,0,12,0
59543102402,3,-1,6,0,-2,-2,0,3
59543114610,-8,-3,-1,1,-2,0,-1,-3
59543114610,1,-2,-1,-2,-1,-1,-3,-3
59543123485,4,1,3,-3,-1,0,-4,1
59543123485,-12,-2,-3,-1,1,1,0,0
59543138467,-7,-5,-4,-1,-3,-3,-8,-13
59543138467,5,7,5,-1,-1,-2,1,8
59543139926,3,-4,-8,-2,-2,-2,-3,0
59543139926,2,2,6,-1,-1,-2,4,-4
59543161316,3,-1,-1,-1,1,-1,-2,3
59543161316,-1,0,0,0,0,-1,-1,-4
59543167077,-2,-1,4,0,0,0,2,0
59543167077,3,-2,-9,-1,0,-1,-1,4
59543174534,1,1,0,-2,-2,-2,-3,-2
59543174534,-22,-1,5,1,0,-2,-2,-4
59543183464,-8,-2,-4,-1,0,-1,-3,-4
59543183464,7,2,-1,-2,-2,0,-1,-1
