60138317693,0.167602539062,0.497924804688,-0.519470214844,-0.673950195312
60138341284,0.167541503906,0.497619628906,-0.519653320312,-0.674011230469
60138362685,0.166625976562,0.500122070312,-0.518127441406,-0.673522949219
60138377834,0.165893554688,0.497680664062,-0.518981933594,-0.674865722656
60138401457,0.165283203125,0.496826171875,-0.519226074219,-0.675476074219
60138422738,0.166259765625,0.496459960938,-0.519775390625,-0.675109863281
60138437821,0.16845703125,0.4970703125,-0.520202636719,-0.673767089844
60138461437,0.169860839844,0.498107910156,-0.520141601562,-0.672668457031
60138515462,0.167053222656,0.5,-0.518127441406,-0.673522949219
60138516115,0.158630371094,0.497741699219,-0.516235351562,-0.6787109375
60138525689,0.157165527344,0.496704101562,-0.516235351562,-0.679809570312
60138542904,0.15869140625,0.494567871094,-0.517883300781,-0.679748535156
60138559059,0.159484863281,0.494323730469,-0.518127441406,-0.679565429688
60138589802,0.159301757812,0.494934082031,-0.518249511719,-0.679077148438
60138625059,0.159362792969,0.494934082031,-0.518249511719,-0.679016113281
60138635189,0.159423828125,0.494995117188,-0.518249511719,-0.679016113281
60138641362,0.159484863281,0.494995117188,-0.518249511719,-0.678955078125
60138663193,0.158142089844,0.49658203125,-0.517517089844,-0.6787109375
60138678852,0.152282714844,0.496032714844,-0.515869140625,-0.681701660156
60138717040,0.150390625,0.495849609375,-0.515258789062,-0.682678222656
60138723934,0.142761230469,0.492736816406,-0.513916015625,-0.687561035156
60138747038,0.141967773438,0.491760253906,-0.514099121094,-0.688293457031
60138769512,0.146545410156,0.490661621094,-0.516418457031,-0.686401367188
60138783919,0.155334472656,0.493469238281,-0.518371582031,-0.680969238281
60138807062,0.156677246094,0.494506835938,-0.518310546875,-0.679931640625
60138829495,0.153625488281,0.496337890625,-0.51611328125,-0.680969238281
60138843863,0.145568847656,0.493774414062,-0.514343261719,-0.685913085938
60138867022,0.146423339844,0.494140625,-0.514404296875,-0.685424804688
60138889564,0.146423339844,0.494384765625,-0.514526367188,-0.685180664062
60138904333,0.146545410156,0.494384765625,-0.514526367188,-0.685119628906
60138927050,0.146667480469,0.494384765625,-0.514587402344,-0.68505859375
60138949544,0.146789550781,0.494384765625,-0.514587402344,-0.684997558594
60138970696,0.146911621094,0.494445800781,-0.5146484375,-0.684936523438
60138994568,0.147583007812,0.494750976562,-0.514709472656,-0.684509277344
60139009594,0.148193359375,0.4951171875,-0.514709472656,-0.68408203125
60139030434,0.148986816406,0.49560546875,-0.514587402344,-0.683654785156
60139047066,0.149841308594,0.495971679688,-0.514465332031,-0.683288574219
60139069501,0.150695800781,0.496398925781,-0.514465332031,-0.682800292969
60139090753,0.151550292969,0.496887207031,-0.514465332031,-0.682250976562
60139107008,0.15234375,0.497375488281,-0.514587402344,-0.681640625
60139129541,0.153503417969,0.497863769531,-0.5146484375,-0.680969238281
60139150701,0.154846191406,0.498168945312,-0.514831542969,-0.680297851562
60139167008,0.156433105469,0.498413085938,-0.515014648438,-0.6796875
60139189564,0.159057617188,0.49853515625,-0.515197753906,-0.678771972656
60139210691,0.163269042969,0.4990234375,-0.515441894531,-0.67724609375
60139227037,0.169799804688,0.499145507812,-0.516052246094,-0.675048828125
60139249560,0.179138183594,0.498413085938,-0.517822265625,-0.671875
60139270637,0.187744140625,0.495056152344,-0.523315429688,-0.667724609375
60139287036,0.194702148438,0.489135742188,-0.532165527344,-0.663024902344
60139309517,0.201171875,0.482421875,-0.54248046875,-0.657653808594
60139330720,0.208374023438,0.475219726562,-0.552856445312,-0.652038574219
60139346401,0.216491699219,0.465881347656,-0.564697265625,-0.645935058594
60139369613,0.225646972656,0.454528808594,-0.577453613281,-0.639587402344
60139390655,0.233703613281,0.439819335938,-0.591735839844,-0.633911132812
60139406338,0.240539550781,0.42236328125,-0.607482910156,-0.628295898438
60139429514,0.245483398438,0.402893066406,-0.623779296875,-0.623168945312
60139452038,0.249389648438,0.382446289062,-0.638916015625,-0.619140625
60139466414,0.252685546875,0.361999511719,-0.653442382812,-0.614929199219
60139489564,0.254333496094,0.341186523438,-0.667846679688,-0.610717773438
60139512092,0.253173828125,0.319763183594,-0.682067871094,-0.606994628906
60139526417,0.249389648438,0.297607421875,-0.695861816406,-0.604248046875
60139550018,0.2431640625,0.275268554688,-0.709045410156,-0.601989746094
60139562484,0.234680175781,0.251281738281,-0.7216796875,-0.600830078125
60139577549,0.224487304688,0.22509765625,-0.733947753906,-0.600280761719
60139600078,0.213928222656,0.198425292969,-0.745178222656,-0.599731445312
60139622539,0.203247070312,0.172485351562,-0.754943847656,-0.599243164062
60139640323,0.191711425781,0.146850585938,-0.763916015625,-0.598449707031
60139660017,0.178894042969,0.121948242188,-0.7724609375,-0.597106933594
60139682581,0.164916992188,0.097900390625,-0.780639648438,-0.594909667969
60139697548,0.150024414062,0.0735473632812,-0.788269042969,-0.59228515625
60139720014,0.134460449219,0.0493774414062,-0.794738769531,-0.58984375
60139742568,0.118286132812,0.0275268554688,-0.799621582031,-0.588195800781
60139757539,0.101806640625,0.00836181640625,-0.802795410156,-0.587524414062
60139780049,0.0844116210938,-0.00738525390625,-0.804748535156,-0.587646484375
60139802552,0.0656127929688,-0.0191650390625,-0.805786132812,-0.58837890625
60139817501,0.0462646484375,-0.0269775390625,-0.806335449219,-0.589050292969
60139840121,0.0280151367188,-0.033447265625,-0.807006835938,-0.589050292969
60139862537,0.0103149414062,-0.0399780273438,-0.807250976562,-0.588806152344
60139880328,-0.0068359375,-0.047119140625,-0.806518554688,-0.589294433594
60139900017,-0.0238037109375,-0.0551147460938,-0.804809570312,-0.590515136719
60139922515,-0.0407104492188,-0.0638427734375,-0.802795410156,-0.591491699219
60139937511,-0.056396484375,-0.071044921875,-0.801147460938,-0.591613769531
60139960005,-0.0702514648438,-0.0762939453125,-0.80029296875,-0.590637207031
60139982491,-0.0811767578125,-0.0794677734375,-0.800048828125,-0.589111328125
60139997508,-0.0902709960938,-0.0811157226562,-0.799987792969,-0.587707519531
60140019912,-0.097900390625,-0.0818481445312,-0.800170898438,-0.586120605469
60140037838,-0.104187011719,-0.0830078125,-0.801025390625,-0.583679199219
60140057586,-0.109069824219,-0.085693359375,-0.802551269531,-0.580322265625
60140080046,-0.112731933594,-0.0897827148438,-0.803955078125,-0.577026367188
60140105340,-0.114929199219,-0.0939331054688,-0.80517578125,-0.574279785156
60140117527,-0.115966796875,-0.0974731445312,-0.80615234375,-0.572082519531
60140139997,-0.116394042969,-0.100769042969,-0.806884765625,-0.570373535156
60140157821,-0.115966796875,-0.103149414062,-0.807556152344,-0.569091796875
60140177387,-0.114685058594,-0.104431152344,-0.80810546875,-0.568359375
60140199994,-0.113403320312,-0.105407714844,-0.808288574219,-0.568176269531
60140219368,-0.11279296875,-0.10693359375,-0.808227539062,-0.568115234375
60140237537,-0.112548828125,-0.1083984375,-0.808044433594,-0.568054199219
60140260017,-0.112487792969,-0.109558105469,-0.807922363281,-0.568054199219
60140277815,-0.112426757812,-0.109619140625,-0.807922363281,-0.568054199219
60140297514,-0.112548828125,-0.109619140625,-0.807800292969,-0.568176269531
60140320068,-0.112854003906,-0.109497070312,-0.8076171875,-0.568420410156
60140337839,-0.113220214844,-0.109375,-0.807495117188,-0.568603515625
60140357388,-0.113525390625,-0.109375,-0.807495117188,-0.568481445312
60140380086,-0.11376953125,-0.109619140625,-0.807556152344,-0.568298339844
60140397802,-0.113647460938,-0.10986328125,-0.8076171875,-0.568176269531
60140417491,-0.11328125,-0.110168457031,-0.8076171875,-0.568237304688
60140439883,-0.112609863281,-0.110229492188,-0.807556152344,-0.568420410156
60140457785,-0.111633300781,-0.110290527344,-0.8076171875,-0.568603515625
60140477548,-0.110534667969,-0.110229492188,-0.8076171875,-0.568725585938
60140500013,-0.109802246094,-0.110290527344,-0.807800292969,-0.568664550781
60140517851,-0.109130859375,-0.110656738281,-0.807861328125,-0.568603515625
60140538837,-0.108459472656,-0.110961914062,-0.807861328125,-0.568725585938
60140559975,-0.107543945312,-0.110900878906,-0.807739257812,-0.569091796875
60140577818,-0.1064453125,-0.110229492188,-0.807678222656,-0.569458007812
60140598865,-0.105407714844,-0.109619140625,-0.8076171875,-0.56982421875
60140619988,-0.104675292969,-0.109619140625,-0.807495117188,-0.570190429688
60140637868,-0.104309082031,-0.110290527344,-0.80712890625,-0.570617675781
60140658838,-0.103759765625,-0.1103515625,-0.806762695312,-0.571228027344
60140679990,-0.102844238281,-0.109436035156,-0.806518554688,-0.571899414062
60140697792,-0.101745605469,-0.108337402344,-0.806274414062,-0.572631835938
60140718885,-0.10107421875,-0.107666015625,-0.806030273438,-0.5732421875
60140740002,-0.100891113281,-0.107666015625,-0.805725097656,-0.57373046875
60140757820,-0.100952148438,-0.107666015625,-0.805358886719,-0.574157714844
60140778861,-0.100769042969,-0.107238769531,-0.805114746094,-0.574645996094
60140799987,-0.100463867188,-0.106506347656,-0.804992675781,-0.575073242188
60140817792,-0.0999145507812,-0.105590820312,-0.804809570312,-0.575561523438
60140838817,-0.0994873046875,-0.104858398438,-0.8046875,-0.575927734375
60140859893,-0.098876953125,-0.104248046875,-0.804626464844,-0.576171875
60140877826,-0.0980224609375,-0.103637695312,-0.804565429688,-0.576538085938
60140900343,-0.0971069335938,-0.103149414062,-0.804443359375,-0.576965332031
60140919941,-0.0962524414062,-0.102783203125,-0.80419921875,-0.577514648438
60140937785,-0.09521484375,-0.101806640625,-0.803894042969,-0.578247070312
60140960317,-0.0928955078125,-0.0986328125,-0.803649902344,-0.57958984375
60140980028,-0.0877685546875,-0.09228515625,-0.803100585938,-0.582153320312
60140997845,-0.0799560546875,-0.0831298828125,-0.802612304688,-0.585327148438
60141020345,-0.0708618164062,-0.0713500976562,-0.802551269531,-0.588073730469
60141040756,-0.0614013671875,-0.0585327148438,-0.803466796875,-0.58935546875
60141057800,-0.0520629882812,-0.0453491210938,-0.804748535156,-0.589660644531
60141080326,-0.044189453125,-0.0331420898438,-0.8056640625,-0.58984375
60141100025,-0.0374145507812,-0.0210571289062,-0.8056640625,-0.590942382812
60141117845,-0.0297241210938,-0.006103515625,-0.80517578125,-0.592346191406
60141139484,-0.0197143554688,0.013671875,-0.803894042969,-0.594360351562
60141160692,-0.00860595703125,0.0364379882812,-0.800903320312,-0.597717285156
60141177014,0.00225830078125,0.0626831054688,-0.796508789062,-0.601440429688
60141199493,0.0120849609375,0.090576171875,-0.791320800781,-0.604614257812
60141220736,0.021240234375,0.118408203125,-0.784729003906,-0.608154296875
60141236965,0.0303955078125,0.145568847656,-0.776733398438,-0.612060546875
60141259535,0.0392456054688,0.170654296875,-0.768310546875,-0.61572265625
60141280705,0.0476684570312,0.192626953125,-0.760131835938,-0.618774414062
60141296984,0.0564575195312,0.213928222656,-0.75146484375,-0.621643066406
60141319521,0.06494140625,0.236938476562,-0.740478515625,-0.625610351562
60141340664,0.0725708007812,0.261535644531,-0.727172851562,-0.630554199219
60141357009,0.0798950195312,0.286499023438,-0.712585449219,-0.635498046875
60141379506,0.08740234375,0.310485839844,-0.697265625,-0.640197753906
60141400689,0.0945434570312,0.332702636719,-0.681579589844,-0.644897460938
60141417022,0.0999145507812,0.353454589844,-0.665710449219,-0.649597167969
60141439342,0.105834960938,0.375549316406,-0.649658203125,-0.652465820312
60141460675,0.11328125,0.399658203125,-0.633239746094,-0.653015136719
60141476989,0.118286132812,0.420959472656,-0.617492675781,-0.653869628906
60141499518,0.120483398438,0.438232421875,-0.60400390625,-0.654724121094
60141520721,0.122314453125,0.452941894531,-0.593383789062,-0.654113769531
60141536986,0.124633789062,0.46484375,-0.585693359375,-0.652221679688
60141559561,0.125549316406,0.47314453125,-0.580505371094,-0.650695800781
60141580812,0.124450683594,0.478210449219,-0.576904296875,-0.650451660156
60141597037,0.123718261719,0.482116699219,-0.573974609375,-0.650268554688
60141619492,0.125366210938,0.487243652344,-0.57080078125,-0.64892578125
60141640664,0.126098632812,0.491882324219,-0.567443847656,-0.648193359375
60141657010,0.124389648438,0.495483398438,-0.564392089844,-0.648498535156
60141679485,0.120056152344,0.497314453125,-0.561767578125,-0.650146484375
60141700667,0.118530273438,0.497619628906,-0.558044433594,-0.653442382812
60141716992,0.120483398438,0.495056152344,-0.555908203125,-0.656799316406
60141739495,0.123413085938,0.490783691406,-0.555725097656,-0.65966796875
60141760722,0.126831054688,0.4892578125,-0.555114746094,-0.66064453125
60141776334,0.129821777344,0.490844726562,-0.553833007812,-0.659973144531
60141799457,0.131958007812,0.493591308594,-0.551696777344,-0.659301757812
60141822017,0.133056640625,0.495361328125,-0.549621582031,-0.659423828125
60141836340,0.133544921875,0.495056152344,-0.549011230469,-0.660095214844
60141859528,0.133422851562,0.493347167969,-0.549621582031,-0.660888671875
