59555249550,-0.235900878906,-0.384826660156,0.452392578125,0.769104003906
59555273151,-0.235900878906,-0.384826660156,0.452392578125,0.769104003906
59555288296,-0.235900878906,-0.384826660156,0.452392578125,0.769104003906
59555309527,-0.237365722656,-0.385375976562,0.452575683594,0.768310546875
59555333237,-0.22802734375,-0.388000488281,0.448974609375,0.771911621094
59555348274,-0.225952148438,-0.388305664062,0.448303222656,0.772766113281
59555369587,-0.223999023438,-0.387939453125,0.447998046875,0.773681640625
59555393173,-0.22314453125,-0.384521484375,0.449340820312,0.77490234375
59555438320,-0.230895996094,-0.382995605469,0.451965332031,0.771850585938
59555447188,-0.232849121094,-0.383483886719,0.452209472656,0.770874023438
59555447948,-0.231750488281,-0.38671875,0.450500488281,0.770568847656
59555460933,-0.223205566406,-0.386901855469,0.4482421875,0.774291992188
59555483259,-0.22216796875,-0.386169433594,0.448303222656,0.77490234375
59555501002,-0.224365234375,-0.384216308594,0.44873046875,0.775024414062
59555522523,-0.224792480469,-0.383972167969,0.448791503906,0.774963378906
59555574566,-0.224853515625,-0.383972167969,0.448852539062,0.77490234375
59555575339,-0.224914550781,-0.383972167969,0.448852539062,0.77490234375
59555595690,-0.225036621094,-0.383972167969,0.448852539062,0.774841308594
59555601854,-0.224853515625,-0.3837890625,0.448181152344,0.775390625
59555618216,-0.221923828125,-0.382751464844,0.447937011719,0.77685546875
59555648876,-0.214599609375,-0.384033203125,0.445007324219,0.780029296875
59555670041,-0.209899902344,-0.383117675781,0.443298339844,0.782653808594
59555686406,-0.213317871094,-0.380920410156,0.444519042969,0.782165527344
59555708919,-0.222961425781,-0.381103515625,0.446838378906,0.778076171875
59555730037,-0.229797363281,-0.385314941406,0.446166992188,0.774353027344
59555746391,-0.228149414062,-0.39013671875,0.442138671875,0.774719238281
59555768865,-0.22314453125,-0.391296386719,0.438415527344,0.777709960938
59555789927,-0.225158691406,-0.389465332031,0.438110351562,0.778198242188
59555805694,-0.223999023438,-0.393737792969,0.434875488281,0.778198242188
59555828885,-0.227233886719,-0.395568847656,0.433166503906,0.777282714844
59555851363,-0.232360839844,-0.396423339844,0.431518554688,0.776245117188
59555865760,-0.238891601562,-0.397521972656,0.429077148438,0.775085449219
59555888901,-0.247253417969,-0.398620605469,0.425659179688,0.773803710938
59555911387,-0.257507324219,-0.399780273438,0.421020507812,0.772338867188
59555925717,-0.267639160156,-0.400207519531,0.416809082031,0.77099609375
59555948910,-0.277587890625,-0.400146484375,0.413696289062,0.769165039062
59555977406,-0.285949707031,-0.399047851562,0.411865234375,0.767700195312
59555985735,-0.293334960938,-0.395690917969,0.411865234375,0.7666015625
59556008894,-0.302185058594,-0.391540527344,0.412841796875,0.764770507812
59556021893,-0.31298828125,-0.38720703125,0.413696289062,0.76220703125
59556036930,-0.326110839844,-0.382934570312,0.414672851562,0.75830078125
59556059347,-0.340087890625,-0.378601074219,0.415771484375,0.753723144531
59556081903,-0.35400390625,-0.373962402344,0.417419433594,0.748718261719
59556096889,-0.36669921875,-0.368408203125,0.419860839844,0.743957519531
59556119618,-0.379150390625,-0.36181640625,0.423461914062,0.738952636719
59556141945,-0.391479492188,-0.355102539062,0.427551269531,0.7333984375
59556156915,-0.403625488281,-0.348266601562,0.431335449219,0.727783203125
59556179378,-0.41552734375,-0.340942382812,0.435241699219,0.722229003906
59556201871,-0.42724609375,-0.333190917969,0.439758300781,0.716247558594
59556216783,-0.438232421875,-0.325134277344,0.444580078125,0.710327148438
59556239276,-0.448852539062,-0.317077636719,0.448913574219,0.70458984375
59556261832,-0.458984375,-0.309387207031,0.452819824219,0.698974609375
59556276790,-0.467834472656,-0.301391601562,0.457092285156,0.693786621094
59556299252,-0.476501464844,-0.292846679688,0.460815429688,0.689086914062
59556321750,-0.48388671875,-0.283874511719,0.464233398438,0.685424804688
59556336906,-0.490356445312,-0.275024414062,0.46728515625,0.682312011719
59556359359,-0.496215820312,-0.2666015625,0.470153808594,0.679443359375
59556381916,-0.501708984375,-0.258605957031,0.472473144531,0.676879882812
59556396860,-0.507751464844,-0.251342773438,0.473876953125,0.674133300781
59556419368,-0.512451171875,-0.244323730469,0.475219726562,0.672180175781
59556441864,-0.516357421875,-0.237670898438,0.476318359375,0.670776367188
59556456859,-0.520141601562,-0.231567382812,0.477172851562,0.66943359375
59556479340,-0.524047851562,-0.226135253906,0.477416992188,0.668029785156
59556501903,-0.528137207031,-0.221618652344,0.477172851562,0.66650390625
59556516900,-0.53125,-0.217529296875,0.4775390625,0.665100097656
59556539371,-0.534301757812,-0.213989257812,0.477294921875,0.664001464844
59556557174,-0.537292480469,-0.211120605469,0.476867675781,0.662780761719
59556576948,-0.539855957031,-0.208801269531,0.476135253906,0.661987304688
59556599228,-0.542297363281,-0.206970214844,0.474914550781,0.661437988281
59556617150,-0.544311523438,-0.205261230469,0.473815917969,0.6611328125
59556636846,-0.546203613281,-0.203857421875,0.472717285156,0.660766601562
59556659408,-0.547790527344,-0.202758789062,0.471618652344,0.660583496094
59556677173,-0.54931640625,-0.201599121094,0.470520019531,0.660461425781
59556696871,-0.550842285156,-0.200622558594,0.46923828125,0.660339355469
59556719364,-0.552368164062,-0.200134277344,0.467895507812,0.660217285156
59556737146,-0.553588867188,-0.199645996094,0.466979980469,0.660034179688
59556756953,-0.554443359375,-0.19921875,0.466674804688,0.659606933594
59556779253,-0.55517578125,-0.199035644531,0.466674804688,0.659057617188
59556797149,-0.555847167969,-0.199035644531,0.466491699219,0.658630371094
59556816713,-0.556274414062,-0.198974609375,0.466064453125,0.658569335938
59556846898,-0.556640625,-0.19873046875,0.465759277344,0.658569335938
59556857156,-0.55712890625,-0.1982421875,0.4658203125,0.658264160156
59556876732,-0.557861328125,-0.197937011719,0.465942382812,0.657592773438
59556899580,-0.55859375,-0.197631835938,0.465881347656,0.657104492188
59556917200,-0.559265136719,-0.197204589844,0.465698242188,0.656860351562
59556939676,-0.559753417969,-0.196533203125,0.465454101562,0.656799316406
59556959279,-0.560119628906,-0.19580078125,0.465393066406,0.656799316406
59556977147,-0.560363769531,-0.195068359375,0.465454101562,0.656677246094
59556998238,-0.560974121094,-0.194458007812,0.465454101562,0.656372070312
59557019332,-0.561157226562,-0.19384765625,0.465637207031,0.656311035156
59557037201,-0.561340332031,-0.193481445312,0.465759277344,0.656127929688
59557058209,-0.561828613281,-0.193298339844,0.465942382812,0.655639648438
59557079331,-0.561645507812,-0.193054199219,0.466064453125,0.65576171875
59557097136,-0.561706542969,-0.193054199219,0.466064453125,0.655700683594
59557118246,-0.561828613281,-0.193298339844,0.46630859375,0.655395507812
59557139391,-0.561706542969,-0.193664550781,0.466674804688,0.655090332031
59557157216,-0.561828613281,-0.194091796875,0.466979980469,0.654663085938
59557178214,-0.562072753906,-0.1943359375,0.467407226562,0.654052734375
59557199395,-0.562194824219,-0.194458007812,0.468383789062,0.653259277344
59557217161,-0.562255859375,-0.194580078125,0.46923828125,0.652587890625
59557238243,-0.561706542969,-0.19482421875,0.469787597656,0.652587890625
59557259394,-0.561096191406,-0.1953125,0.470275878906,0.652587890625
59557277173,-0.560729980469,-0.196166992188,0.470703125,0.652282714844
59557298223,-0.560363769531,-0.197265625,0.471496582031,0.651733398438
59557319217,-0.559936523438,-0.198486328125,0.472717285156,0.650817871094
59557337136,-0.559387207031,-0.199768066406,0.473937988281,0.650024414062
59557359697,-0.558959960938,-0.201293945312,0.474792480469,0.649291992188
59557379268,-0.558410644531,-0.202392578125,0.475891113281,0.648620605469
59557403273,-0.557373046875,-0.203186035156,0.477233886719,0.648254394531
59557419661,-0.555847167969,-0.204040527344,0.478942871094,0.648071289062
59557439341,-0.554321289062,-0.205139160156,0.480529785156,0.647827148438
59557457163,-0.553283691406,-0.207092285156,0.481689453125,0.647277832031
59557479697,-0.55322265625,-0.208984375,0.482482910156,0.646118164062
59557499252,-0.55322265625,-0.210571289062,0.483032226562,0.645202636719
59557517169,-0.553039550781,-0.211486816406,0.483520507812,0.644653320312
59557539685,-0.552795410156,-0.212158203125,0.483947753906,0.644348144531
59557559367,-0.552490234375,-0.212585449219,0.484436035156,0.644104003906
59557576359,-0.552185058594,-0.212951660156,0.484924316406,0.643920898438
59557598842,-0.552124023438,-0.213195800781,0.485290527344,0.6435546875
59557620036,-0.551818847656,-0.213500976562,0.48583984375,0.643371582031
59557643876,-0.55126953125,-0.213623046875,0.486389160156,0.643371582031
59557658858,-0.550598144531,-0.213928222656,0.486938476562,0.643371582031
59557680095,-0.549560546875,-0.21435546875,0.487426757812,0.643737792969
59557696397,-0.54833984375,-0.21484375,0.48779296875,0.644348144531
59557718855,-0.54638671875,-0.215515136719,0.48828125,0.645446777344
59557740008,-0.544372558594,-0.216674804688,0.48828125,0.646728515625
59557756340,-0.5419921875,-0.218139648438,0.487915039062,0.648559570312
59557778867,-0.5390625,-0.220397949219,0.487060546875,0.650817871094
59557799878,-0.535705566406,-0.22314453125,0.485778808594,0.653564453125
59557816283,-0.532592773438,-0.226928710938,0.48388671875,0.65625
59557838856,-0.527770996094,-0.231201171875,0.482421875,0.659729003906
59557860120,-0.521606445312,-0.235778808594,0.481140136719,0.663940429688
59557876362,-0.51611328125,-0.240844726562,0.4794921875,0.667602539062
59557898836,-0.510192871094,-0.245849609375,0.47802734375,0.67138671875
59557920202,-0.504333496094,-0.2509765625,0.476379394531,0.675109863281
59557936391,-0.497924804688,-0.255615234375,0.47509765625,0.678955078125
59557958857,-0.490783691406,-0.259948730469,0.474609375,0.682861328125
59557980023,-0.481689453125,-0.263916015625,0.475219726562,0.687316894531
59557995724,-0.474487304688,-0.2685546875,0.475463867188,0.690368652344
59558018962,-0.468200683594,-0.273193359375,0.474731445312,0.693359375
59558041344,-0.461608886719,-0.277099609375,0.473693847656,0.696960449219
59558056347,-0.453918457031,-0.280151367188,0.473388671875,0.700988769531
59558078859,-0.445007324219,-0.283386230469,0.473693847656,0.705200195312
59558100025,-0.435974121094,-0.287231445312,0.473937988281,0.709045410156
59558116374,-0.426513671875,-0.290466308594,0.474060058594,0.713439941406
59558138883,-0.416687011719,-0.292846679688,0.473815917969,0.718383789062
59558159987,-0.407409667969,-0.295471191406,0.473327636719,0.722961425781
59558175688,-0.39990234375,-0.299499511719,0.472290039062,0.726135253906
59558198840,-0.393859863281,-0.304870605469,0.470764160156,0.728210449219
59558220098,-0.388488769531,-0.310546875,0.468933105469,0.729858398438
59558235664,-0.382019042969,-0.315307617188,0.46728515625,0.732299804688
59558258894,-0.374938964844,-0.319946289062,0.46533203125,0.735168457031
59558281356,-0.367980957031,-0.32470703125,0.463073730469,0.738037109375
59558295703,-0.36083984375,-0.329223632812,0.460754394531,0.740966796875
59558318823,-0.353820800781,-0.333312988281,0.458923339844,0.743713378906
59558341369,-0.347045898438,-0.337707519531,0.457153320312,0.745971679688
59558355663,-0.341003417969,-0.343505859375,0.454528808594,0.747741699219
59558378836,-0.334899902344,-0.349487304688,0.451477050781,0.749572753906
59558401326,-0.328979492188,-0.355163574219,0.448669433594,0.751220703125
59558415712,-0.3232421875,-0.359924316406,0.446533203125,0.752685546875
59558438854,-0.317443847656,-0.3642578125,0.444763183594,0.754150390625
59558461350,-0.312561035156,-0.369201660156,0.442626953125,0.755004882812
59558482514,-0.308410644531,-0.374328613281,0.440063476562,0.755676269531
59558498911,-0.3046875,-0.378601074219,0.437866210938,0.75634765625
59558521348,-0.301635742188,-0.382263183594,0.435974121094,0.7568359375
59558542459,-0.299011230469,-0.3857421875,0.434387207031,0.757019042969
59558558797,-0.296875,-0.389099121094,0.432861328125,0.757019042969
59558581362,-0.295288085938,-0.392395019531,0.431213378906,0.756896972656
59558602457,-0.294128417969,-0.395141601562,0.429809570312,0.756713867188
59558618851,-0.292846679688,-0.39697265625,0.428894042969,0.756713867188
59558641361,-0.291809082031,-0.398559570312,0.428100585938,0.756713867188
59558662418,-0.291198730469,-0.39990234375,0.42724609375,0.756774902344
59558678834,-0.291015625,-0.400512695312,0.426696777344,0.7568359375
59558701351,-0.290954589844,-0.400146484375,0.426940917969,0.756958007812
59558716162,-0.290710449219,-0.398864746094,0.427612304688,0.75732421875
59558738840,-0.290344238281,-0.397399902344,0.42822265625,0.757873535156
59558761348,-0.289428710938,-0.396606445312,0.428527832031,0.758422851562
59558782544,-0.288391113281,-0.396850585938,0.428649902344,0.758666992188
59558798873,-0.286926269531,-0.39794921875,0.428833007812,0.758544921875
59558821342,-0.284362792969,-0.398986816406,0.429382324219,0.758666992188
59558842514,-0.281799316406,-0.399658203125,0.429992675781,0.758911132812
59558858813,-0.279541015625,-0.399658203125,0.430847167969,0.759216308594
59558881332,-0.277893066406,-0.399047851562,0.431701660156,0.759704589844
59558903819,-0.276916503906,-0.3984375,0.432250976562,0.760070800781
59558918909,-0.276306152344,-0.3984375,0.432250976562,0.760314941406
59558941345,-0.275634765625,-0.398376464844,0.432312011719,0.760559082031
59558962495,-0.274780273438,-0.398071289062,0.4326171875,0.760803222656
59558978813,-0.274230957031,-0.397399902344,0.43310546875,0.761047363281
59559001362,-0.274047851562,-0.397094726562,0.43359375,0.761047363281
59559029960,-0.274169921875,-0.397155761719,0.433776855469,0.760864257812
59559038845,-0.274353027344,-0.397399902344,0.433715820312,0.7607421875
59559061367,-0.274169921875,-0.397521972656,0.433776855469,0.760620117188
59559082505,-0.273864746094,-0.397216796875,0.434265136719,0.760620117188
59559098902,-0.273620605469,-0.396911621094,0.434936523438,0.760498046875
59559121305,-0.27294921875,-0.396850585938,0.435485839844,0.760498046875
59559142507,-0.272155761719,-0.396789550781,0.435913085938,0.760498046875
59559158938,-0.271484375,-0.39697265625,0.436279296875,0.760498046875
59559181335,-0.270874023438,-0.397094726562,0.4365234375,0.760498046875
59559203861,-0.270446777344,-0.397033691406,0.436706542969,0.760620117188
59559218833,-0.270263671875,-0.396911621094,0.436828613281,0.760620117188
59559241346,-0.270202636719,-0.396789550781,0.436950683594,0.760620117188
59559263845,-0.270141601562,-0.396789550781,0.436950683594,0.760620117188
59559278834,-0.270568847656,-0.39697265625,0.436767578125,0.760559082031
59559301117,-0.270935058594,-0.397094726562,0.436645507812,0.760375976562
59559323888,-0.271118164062,-0.397033691406,0.4365234375,0.760437011719
59559338828,-0.271118164062,-0.396850585938,0.436401367188,0.760620117188
59559361335,-0.271301269531,-0.396606445312,0.436279296875,0.7607421875
59559383832,-0.271606445312,-0.396423339844,0.436279296875,0.7607421875
59559398193,-0.27197265625,-0.396362304688,0.436279296875,0.760620117188
59559427498,-0.272155761719,-0.396301269531,0.436279296875,0.760620117188
59559443833,-0.272094726562,-0.396301269531,0.436218261719,0.760620117188
59559458140,-0.272094726562,-0.396301269531,0.436218261719,0.760620117188
59559481385,-0.272094726562,-0.396301269531,0.436218261719,0.760620117188
59559503868,-0.272094726562,-0.396301269531,0.436218261719,0.760620117188
59559518141,-0.272094726562,-0.396301269531,0.436218261719,0.760620117188
59559541339,-0.272094726562,-0.396301269531,0.436218261719,0.760620117188
59559563835,-0.272033691406,-0.396301269531,0.436218261719,0.760620117188
59559578162,-0.272033691406,-0.396301269531,0.436218261719,0.760681152344
59559601330,-0.272033691406,-0.396362304688,0.436218261719,0.760620117188
59559623862,-0.272033691406,-0.396362304688,0.436218261719,0.760681152344
59559638192,-0.272033691406,-0.396362304688,0.436218261719,0.760681152344
59559661362,-0.272033691406,-0.396362304688,0.436218261719,0.760681152344
59559683803,-0.272033691406,-0.396362304688,0.436218261719,0.760620117188
59559706340,-0.271850585938,-0.396301269531,0.436218261719,0.7607421875
59559721349,-0.271606445312,-0.396057128906,0.436340332031,0.760864257812
59559743866,-0.271362304688,-0.395812988281,0.4365234375,0.760986328125
59559765046,-0.271057128906,-0.395629882812,0.436584472656,0.761169433594
59559781343,-0.27099609375,-0.395629882812,0.436584472656,0.761169433594
59559803813,-0.27099609375,-0.395629882812,0.436584472656,0.761169433594
59559824831,-0.27099609375,-0.395629882812,0.436584472656,0.761169433594
59559841337,-0.270874023438,-0.395446777344,0.436767578125,0.76123046875
59559864356,-0.270629882812,-0.395263671875,0.436889648438,0.761291503906
59559884895,-0.270324707031,-0.395141601562,0.43701171875,0.761413574219
59559901321,-0.270263671875,-0.395141601562,0.43701171875,0.761413574219
59559923843,-0.270263671875,-0.395141601562,0.43701171875,0.761474609375
59559945025,-0.270263671875,-0.395141601562,0.43701171875,0.761474609375
59559961342,-0.270263671875,-0.395141601562,0.43701171875,0.761474609375
59559983841,-0.270263671875,-0.395202636719,0.43701171875,0.761474609375
59560005089,-0.27001953125,-0.395080566406,0.437072753906,0.761535644531
59560021396,-0.269836425781,-0.394958496094,0.437133789062,0.761657714844
59560043808,-0.269592285156,-0.394958496094,0.437194824219,0.76171875
59560065087,-0.269592285156,-0.394958496094,0.437194824219,0.76171875
59560081362,-0.26953125,-0.394958496094,0.437133789062,0.76171875
59560103817,-0.26953125,-0.394958496094,0.437133789062,0.76171875
59560124972,-0.26953125,-0.394958496094,0.437133789062,0.76171875
59560141762,-0.26953125,-0.394958496094,0.437133789062,0.76171875
59560163820,-0.269470214844,-0.394958496094,0.437133789062,0.76171875
59560186332,-0.269714355469,-0.394897460938,0.437255859375,0.761657714844
59560201345,-0.27001953125,-0.394958496094,0.437316894531,0.761474609375
