60331049370,0.19921875,0.479736328125,-0.515502929688,-0.681518554688
60331073029,0.19921875,0.479736328125,-0.515502929688,-0.681518554688
60331094510,0.199462890625,0.48095703125,-0.515747070312,-0.680419921875
60331109480,0.204467773438,0.481689453125,-0.516662597656,-0.677673339844
60331132959,0.207458496094,0.4794921875,-0.518615722656,-0.676818847656
60331154460,0.208557128906,0.479064941406,-0.519165039062,-0.676391601562
60331169466,0.210632324219,0.479248046875,-0.519714355469,-0.675170898438
60331193096,0.212707519531,0.47998046875,-0.519897460938,-0.673828125
60331238838,0.213500976562,0.480834960938,-0.519653320312,-0.673217773438
60331240889,0.209289550781,0.482666015625,-0.517272949219,-0.675048828125
60331252954,0.200500488281,0.481567382812,-0.51513671875,-0.68017578125
60331274997,0.198547363281,0.480651855469,-0.514953613281,-0.681457519531
60331290772,0.193786621094,0.483825683594,-0.512451171875,-0.682495117188
60331320164,0.194213867188,0.484497070312,-0.5126953125,-0.681701660156
60331364294,0.194396972656,0.484497070312,-0.512878417969,-0.681518554688
60331374480,0.194396972656,0.484436035156,-0.512878417969,-0.681518554688
60331375888,0.194458007812,0.484436035156,-0.512939453125,-0.681518554688
60331394832,0.194458007812,0.484436035156,-0.512512207031,-0.681823730469
60331409147,0.199645996094,0.483581542969,-0.513854980469,-0.679931640625
60331431722,0.193359375,0.481506347656,-0.512878417969,-0.683959960938
60331454244,0.19189453125,0.480651855469,-0.512817382812,-0.684997558594
60331469123,0.191650390625,0.479858398438,-0.513122558594,-0.685363769531
60331491714,0.197021484375,0.478515625,-0.515502929688,-0.682983398438
60331514225,0.199279785156,0.478942871094,-0.515991210938,-0.681640625
60331529116,0.201049804688,0.479797363281,-0.51611328125,-0.680480957031
60331552001,0.201843261719,0.483093261719,-0.514465332031,-0.679138183594
60331575564,0.195434570312,0.483581542969,-0.512023925781,-0.682495117188
60331589211,0.187377929688,0.481689453125,-0.510314941406,-0.687377929688
60331611769,0.187622070312,0.482788085938,-0.511108398438,-0.685913085938
60331634356,0.188293457031,0.482604980469,-0.510925292969,-0.68603515625
60331649193,0.188781738281,0.482604980469,-0.510986328125,-0.685852050781
60331671778,0.189758300781,0.483093261719,-0.510681152344,-0.685424804688
60331694342,0.192260742188,0.484802246094,-0.509765625,-0.684265136719
60331709222,0.1982421875,0.48876953125,-0.506591796875,-0.682067871094
60331731739,0.208190917969,0.495971679688,-0.500427246094,-0.678405761719
60331754110,0.220642089844,0.503112792969,-0.49365234375,-0.674194335938
60331773848,0.232666015625,0.506042480469,-0.49072265625,-0.670043945312
60331791617,0.24462890625,0.500915527344,-0.49658203125,-0.665344238281
60331814219,0.2578125,0.487915039062,-0.509765625,-0.659973144531
60331830593,0.274597167969,0.470336914062,-0.524963378906,-0.654052734375
60331854491,0.295532226562,0.448486328125,-0.541748046875,-0.646606445312
60331874241,0.319213867188,0.423400878906,-0.559753417969,-0.636840820312
60331890547,0.343017578125,0.395874023438,-0.577819824219,-0.625915527344
60331911791,0.366882324219,0.368286132812,-0.594665527344,-0.613342285156
60331934265,0.389038085938,0.34033203125,-0.610534667969,-0.60009765625
60331952031,0.409423828125,0.311279296875,-0.626220703125,-0.5859375
60331971715,0.427185058594,0.280822753906,-0.641967773438,-0.571472167969
60331994261,0.443176269531,0.252319335938,-0.655822753906,-0.556640625
60332010588,0.456848144531,0.225769042969,-0.667785644531,-0.542541503906
60332031726,0.4677734375,0.198974609375,-0.678588867188,-0.5302734375
60332054253,0.475891113281,0.174194335938,-0.68798828125,-0.51953125
60332070571,0.481628417969,0.155029296875,-0.695495605469,-0.510192871094
60332091758,0.487121582031,0.141784667969,-0.700622558594,-0.501770019531
60332114216,0.492431640625,0.130737304688,-0.704711914062,-0.493774414062
60332130594,0.497619628906,0.122375488281,-0.7080078125,-0.485961914062
60332151691,0.501892089844,0.117431640625,-0.710327148438,-0.479370117188
60332174254,0.506225585938,0.115295410156,-0.711303710938,-0.473876953125
60332190540,0.509948730469,0.112670898438,-0.711547851562,-0.470092773438
60332211711,0.513305664062,0.111083984375,-0.711120605469,-0.467407226562
60332234351,0.516784667969,0.110778808594,-0.709533691406,-0.466186523438
60332252029,0.520202636719,0.1123046875,-0.706665039062,-0.466247558594
60332271576,0.5234375,0.115478515625,-0.703186035156,-0.467163085938
60332294190,0.52685546875,0.119812011719,-0.698791503906,-0.468811035156
60332311974,0.529602050781,0.12353515625,-0.694702148438,-0.470825195312
60332331795,0.531555175781,0.126831054688,-0.691162109375,-0.472900390625
60332354882,0.533264160156,0.128967285156,-0.688232421875,-0.474731445312
60332371246,0.53466796875,0.130859375,-0.685913085938,-0.476013183594
60332393713,0.535705566406,0.131591796875,-0.684509277344,-0.476623535156
60332414877,0.536560058594,0.131469726562,-0.683898925781,-0.476501464844
60332431214,0.537109375,0.131652832031,-0.683532714844,-0.476440429688
60332453738,0.53759765625,0.131958007812,-0.683288574219,-0.476135253906
60332474868,0.538024902344,0.132385253906,-0.683349609375,-0.475463867188
60332491238,0.538330078125,0.132507324219,-0.683349609375,-0.475158691406
60332513788,0.538391113281,0.132446289062,-0.683349609375,-0.47509765625
60332534890,0.538391113281,0.13232421875,-0.683227539062,-0.475280761719
60332551223,0.538330078125,0.132629394531,-0.68310546875,-0.475402832031
60332573674,0.538513183594,0.133483886719,-0.682739257812,-0.475463867188
60332594937,0.53857421875,0.134094238281,-0.682312011719,-0.475891113281
60332611218,0.538696289062,0.134521484375,-0.681884765625,-0.476135253906
60332633687,0.5390625,0.134887695312,-0.681579589844,-0.476135253906
60332654864,0.539306640625,0.135009765625,-0.681335449219,-0.476196289062
60332671215,0.539489746094,0.135192871094,-0.68115234375,-0.476196289062
60332693714,0.539611816406,0.135803222656,-0.680786132812,-0.476379394531
60332714998,0.539672851562,0.136596679688,-0.680419921875,-0.4765625
60332731232,0.539733886719,0.136901855469,-0.680297851562,-0.476623535156
60332753706,0.539672851562,0.137145996094,-0.680236816406,-0.476684570312
60332776166,0.539611816406,0.1376953125,-0.680236816406,-0.476623535156
60332791160,0.53955078125,0.137878417969,-0.680358886719,-0.476501464844
60332813787,0.53955078125,0.137878417969,-0.680358886719,-0.476501464844
60332836204,0.539733886719,0.137939453125,-0.680236816406,-0.476440429688
60332851237,0.539733886719,0.137878417969,-0.680236816406,-0.476440429688
60332873721,0.539733886719,0.137878417969,-0.680236816406,-0.476440429688
60332896269,0.539794921875,0.137451171875,-0.68017578125,-0.4765625
60332910531,0.539916992188,0.137084960938,-0.679992675781,-0.476806640625
60332933708,0.540222167969,0.137023925781,-0.679565429688,-0.47705078125
60332956202,0.540405273438,0.136840820312,-0.679321289062,-0.477294921875
60332970517,0.54052734375,0.136657714844,-0.679138183594,-0.477416992188
60332993769,0.54052734375,0.136596679688,-0.679077148438,-0.477478027344
60333016179,0.54052734375,0.136596679688,-0.679077148438,-0.477478027344
60333030588,0.540588378906,0.136535644531,-0.679077148438,-0.477478027344
60333053685,0.540588378906,0.136535644531,-0.679077148438,-0.477478027344
60333076219,0.540649414062,0.136535644531,-0.679077148438,-0.477416992188
60333090560,0.540588378906,0.136474609375,-0.679077148438,-0.4775390625
60333113688,0.54052734375,0.136474609375,-0.679077148438,-0.477600097656
60333136204,0.54052734375,0.136474609375,-0.679077148438,-0.477600097656
60333150553,0.540588378906,0.13623046875,-0.679077148438,-0.477600097656
60333173716,0.540588378906,0.13623046875,-0.679077148438,-0.477600097656
60333196163,0.540588378906,0.135864257812,-0.679016113281,-0.477722167969
60333210574,0.540710449219,0.135681152344,-0.678894042969,-0.477905273438
60333233467,0.540832519531,0.135620117188,-0.678588867188,-0.478149414062
60333256215,0.541076660156,0.135681152344,-0.678283691406,-0.478271484375
60333277214,0.541320800781,0.135375976562,-0.678100585938,-0.478332519531
60333293692,0.54150390625,0.135131835938,-0.677978515625,-0.478393554688
60333316224,0.541564941406,0.134948730469,-0.677795410156,-0.478637695312
60333337361,0.541564941406,0.134948730469,-0.677795410156,-0.478637695312
60333353706,0.541625976562,0.134948730469,-0.677795410156,-0.478637695312
60333376210,0.541625976562,0.134948730469,-0.677795410156,-0.478576660156
60333397335,0.541625976562,0.135009765625,-0.677612304688,-0.478820800781
60333413721,0.541625976562,0.135131835938,-0.677490234375,-0.47900390625
60333436153,0.54150390625,0.135314941406,-0.677368164062,-0.479187011719
60333457400,0.541442871094,0.135192871094,-0.677368164062,-0.479370117188
60333473709,0.541442871094,0.135192871094,-0.677368164062,-0.479370117188
60333496215,0.541381835938,0.135314941406,-0.67724609375,-0.4794921875
60333517328,0.541259765625,0.135314941406,-0.67724609375,-0.479736328125
60333533663,0.541198730469,0.135314941406,-0.677124023438,-0.479919433594
60333556162,0.541076660156,0.135314941406,-0.677001953125,-0.480224609375
60333577351,0.541015625,0.135192871094,-0.676940917969,-0.480407714844
60333593687,0.540832519531,0.135070800781,-0.676940917969,-0.480651855469
60333616212,0.540588378906,0.134765625,-0.677001953125,-0.48095703125
60333637338,0.540283203125,0.134704589844,-0.676940917969,-0.481384277344
60333653728,0.539611816406,0.134460449219,-0.676879882812,-0.482299804688
60333676184,0.539001464844,0.134521484375,-0.676513671875,-0.483520507812
60333698688,0.538391113281,0.13525390625,-0.675659179688,-0.485168457031
60333713676,0.536987304688,0.136291503906,-0.674499511719,-0.488037109375
60333736216,0.535400390625,0.138244628906,-0.672912597656,-0.491455078125
60333758693,0.532958984375,0.141296386719,-0.671142578125,-0.495544433594
60333773016,0.529541015625,0.146789550781,-0.669738769531,-0.49951171875
60333796638,0.525085449219,0.154296875,-0.668395996094,-0.503723144531
60333818681,0.518981933594,0.163818359375,-0.667358398438,-0.508422851562
60333833044,0.511657714844,0.176086425781,-0.666198730469,-0.513305664062
60333856227,0.502746582031,0.190307617188,-0.665100097656,-0.518371582031
60333879121,0.492553710938,0.206787109375,-0.663757324219,-0.523559570312
60333892993,0.481262207031,0.223388671875,-0.662048339844,-0.529357910156
60333916222,0.46923828125,0.239807128906,-0.65966796875,-0.535888671875
60333938693,0.455871582031,0.258666992188,-0.655395507812,-0.543823242188
60333959788,0.441528320312,0.279602050781,-0.649658203125,-0.552124023438
60333976182,0.426025390625,0.300964355469,-0.642761230469,-0.561096191406
60333998719,0.409729003906,0.321838378906,-0.635192871094,-0.570129394531
60334019885,0.392272949219,0.340087890625,-0.627258300781,-0.580505371094
60334036165,0.373596191406,0.35791015625,-0.618286132812,-0.591674804688
60334058709,0.355529785156,0.377868652344,-0.607360839844,-0.601623535156
60334087317,0.33935546875,0.398620605469,-0.594909667969,-0.609985351562
60334096192,0.324035644531,0.416015625,-0.583862304688,-0.617309570312
60334118712,0.309020996094,0.426818847656,-0.576721191406,-0.624328613281
60334139890,0.293762207031,0.434387207031,-0.5712890625,-0.631408691406
60334156282,0.280334472656,0.441650390625,-0.565124511719,-0.638000488281
60334178661,0.270141601562,0.449584960938,-0.558044433594,-0.643005371094
60334199873,0.262939453125,0.45703125,-0.552490234375,-0.645629882812
60334216233,0.256713867188,0.462829589844,-0.549377441406,-0.646606445312
60334238688,0.25,0.466857910156,-0.54833984375,-0.647216796875
60334259816,0.242492675781,0.470397949219,-0.547607421875,-0.648132324219
60334283677,0.234741210938,0.474304199219,-0.546142578125,-0.649353027344
60334298419,0.226928710938,0.47802734375,-0.545166015625,-0.650268554688
60334319837,0.219421386719,0.481079101562,-0.545166015625,-0.650573730469
60334336175,0.211608886719,0.484375,-0.545166015625,-0.650695800781
60334358668,0.203857421875,0.488525390625,-0.544006347656,-0.651000976562
60334379862,0.19580078125,0.493347167969,-0.542053222656,-0.651550292969
60334396193,0.185974121094,0.495849609375,-0.539672851562,-0.654479980469
60334418683,0.183532714844,0.495178222656,-0.537414550781,-0.657531738281
60334439813,0.184997558594,0.489807128906,-0.538940429688,-0.659912109375
60334456115,0.189025878906,0.485595703125,-0.540283203125,-0.660766601562
60334478683,0.192687988281,0.485473632812,-0.539733886719,-0.660217285156
60334499781,0.194946289062,0.487670898438,-0.537658691406,-0.65966796875
60334522331,0.19482421875,0.489990234375,-0.534729003906,-0.660339355469
60334538670,0.193054199219,0.490844726562,-0.532958984375,-0.661682128906
60334559869,0.191284179688,0.489624023438,-0.533325195312,-0.662780761719
