60041750279,0.227416992188,0.520568847656,-0.545532226562,-0.6162109375
60041771923,0.23828125,0.515380859375,-0.550231933594,-0.612243652344
60041795672,0.250244140625,0.503051757812,-0.559814453125,-0.609008789062
60041810506,0.265197753906,0.486389160156,-0.572204589844,-0.604675292969
60041825675,0.281677246094,0.465087890625,-0.5859375,-0.600891113281
60041846943,0.299682617188,0.440368652344,-0.600341796875,-0.596557617188
60041878152,0.319030761719,0.412292480469,-0.615295410156,-0.591369628906
60041884539,0.339782714844,0.381408691406,-0.630798339844,-0.584106445312
60041906951,0.361938476562,0.35009765625,-0.644958496094,-0.574951171875
60041929415,0.382202148438,0.318359375,-0.6572265625,-0.566284179688
60041968190,0.398071289062,0.286743164062,-0.668151855469,-0.559387207031
60041977060,0.409729003906,0.255187988281,-0.678100585938,-0.55419921875
60041990764,0.420043945312,0.225463867188,-0.686584472656,-0.548950195312
60042009814,0.43212890625,0.196899414062,-0.692749023438,-0.542785644531
60042028340,0.442749023438,0.172668457031,-0.697204589844,-0.536743164062
60042053299,0.453002929688,0.152648925781,-0.699768066406,-0.530883789062
60042094282,0.461791992188,0.135375976562,-0.701477050781,-0.525695800781
60042104664,0.46875,0.119934082031,-0.702758789062,-0.521667480469
60042110595,0.477844238281,0.10595703125,-0.701965332031,-0.517456054688
60042125633,0.479614257812,0.0964965820312,-0.703125,-0.516052246094
60042148159,0.482055664062,0.088134765625,-0.703918457031,-0.51416015625
60042169283,0.492370605469,0.0791625976562,-0.702026367188,-0.508422851562
60042185617,0.505310058594,0.071044921875,-0.698913574219,-0.501220703125
60042208097,0.510192871094,0.0660400390625,-0.697998046875,-0.498168945312
60042229215,0.504821777344,0.064453125,-0.700073242188,-0.5009765625
60042245582,0.500122070312,0.0635986328125,-0.701354980469,-0.503967285156
60042268122,0.506408691406,0.0597534179688,-0.698913574219,-0.501525878906
60042289102,0.51806640625,0.0541381835938,-0.694641113281,-0.496154785156
60042305559,0.520935058594,0.05126953125,-0.692565917969,-0.496398925781
60042328053,0.523986816406,0.0477905273438,-0.690979003906,-0.495666503906
60042349247,0.527404785156,0.0447998046875,-0.689514160156,-0.494384765625
60042365615,0.530822753906,0.0419311523438,-0.688171386719,-0.492858886719
60042388378,0.534118652344,0.0383911132812,-0.686889648438,-0.491394042969
60042409269,0.537109375,0.03466796875,-0.685668945312,-0.490112304688
60042425635,0.539916992188,0.03125,-0.684448242188,-0.488952636719
60042448107,0.54248046875,0.0283203125,-0.683410644531,-0.487731933594
60042469277,0.544555664062,0.0255737304688,-0.682678222656,-0.486633300781
60042485635,0.545776367188,0.0230712890625,-0.682189941406,-0.486083984375
60042508120,0.54638671875,0.0213012695312,-0.681762695312,-0.486083984375
60042529285,0.546813964844,0.0210571289062,-0.681274414062,-0.486267089844
60042545582,0.546813964844,0.0213012695312,-0.680969238281,-0.486633300781
60042568141,0.546813964844,0.02197265625,-0.680847167969,-0.486877441406
60042589158,0.546691894531,0.0223999023438,-0.680725097656,-0.487060546875
60042605602,0.546691894531,0.0224609375,-0.6806640625,-0.487182617188
60042636306,0.546875,0.0225219726562,-0.680480957031,-0.4873046875
60042649232,0.547119140625,0.0225830078125,-0.680236816406,-0.4873046875
60042665614,0.547546386719,0.02294921875,-0.680053710938,-0.487060546875
60042688233,0.547973632812,0.023193359375,-0.679870605469,-0.48681640625
60042710630,0.548400878906,0.0231323242188,-0.679870605469,-0.486328125
60042725600,0.548889160156,0.02294921875,-0.679748535156,-0.485961914062
60042747490,0.549133300781,0.022705078125,-0.679809570312,-0.485595703125
60042769907,0.549499511719,0.022705078125,-0.679809570312,-0.485229492188
60042784742,0.549682617188,0.0228881835938,-0.679748535156,-0.485107421875
60042807329,0.5498046875,0.0228881835938,-0.6796875,-0.485046386719
60042829771,0.549926757812,0.023193359375,-0.679565429688,-0.484985351562
60042845143,0.549987792969,0.0234985351562,-0.679504394531,-0.485046386719
60042867379,0.550048828125,0.0235595703125,-0.679504394531,-0.484985351562
60042889784,0.550048828125,0.0236206054688,-0.679504394531,-0.484985351562
60042904942,0.549987792969,0.0236206054688,-0.679504394531,-0.484985351562
60042927459,0.549987792969,0.0236206054688,-0.679504394531,-0.485046386719
60042949927,0.549987792969,0.0236206054688,-0.679504394531,-0.485046386719
60042964917,0.549926757812,0.0236206054688,-0.679565429688,-0.485046386719
60042987994,0.549926757812,0.0239868164062,-0.679504394531,-0.485046386719
60043009762,0.549987792969,0.024169921875,-0.679504394531,-0.485046386719
60043026243,0.549987792969,0.0242919921875,-0.679565429688,-0.48486328125
60043047344,0.549987792969,0.0243530273438,-0.679565429688,-0.48486328125
60043061714,0.549987792969,0.0244750976562,-0.679565429688,-0.484924316406
60043084228,0.550048828125,0.0247802734375,-0.679382324219,-0.485046386719
60043107404,0.550170898438,0.0250244140625,-0.67919921875,-0.485229492188
60043121842,0.55029296875,0.025146484375,-0.679077148438,-0.485229492188
60043144265,0.550354003906,0.025390625,-0.678955078125,-0.485290527344
60043167403,0.550354003906,0.025390625,-0.679016113281,-0.485290527344
60043181809,0.550354003906,0.0255737304688,-0.678955078125,-0.485290527344
60043204165,0.550354003906,0.025634765625,-0.678955078125,-0.4853515625
60043226798,0.550415039062,0.0255737304688,-0.678833007812,-0.485412597656
60043241640,0.550537109375,0.02587890625,-0.678649902344,-0.485534667969
60043264186,0.550598144531,0.0262451171875,-0.678405761719,-0.485778808594
60043286590,0.550598144531,0.0264282226562,-0.678283691406,-0.485900878906
60043301596,0.550598144531,0.0264282226562,-0.678283691406,-0.485900878906
60043324104,0.550659179688,0.0265502929688,-0.678161621094,-0.486022949219
60043346741,0.55078125,0.0266723632812,-0.677978515625,-0.486145019531
60043361710,0.550842285156,0.0266723632812,-0.677856445312,-0.486206054688
60043384228,0.550964355469,0.026611328125,-0.677734375,-0.486206054688
60043406604,0.550964355469,0.026611328125,-0.677734375,-0.486206054688
60043421665,0.551025390625,0.02685546875,-0.677673339844,-0.486206054688
60043444174,0.551025390625,0.02685546875,-0.677673339844,-0.486206054688
60043466738,0.551025390625,0.0270385742188,-0.677551269531,-0.486450195312
60043481766,0.551025390625,0.02734375,-0.677490234375,-0.486511230469
60043504251,0.550903320312,0.0277709960938,-0.677429199219,-0.486694335938
60043526792,0.55078125,0.0281372070312,-0.677429199219,-0.48681640625
60043549763,0.550659179688,0.0286865234375,-0.677368164062,-0.486938476562
60043564153,0.550415039062,0.029052734375,-0.677429199219,-0.487182617188
60043586724,0.55029296875,0.0292358398438,-0.677551269531,-0.487182617188
60043601676,0.550170898438,0.029541015625,-0.677673339844,-0.487060546875
60043624231,0.550231933594,0.0301513671875,-0.677673339844,-0.486938476562
60043646750,0.550170898438,0.0307006835938,-0.677673339844,-0.487060546875
60043661769,0.549987792969,0.0308227539062,-0.677490234375,-0.487426757812
60043684266,0.549987792969,0.0310668945312,-0.677368164062,-0.487609863281
60043706620,0.549987792969,0.031494140625,-0.67724609375,-0.487731933594
60043721673,0.550170898438,0.0320434570312,-0.677124023438,-0.487670898438
60043744261,0.550170898438,0.0321655273438,-0.677001953125,-0.487854003906
60043766699,0.550048828125,0.0322265625,-0.676940917969,-0.488037109375
60043781790,0.550048828125,0.0322265625,-0.676940917969,-0.488037109375
60043804073,0.550048828125,0.032470703125,-0.676940917969,-0.488037109375
60043826568,0.550048828125,0.032470703125,-0.676940917969,-0.488037109375
60043841603,0.549987792969,0.0328979492188,-0.6767578125,-0.488342285156
60043864210,0.550109863281,0.0339965820312,-0.676513671875,-0.488464355469
60043886715,0.550109863281,0.0357666015625,-0.676391601562,-0.488525390625
60043901617,0.549377441406,0.0383911132812,-0.676696777344,-0.488708496094
60043924131,0.547485351562,0.0428466796875,-0.677490234375,-0.489379882812
60043946628,0.543701171875,0.0487670898438,-0.679138183594,-0.49072265625
60043963091,0.538513183594,0.0564575195312,-0.681762695312,-0.492004394531
60043984296,0.531921386719,0.067138671875,-0.684875488281,-0.493469238281
60044006595,0.524841308594,0.0818481445312,-0.687866210938,-0.494689941406
60044023074,0.516479492188,0.0994262695312,-0.690612792969,-0.496398925781
60044044261,0.506042480469,0.117736816406,-0.693542480469,-0.499084472656
60044066716,0.493835449219,0.137329101562,-0.695861816406,-0.503051757812
60044091328,0.481018066406,0.159057617188,-0.697082519531,-0.507385253906
60044104181,0.467346191406,0.182006835938,-0.697509765625,-0.511840820312
60044126730,0.452941894531,0.205078125,-0.697204589844,-0.516418457031
60044143068,0.437683105469,0.227172851562,-0.695922851562,-0.522094726562
60044164219,0.421203613281,0.24853515625,-0.693542480469,-0.529052734375
60044186780,0.404846191406,0.270690917969,-0.689208984375,-0.536499023438
60044203099,0.388793945312,0.292541503906,-0.68310546875,-0.544677734375
60044224238,0.37255859375,0.312622070312,-0.676208496094,-0.553344726562
60044246734,0.356506347656,0.33203125,-0.668334960938,-0.562194824219
60044263116,0.341125488281,0.351013183594,-0.659484863281,-0.570617675781
60044284329,0.326477050781,0.369323730469,-0.649841308594,-0.578552246094
60044306616,0.313171386719,0.38720703125,-0.6396484375,-0.585510253906
60044323012,0.301208496094,0.405151367188,-0.628784179688,-0.591430664062
60044344261,0.289855957031,0.420593261719,-0.618713378906,-0.596862792969
60044366842,0.2783203125,0.433410644531,-0.610107421875,-0.60205078125
60044383058,0.267578125,0.444641113281,-0.602783203125,-0.606079101562
60044421227,0.257873535156,0.454711914062,-0.5966796875,-0.60888671875
60044426707,0.249877929688,0.464233398438,-0.59130859375,-0.610290527344
60044458786,0.242980957031,0.4736328125,-0.586242675781,-0.610656738281
60044473753,0.236145019531,0.481689453125,-0.581665039062,-0.611450195312
60044494890,0.228576660156,0.488403320312,-0.578369140625,-0.612121582031
60044511253,0.22119140625,0.492248535156,-0.574462890625,-0.615478515625
60044526275,0.213500976562,0.496887207031,-0.57080078125,-0.617858886719
60044548736,0.2021484375,0.504943847656,-0.567504882812,-0.6181640625
60044563092,0.190185546875,0.506408691406,-0.568359375,-0.619995117188
60044584244,0.177124023438,0.508117675781,-0.567443847656,-0.623291015625
60044606678,0.174499511719,0.50341796875,-0.569519042969,-0.6259765625
60044623032,0.175720214844,0.495422363281,-0.573303222656,-0.628540039062
60044644229,0.181335449219,0.489990234375,-0.574951171875,-0.629699707031
60044666708,0.187866210938,0.492004394531,-0.572448730469,-0.628479003906
60044683094,0.190979003906,0.4970703125,-0.567749023438,-0.627807617188
60044704057,0.190185546875,0.500671386719,-0.563842773438,-0.628723144531
60044727978,0.187927246094,0.501281738281,-0.561950683594,-0.630615234375
60044743004,0.185241699219,0.498291015625,-0.563659667969,-0.632202148438
60044764213,0.182434082031,0.493103027344,-0.567810058594,-0.633361816406
60044786714,0.180297851562,0.4892578125,-0.571228027344,-0.633911132812
60044803027,0.178771972656,0.488403320312,-0.57275390625,-0.633605957031
60044824107,0.177795410156,0.489196777344,-0.573059082031,-0.632995605469
60044846718,0.176940917969,0.490051269531,-0.573303222656,-0.632385253906
60044863068,0.175659179688,0.490112304688,-0.573913574219,-0.632141113281
60044885564,0.174072265625,0.489440917969,-0.574951171875,-0.632141113281
60044900593,0.172546386719,0.488342285156,-0.576232910156,-0.632263183594
60044923053,0.171203613281,0.487426757812,-0.577453613281,-0.632202148438
