59994786452,0.141784667969,0.527038574219,-0.558959960938,-0.624267578125
59994801514,0.141906738281,0.527038574219,-0.558898925781,-0.624328613281
59994822830,0.143249511719,0.525695800781,-0.5595703125,-0.624572753906
59994846519,0.151489257812,0.524047851562,-0.56298828125,-0.620910644531
59994861383,0.1513671875,0.523376464844,-0.563354492188,-0.621154785156
59994882686,0.15478515625,0.52197265625,-0.565307617188,-0.619689941406
59994906389,0.162719726562,0.524291992188,-0.566650390625,-0.614501953125
59994921328,0.164489746094,0.525451660156,-0.566589355469,-0.613098144531
59994967145,0.165222167969,0.528869628906,-0.564758300781,-0.611633300781
59994969287,0.158630371094,0.528198242188,-0.562683105469,-0.615844726562
59994981366,0.156372070312,0.527160644531,-0.562561035156,-0.617431640625
59994999129,0.152221679688,0.522521972656,-0.563720703125,-0.621337890625
59995019205,0.147216796875,0.525268554688,-0.561157226562,-0.622497558594
59995041566,0.14697265625,0.526245117188,-0.561462402344,-0.621520996094
59995085104,0.146911621094,0.526245117188,-0.561462402344,-0.621520996094
59995095310,0.146850585938,0.526245117188,-0.561401367188,-0.62158203125
59995101432,0.146789550781,0.526245117188,-0.561401367188,-0.62158203125
59995116538,0.146301269531,0.5263671875,-0.560852050781,-0.6220703125
59995139023,0.150024414062,0.527954101562,-0.560913085938,-0.619812011719
59995160055,0.150024414062,0.526245117188,-0.561340332031,-0.620910644531
59995183180,0.153930664062,0.525329589844,-0.561889648438,-0.620239257812
59995198986,0.166320800781,0.530151367188,-0.560668945312,-0.613952636719
59995220178,0.181396484375,0.539489746094,-0.557739257812,-0.604125976562
59995243229,0.189392089844,0.543640136719,-0.557861328125,-0.597839355469
59995258939,0.187316894531,0.537902832031,-0.565063476562,-0.596923828125
59995280094,0.190856933594,0.522644042969,-0.582641601562,-0.592407226562
59995303134,0.197875976562,0.502807617188,-0.604309082031,-0.585571289062
59995318909,0.207092285156,0.481201171875,-0.625732421875,-0.577941894531
59995340086,0.216491699219,0.4580078125,-0.649780273438,-0.566711425781
59995363268,0.229736328125,0.43359375,-0.672424316406,-0.554138183594
59995378964,0.243957519531,0.410400390625,-0.692504882812,-0.540893554688
59995401468,0.255737304688,0.383972167969,-0.712524414062,-0.528625488281
59995416578,0.264892578125,0.353942871094,-0.731628417969,-0.518920898438
59995438903,0.271362304688,0.31982421875,-0.749755859375,-0.511840820312
59995461436,0.275451660156,0.283935546875,-0.76611328125,-0.506591796875
59995476439,0.278564453125,0.250915527344,-0.779602050781,-0.501708984375
59995498943,0.279968261719,0.221557617188,-0.790405273438,-0.497863769531
59995521899,0.279357910156,0.19384765625,-0.799133300781,-0.495788574219
59995543241,0.276733398438,0.167419433594,-0.806335449219,-0.495239257812
59995558910,0.272644042969,0.142395019531,-0.812377929688,-0.495422363281
59995581466,0.267700195312,0.118225097656,-0.817260742188,-0.496459960938
59995596445,0.263061523438,0.0960693359375,-0.820678710938,-0.498107910156
59995618997,0.259704589844,0.076416015625,-0.822631835938,-0.500061035156
59995641469,0.256958007812,0.0582275390625,-0.8232421875,-0.502868652344
59995663338,0.254943847656,0.0440673828125,-0.822082519531,-0.50732421875
59995678948,0.253845214844,0.034423828125,-0.819458007812,-0.512817382812
59995701455,0.253784179688,0.0299072265625,-0.816040039062,-0.5185546875
59995723206,0.255249023438,0.02978515625,-0.8115234375,-0.524780273438
59995738937,0.258239746094,0.0336303710938,-0.805908203125,-0.53173828125
59995761434,0.264526367188,0.0418701171875,-0.798522949219,-0.539184570312
59995782598,0.274780273438,0.0556030273438,-0.788696289062,-0.547180175781
59995805684,0.288146972656,0.075439453125,-0.777099609375,-0.554504394531
59995820643,0.302856445312,0.100891113281,-0.763732910156,-0.561157226562
59995834973,0.318115234375,0.129455566406,-0.74755859375,-0.568603515625
59995858204,0.332397460938,0.159423828125,-0.729675292969,-0.575927734375
59995880778,0.3466796875,0.190612792969,-0.711181640625,-0.581176757812
59995895107,0.359741210938,0.221069335938,-0.693176269531,-0.584167480469
59995918341,0.372924804688,0.250915527344,-0.675903320312,-0.584106445312
59995940642,0.385498046875,0.278503417969,-0.659729003906,-0.581970214844
59995955092,0.396545410156,0.303649902344,-0.645751953125,-0.577575683594
59995977642,0.405944824219,0.3271484375,-0.634643554688,-0.570495605469
59996009669,0.414306640625,0.348083496094,-0.62646484375,-0.56103515625
59996023281,0.42236328125,0.364379882812,-0.621520996094,-0.550048828125
59996037534,0.431091308594,0.373779296875,-0.620666503906,-0.537780761719
59996060034,0.43994140625,0.377075195312,-0.623840332031,-0.524475097656
59996083921,0.448669433594,0.374267578125,-0.628967285156,-0.512878417969
59996097687,0.457641601562,0.367797851562,-0.636047363281,-0.500732421875
59996120037,0.469970703125,0.361022949219,-0.642517089844,-0.485778808594
59996137893,0.482238769531,0.353820800781,-0.650634765625,-0.467895507812
59996157655,0.495300292969,0.343566894531,-0.658386230469,-0.450805664062
59996180821,0.507080078125,0.32958984375,-0.66552734375,-0.437377929688
59996195122,0.517822265625,0.312927246094,-0.671264648438,-0.42822265625
59996217576,0.525268554688,0.297302246094,-0.676818847656,-0.421447753906
59996240771,0.530517578125,0.283752441406,-0.68115234375,-0.417175292969
59996255109,0.5341796875,0.275329589844,-0.684509277344,-0.412658691406
59996277572,0.536804199219,0.270690917969,-0.686584472656,-0.408935546875
59996300611,0.537658691406,0.268615722656,-0.688049316406,-0.406616210938
59996314934,0.536682128906,0.268310546875,-0.689025878906,-0.406494140625
59996337448,0.534790039062,0.269348144531,-0.689208984375,-0.408081054688
59996360752,0.532653808594,0.271484375,-0.688598632812,-0.410400390625
59996375099,0.530639648438,0.275085449219,-0.6875,-0.412536621094
59996397631,0.528259277344,0.279357910156,-0.686401367188,-0.414367675781
59996420613,0.525451660156,0.283508300781,-0.685424804688,-0.416748046875
59996434957,0.522827148438,0.287292480469,-0.684204101562,-0.419494628906
59996457594,0.520874023438,0.290222167969,-0.682983398438,-0.421936035156
59996480738,0.519653320312,0.292602539062,-0.681884765625,-0.423522949219
59996495110,0.518981933594,0.294799804688,-0.680908203125,-0.424377441406
59996517511,0.518676757812,0.296813964844,-0.679992675781,-0.424926757812
59996540779,0.518310546875,0.297729492188,-0.679382324219,-0.425659179688
59996555121,0.517639160156,0.297546386719,-0.679443359375,-0.426452636719
59996577570,0.51708984375,0.297302246094,-0.679809570312,-0.426818847656
59996600661,0.516723632812,0.297668457031,-0.679931640625,-0.426696777344
59996615012,0.5166015625,0.298278808594,-0.680114746094,-0.426086425781
59996637630,0.5166015625,0.298706054688,-0.680297851562,-0.425537109375
59996660785,0.516357421875,0.298767089844,-0.680541992188,-0.425415039062
59996675137,0.515991210938,0.298645019531,-0.680786132812,-0.425537109375
59996697722,0.515625,0.298583984375,-0.681091308594,-0.425598144531
59996713928,0.515258789062,0.299011230469,-0.68115234375,-0.425598144531
59996735090,0.5146484375,0.299682617188,-0.681091308594,-0.425964355469
59996757613,0.513977050781,0.300659179688,-0.680908203125,-0.426391601562
59996773932,0.51318359375,0.301391601562,-0.680786132812,-0.427001953125
59996795044,0.512878417969,0.302978515625,-0.680419921875,-0.426879882812
59996817469,0.511779785156,0.304443359375,-0.680297851562,-0.427307128906
59996833931,0.510620117188,0.305847167969,-0.679870605469,-0.428466796875
59996854919,0.509399414062,0.307312011719,-0.678955078125,-0.430236816406
59996877679,0.507751464844,0.307922363281,-0.678283691406,-0.432800292969
59996899970,0.505187988281,0.308654785156,-0.678039550781,-0.435668945312
59996914979,0.501708984375,0.309753417969,-0.678344726562,-0.438415527344
59996937566,0.49755859375,0.311828613281,-0.678771972656,-0.440979003906
59996960008,0.493286132812,0.315490722656,-0.678894042969,-0.442993164062
59996975079,0.488525390625,0.320190429688,-0.678527832031,-0.445495605469
59996997680,0.483337402344,0.324829101562,-0.678161621094,-0.448364257812
59997019970,0.477661132812,0.328979492188,-0.678100585938,-0.451477050781
59997035022,0.471496582031,0.333435058594,-0.678161621094,-0.45458984375
59997057638,0.464782714844,0.338623046875,-0.678283691406,-0.457458496094
59997073937,0.45751953125,0.344421386719,-0.678283691406,-0.460388183594
59997095079,0.449279785156,0.350036621094,-0.678466796875,-0.464050292969
59997117462,0.440307617188,0.355712890625,-0.678344726562,-0.468444824219
59997133915,0.430603027344,0.36181640625,-0.677917480469,-0.473388671875
59997155081,0.41943359375,0.368225097656,-0.677673339844,-0.478820800781
59997177606,0.407409667969,0.375122070312,-0.67724609375,-0.484375
59997195372,0.394470214844,0.381652832031,-0.676940917969,-0.490417480469
59997215114,0.380798339844,0.388488769531,-0.67626953125,-0.496765136719
59997237569,0.366821289062,0.396118164062,-0.674377441406,-0.503723144531
59997253915,0.352416992188,0.404418945312,-0.671508789062,-0.51123046875
59997275075,0.33740234375,0.41259765625,-0.668212890625,-0.519104003906
59997297571,0.321655273438,0.421264648438,-0.664428710938,-0.526916503906
59997313939,0.304809570312,0.430603027344,-0.659912109375,-0.534973144531
59997334938,0.287353515625,0.440307617188,-0.654418945312,-0.543395996094
59997357437,0.269592285156,0.449096679688,-0.648071289062,-0.552856445312
59997380066,0.251159667969,0.457214355469,-0.641235351562,-0.562805175781
59997395196,0.232421875,0.464172363281,-0.634582519531,-0.572631835938
59997417450,0.21533203125,0.471984863281,-0.627319335938,-0.580810546875
59997433885,0.19970703125,0.479919433594,-0.620178222656,-0.587524414062
59997455016,0.185668945312,0.488098144531,-0.613159179688,-0.5927734375
59997477470,0.172790527344,0.497009277344,-0.605407714844,-0.597229003906
59997493879,0.161071777344,0.507141113281,-0.596496582031,-0.600891113281
59997517910,0.150207519531,0.515625,-0.589416503906,-0.603515625
59997537571,0.139221191406,0.521057128906,-0.585998535156,-0.604797363281
59997553919,0.12744140625,0.525085449219,-0.584411621094,-0.605407714844
59997575093,0.113342285156,0.52734375,-0.582580566406,-0.608032226562
59997597431,0.107849121094,0.528564453125,-0.578796386719,-0.611572265625
59997613902,0.109130859375,0.5263671875,-0.577758789062,-0.614196777344
59997636480,0.112548828125,0.520812988281,-0.579650878906,-0.616577148438
59997658886,0.1162109375,0.517822265625,-0.580627441406,-0.617492675781
59997673916,0.11767578125,0.518249511719,-0.580139160156,-0.617309570312
59997696394,0.116638183594,0.520751953125,-0.577941894531,-0.617431640625
59997717458,0.11376953125,0.523498535156,-0.575134277344,-0.618225097656
59997733892,0.111083984375,0.524536132812,-0.573669433594,-0.619201660156
59997756479,0.109436035156,0.52294921875,-0.574645996094,-0.619934082031
59997777578,0.108520507812,0.520263671875,-0.576599121094,-0.620544433594
59997793940,0.1083984375,0.518615722656,-0.577392578125,-0.621215820312
59997816427,0.108764648438,0.518432617188,-0.577026367188,-0.621643066406
59997837432,0.109191894531,0.518981933594,-0.576110839844,-0.621948242188
59997853915,0.109619140625,0.519714355469,-0.574951171875,-0.622314453125
59997876423,0.109985351562,0.520263671875,-0.573852539062,-0.622924804688
59997897432,0.1103515625,0.520324707031,-0.572875976562,-0.623657226562
59997913913,0.11083984375,0.520141601562,-0.572143554688,-0.624328613281
59997936413,0.111389160156,0.520080566406,-0.571472167969,-0.624938964844
