59626280863,-0.209411621094,-0.401184082031,0.466735839844,0.759826660156
59626295780,-0.209350585938,-0.401184082031,0.466735839844,0.759826660156
59626319657,-0.209350585938,-0.401184082031,0.466735839844,0.759826660156
59626340773,-0.20751953125,-0.404174804688,0.46630859375,0.759033203125
59626355883,-0.198669433594,-0.405700683594,0.46337890625,0.762329101562
59626379534,-0.196655273438,-0.405822753906,0.462768554688,0.76318359375
59626400864,-0.194641113281,-0.4052734375,0.462463378906,0.76416015625
59626415843,-0.194030761719,-0.404296875,0.462707519531,0.764709472656
59626439570,-0.199890136719,-0.402404785156,0.465209960938,0.7626953125
59626468982,-0.208740234375,-0.404052734375,0.466979980469,0.75830078125
59626469804,-0.209594726562,-0.404907226562,0.466857910156,0.757751464844
59626500865,-0.203979492188,-0.406677246094,0.464416503906,0.759765625
59626506484,-0.195617675781,-0.404296875,0.463012695312,0.764099121094
59626530248,-0.195129394531,-0.405944824219,0.46240234375,0.763732910156
59626551496,-0.194763183594,-0.405944824219,0.462707519531,0.763671875
59626567945,-0.194763183594,-0.405700683594,0.462951660156,0.763610839844
59626603233,-0.19482421875,-0.405700683594,0.462951660156,0.763610839844
59626627711,-0.194885253906,-0.405639648438,0.463012695312,0.763549804688
59626628490,-0.195556640625,-0.4052734375,0.463745117188,0.76318359375
59626648178,-0.19677734375,-0.401245117188,0.4658203125,0.763671875
59626664519,-0.189208984375,-0.401977539062,0.463562011719,0.7666015625
59626688534,-0.187194824219,-0.401611328125,0.463134765625,0.767578125
59626708195,-0.186218261719,-0.400695800781,0.463195800781,0.768188476562
59626725997,-0.190856933594,-0.398498535156,0.465454101562,0.766845703125
59626748441,-0.199951171875,-0.399963378906,0.467407226562,0.762573242188
59626768202,-0.200988769531,-0.40087890625,0.46728515625,0.761901855469
59626786010,-0.195739746094,-0.402648925781,0.464965820312,0.763732910156
59626808484,-0.187377929688,-0.400512695312,0.463500976562,0.767822265625
59626828171,-0.182373046875,-0.401184082031,0.462036132812,0.769592285156
59626845982,-0.182861328125,-0.400451660156,0.462036132812,0.769897460938
59626868494,-0.183471679688,-0.400329589844,0.46240234375,0.76953125
59626888174,-0.183959960938,-0.400329589844,0.462646484375,0.769287109375
59626905956,-0.18408203125,-0.400329589844,0.462707519531,0.769226074219
59626928493,-0.184204101562,-0.400329589844,0.462707519531,0.769165039062
59626948200,-0.184936523438,-0.400512695312,0.462768554688,0.768920898438
59626965936,-0.185119628906,-0.400512695312,0.462829589844,0.768798828125
59626988491,-0.185302734375,-0.400512695312,0.462829589844,0.768737792969
59627025082,-0.185424804688,-0.400512695312,0.462890625,0.768737792969
59627027515,-0.185546875,-0.400512695312,0.462951660156,0.768676757812
59627048448,-0.185668945312,-0.400512695312,0.462951660156,0.768615722656
59627069515,-0.185791015625,-0.400512695312,0.463012695312,0.7685546875
59627092039,-0.185913085938,-0.400512695312,0.463012695312,0.768493652344
59627108479,-0.1865234375,-0.400756835938,0.463073730469,0.768188476562
59627136988,-0.187255859375,-0.401550292969,0.462890625,0.767700195312
59627146001,-0.189575195312,-0.403625488281,0.461791992188,0.766723632812
59627168520,-0.195007324219,-0.406494140625,0.45947265625,0.765258789062
59627189518,-0.202514648438,-0.409240722656,0.456604003906,0.763549804688
59627211349,-0.210632324219,-0.411682128906,0.453979492188,0.761596679688
59627227662,-0.2177734375,-0.412963867188,0.451782226562,0.760192871094
59627248786,-0.223815917969,-0.412048339844,0.450134277344,0.759887695312
59627271310,-0.230224609375,-0.408508300781,0.450317382812,0.759826660156
59627293832,-0.239807128906,-0.403564453125,0.45166015625,0.758666992188
59627308687,-0.252746582031,-0.397094726562,0.45361328125,0.756713867188
59627331295,-0.267822265625,-0.388427734375,0.455749511719,0.754760742188
59627347696,-0.283569335938,-0.377624511719,0.458984375,0.752502441406
59627368876,-0.299743652344,-0.365478515625,0.463500976562,0.749450683594
59627384511,-0.316223144531,-0.351867675781,0.468994140625,0.745788574219
59627407629,-0.332885742188,-0.336730957031,0.4755859375,0.741333007812
59627430216,-0.348327636719,-0.320983886719,0.482788085938,0.736572265625
59627444535,-0.363708496094,-0.305419921875,0.489685058594,0.731201171875
59627467735,-0.379028320312,-0.289123535156,0.495849609375,0.725830078125
59627490148,-0.392822265625,-0.27099609375,0.502380371094,0.721008300781
59627504530,-0.4052734375,-0.251892089844,0.509399414062,0.716064453125
59627527692,-0.417541503906,-0.232849121094,0.515930175781,0.710815429688
59627550179,-0.430053710938,-0.213439941406,0.521484375,0.705383300781
59627564484,-0.442504882812,-0.193969726562,0.527160644531,0.699035644531
59627593890,-0.453979492188,-0.173767089844,0.533264160156,0.692321777344
59627610185,-0.464172363281,-0.152648925781,0.539367675781,0.685791015625
59627632664,-0.47412109375,-0.131958007812,0.544250488281,0.679382324219
59627653811,-0.482727050781,-0.111450195312,0.547973632812,0.674011230469
59627669477,-0.490539550781,-0.093017578125,0.550720214844,0.668884277344
59627692786,-0.49853515625,-0.07666015625,0.552551269531,0.663513183594
59627713928,-0.505798339844,-0.0614624023438,0.553527832031,0.658752441406
59627730163,-0.511535644531,-0.0470581054688,0.554260253906,0.654907226562
59627752658,-0.516723632812,-0.0338134765625,0.554809570312,0.651123046875
59627773936,-0.521423339844,-0.02197265625,0.555236816406,0.647521972656
59627790251,-0.525268554688,-0.01123046875,0.555480957031,0.64453125
59627812679,-0.528503417969,-0.002197265625,0.555480957031,0.641906738281
59627833774,-0.531311035156,0.0045166015625,0.555114746094,0.639953613281
59627849528,-0.533752441406,0.010009765625,0.554565429688,0.638305664062
59627872694,-0.535949707031,0.014892578125,0.5537109375,0.637084960938
59627895170,-0.538024902344,0.019775390625,0.552795410156,0.635986328125
59627909492,-0.539428710938,0.0234375,0.551818847656,0.635498046875
59627932639,-0.540893554688,0.0257568359375,0.550415039062,0.635437011719
59627955164,-0.542053222656,0.0272216796875,0.548706054688,0.635803222656
59627969485,-0.542785644531,0.0283813476562,0.547058105469,0.636657714844
59627992637,-0.543212890625,0.0293579101562,0.545288085938,0.6376953125
59628015196,-0.544006347656,0.0294189453125,0.543395996094,0.638610839844
59628030160,-0.544921875,0.029052734375,0.541564941406,0.639465332031
59628052697,-0.545654296875,0.0283203125,0.539855957031,0.640319824219
59628075166,-0.546142578125,0.0279541015625,0.53857421875,0.640991210938
59628089521,-0.546203613281,0.028076171875,0.537536621094,0.641784667969
59628112661,-0.54638671875,0.0277709960938,0.536804199219,0.642211914062
59628135203,-0.546691894531,0.0277709960938,0.536437988281,0.642272949219
59628149536,-0.546630859375,0.0283813476562,0.536499023438,0.642333984375
59628172661,-0.546691894531,0.029052734375,0.536865234375,0.641906738281
59628195141,-0.546630859375,0.0296020507812,0.537231445312,0.641662597656
59628209447,-0.546508789062,0.030029296875,0.537719726562,0.641296386719
59628232684,-0.546508789062,0.0303955078125,0.538208007812,0.640808105469
59628255143,-0.546752929688,0.0305786132812,0.538635253906,0.640319824219
59628269489,-0.546813964844,0.03076171875,0.539001464844,0.639953613281
59628292635,-0.546630859375,0.0309448242188,0.539489746094,0.6396484375
59628322608,-0.54638671875,0.0309448242188,0.539916992188,0.639465332031
59628329461,-0.546508789062,0.0305786132812,0.540222167969,0.63916015625
59628352639,-0.546630859375,0.0304565429688,0.540405273438,0.638916015625
59628375165,-0.546691894531,0.03076171875,0.540710449219,0.638549804688
59628396228,-0.546752929688,0.0308227539062,0.540954589844,0.638305664062
59628412636,-0.546691894531,0.0308837890625,0.541198730469,0.638122558594
59628435252,-0.546875,0.031005859375,0.541320800781,0.637878417969
59628456355,-0.547119140625,0.0313720703125,0.541320800781,0.637634277344
59628472661,-0.547058105469,0.0320434570312,0.541381835938,0.637634277344
59628495122,-0.547119140625,0.0325317382812,0.54150390625,0.637390136719
59628516286,-0.547180175781,0.0325927734375,0.54150390625,0.637390136719
59628532681,-0.547180175781,0.0325927734375,0.54150390625,0.637390136719
59628555134,-0.547119140625,0.0330200195312,0.541625976562,0.637329101562
59628576284,-0.547180175781,0.0332641601562,0.541687011719,0.63720703125
59628592637,-0.547241210938,0.0333251953125,0.541687011719,0.637145996094
59628615179,-0.547302246094,0.0333251953125,0.541687011719,0.637145996094
59628636286,-0.547302246094,0.0333862304688,0.541564941406,0.63720703125
59628652638,-0.54736328125,0.0333251953125,0.541259765625,0.637390136719
59628675135,-0.547546386719,0.032958984375,0.540893554688,0.637573242188
59628696292,-0.547546386719,0.03271484375,0.540588378906,0.637817382812
59628712650,-0.547668457031,0.032470703125,0.540344238281,0.638000488281
59628735122,-0.547668457031,0.0323486328125,0.540100097656,0.63818359375
59628756293,-0.547668457031,0.031982421875,0.539855957031,0.638427734375
59628772668,-0.547790527344,0.0315551757812,0.53955078125,0.638610839844
59628795133,-0.547973632812,0.0313110351562,0.539245605469,0.638671875
59628816127,-0.547973632812,0.0313720703125,0.5390625,0.638854980469
59628832660,-0.548095703125,0.0313110351562,0.5390625,0.638732910156
59628855147,-0.548034667969,0.031005859375,0.539001464844,0.638793945312
59628878078,-0.548156738281,0.030517578125,0.538879394531,0.638854980469
59628892662,-0.548095703125,0.0303344726562,0.539001464844,0.638793945312
59628915211,-0.548095703125,0.030029296875,0.539123535156,0.638732910156
59628937663,-0.548217773438,0.0298461914062,0.539123535156,0.638610839844
59628951995,-0.548217773438,0.0299072265625,0.539123535156,0.638610839844
59628975162,-0.548278808594,0.0299072265625,0.539123535156,0.638610839844
59628997667,-0.548278808594,0.0299682617188,0.539123535156,0.638549804688
59629012667,-0.54833984375,0.0299682617188,0.539123535156,0.638549804688
59629035182,-0.548400878906,0.0296630859375,0.539001464844,0.638610839844
59629057669,-0.548461914062,0.029541015625,0.538879394531,0.638671875
59629078768,-0.548461914062,0.0294189453125,0.538818359375,0.638671875
59629095140,-0.548461914062,0.0293579101562,0.538879394531,0.638671875
59629118093,-0.548461914062,0.029296875,0.539001464844,0.638610839844
59629131957,-0.548461914062,0.029296875,0.539001464844,0.638610839844
59629155129,-0.548461914062,0.029296875,0.539001464844,0.638549804688
59629177662,-0.548583984375,0.029052734375,0.538818359375,0.638610839844
59629191988,-0.548645019531,0.02880859375,0.538635253906,0.638732910156
59629215140,-0.548706054688,0.028564453125,0.53857421875,0.638793945312
59629238149,-0.548706054688,0.0283813476562,0.538452148438,0.638854980469
59629251990,-0.548767089844,0.0283203125,0.538391113281,0.638916015625
59629275126,-0.548767089844,0.0283203125,0.538391113281,0.638854980469
59629297610,-0.548889160156,0.0283203125,0.538208007812,0.638916015625
59629312010,-0.548950195312,0.0282592773438,0.538024902344,0.639038085938
59629335128,-0.549133300781,0.0281372070312,0.537841796875,0.639038085938
59629357631,-0.549377441406,0.0280151367188,0.537658691406,0.638977050781
59629378859,-0.549377441406,0.0280151367188,0.537658691406,0.638977050781
59629395261,-0.549377441406,0.0280151367188,0.537658691406,0.638916015625
59629417629,-0.549438476562,0.0280151367188,0.537658691406,0.638916015625
59629438847,-0.549438476562,0.0280151367188,0.537658691406,0.638916015625
59629455113,-0.549499511719,0.028076171875,0.537658691406,0.638916015625
59629477640,-0.549499511719,0.028076171875,0.537658691406,0.638916015625
59629498763,-0.549499511719,0.028076171875,0.53759765625,0.638854980469
59629515590,-0.549499511719,0.02783203125,0.537536621094,0.638916015625
59629537670,-0.549499511719,0.02783203125,0.537536621094,0.638977050781
59629558802,-0.549438476562,0.0276489257812,0.537475585938,0.639038085938
59629575138,-0.549377441406,0.0272216796875,0.537414550781,0.639221191406
59629598093,-0.549072265625,0.0267333984375,0.537353515625,0.639526367188
59629618847,-0.548767089844,0.0260620117188,0.537231445312,0.639892578125
59629625624,-0.548278808594,0.0252685546875,0.537170410156,0.640441894531
59629640513,-0.547729492188,0.0241088867188,0.537109375,0.640991210938
59629663220,-0.546936035156,0.0225219726562,0.537109375,0.641723632812
59629685697,-0.546081542969,0.0203857421875,0.536865234375,0.642700195312
59629700508,-0.544799804688,0.0173950195312,0.536376953125,0.644287109375
59629723135,-0.542419433594,0.013427734375,0.536193847656,0.646606445312
59629754463,-0.539001464844,0.00750732421875,0.53662109375,0.649169921875
59629760609,-0.534851074219,-0.00048828125,0.53759765625,0.65185546875
59629783213,-0.530151367188,-0.0103759765625,0.53857421875,0.65478515625
59629805776,-0.52490234375,-0.0228271484375,0.539306640625,0.658081054688
59629820668,-0.518615722656,-0.0377807617188,0.539916992188,0.661865234375
59629843086,-0.510559082031,-0.0542602539062,0.540588378906,0.666442871094
59629865575,-0.501098632812,-0.072265625,0.541259765625,0.671325683594
59629880582,-0.490539550781,-0.0921630859375,0.542114257812,0.675964355469
59629903021,-0.479187011719,-0.113586425781,0.542602539062,0.680419921875
59629925614,-0.467712402344,-0.136779785156,0.542358398438,0.684387207031
59629940613,-0.455810546875,-0.160888671875,0.540832519531,0.688293457031
59629963229,-0.443054199219,-0.184753417969,0.538513183594,0.692504882812
59629985684,-0.429321289062,-0.206665039062,0.535766601562,0.697082519531
59630000628,-0.414367675781,-0.227111816406,0.532836914062,0.701965332031
59630023069,-0.398315429688,-0.246154785156,0.529174804688,0.707580566406
59630045767,-0.382080078125,-0.265075683594,0.524963378906,0.712829589844
59630060641,-0.367126464844,-0.283142089844,0.520080566406,0.71728515625
59630083163,-0.353332519531,-0.299743652344,0.51513671875,0.721069335938
59630108450,-0.339660644531,-0.315551757812,0.509643554688,0.724792480469
59630120584,-0.326171875,-0.330383300781,0.503540039062,0.728576660156
59630143048,-0.3125,-0.343933105469,0.497009277344,0.732788085938
59630165715,-0.299072265625,-0.355285644531,0.491638183594,0.736633300781
59630180651,-0.286804199219,-0.365478515625,0.486572265625,0.739868164062
59630203120,-0.275939941406,-0.374328613281,0.481689453125,0.742736816406
59630225495,-0.266052246094,-0.380981445312,0.478210449219,0.745239257812
59630240582,-0.25830078125,-0.386840820312,0.475891113281,0.746459960938
59630263089,-0.252258300781,-0.391967773438,0.47412109375,0.746948242188
59630285767,-0.247863769531,-0.39599609375,0.472900390625,0.7470703125
59630300603,-0.244262695312,-0.399047851562,0.472106933594,0.7470703125
59630323171,-0.242004394531,-0.401245117188,0.472045898438,0.746704101562
59630348441,-0.240295410156,-0.402954101562,0.472473144531,0.74609375
59630360617,-0.238952636719,-0.404663085938,0.472778320312,0.745361328125
59630383279,-0.237609863281,-0.405944824219,0.473388671875,0.744750976562
59630400933,-0.235900878906,-0.406555175781,0.474426269531,0.744262695312
59630421935,-0.234313964844,-0.407104492188,0.475341796875,0.743896484375
59630443172,-0.2333984375,-0.408264160156,0.4755859375,0.743408203125
59630460921,-0.232543945312,-0.40966796875,0.475646972656,0.742797851562
59630481964,-0.231262207031,-0.411071777344,0.475524902344,0.742553710938
59630503126,-0.229248046875,-0.411437988281,0.475524902344,0.742980957031
59630520943,-0.227172851562,-0.410095214844,0.476379394531,0.743774414062
59630542007,-0.225952148438,-0.408264160156,0.477600097656,0.744384765625
59630563088,-0.225769042969,-0.4072265625,0.478698730469,0.744323730469
59630580918,-0.2255859375,-0.406982421875,0.4794921875,0.744018554688
59630601999,-0.224548339844,-0.406921386719,0.480346679688,0.743774414062
59630623247,-0.221862792969,-0.406555175781,0.481567382812,0.744018554688
59630640934,-0.218444824219,-0.406188964844,0.482727050781,0.744506835938
59630661917,-0.215270996094,-0.406005859375,0.4833984375,0.745056152344
59630683096,-0.212646484375,-0.405700683594,0.483642578125,0.745788574219
59630700884,-0.210815429688,-0.405395507812,0.483703613281,0.746459960938
59630721918,-0.209716796875,-0.405639648438,0.483581542969,0.746704101562
59630745894,-0.208862304688,-0.406372070312,0.483459472656,0.746643066406
59630760950,-0.207458496094,-0.406982421875,0.483337402344,0.746765136719
