59918219095,0.45947265625,-0.79296875,0.38134765625
59918234455,0.45849609375,-0.7900390625,0.38818359375
59918257930,0.3486328125,-0.7412109375,0.13720703125
59918279294,1.17919921875,-0.6357421875,0.376953125
59918294121,0.29833984375,-0.72412109375,-0.1005859375
59918317751,0.7431640625,-0.63232421875,0.30224609375
59918339205,1.15283203125,-0.58349609375,0.94970703125
59918354221,1.0146484375,-0.70458984375,1.171875
59918392188,0.384765625,-0.91357421875,0.6982421875
59918407355,-0.1796875,-1.0205078125,-0.06689453125
59918420191,-0.1630859375,-0.916015625,-0.43017578125
59918437238,0.439453125,-0.7001953125,-0.03955078125
59918461020,0.12158203125,-0.8779296875,0.5458984375
59918475978,0.5166015625,-0.818359375,0.4296875
59918497409,0.4619140625,-0.80029296875,0.37841796875
59918533969,0.45703125,-0.80029296875,0.380859375
59918544184,0.45458984375,-0.7890625,0.3798828125
59918557828,0.529296875,-0.7890625,0.44775390625
59918578951,0.77587890625,-0.6767578125,0.09375
59918595359,-0.33056640625,-0.9814453125,-0.056640625
59918617836,-0.27734375,-0.99267578125,-0.25390625
59918638890,-0.04150390625,-0.86474609375,-0.36962890625
59918662159,0.599609375,-0.66064453125,0.13671875
59918677823,1.125,-0.576171875,0.89111328125
59918698912,1.02197265625,-0.693359375,1.19140625
59918715319,0.3466796875,-0.9150390625,0.68359375
59918737864,-0.21533203125,-1.0166015625,-0.146484375
59918758966,-0.20654296875,-0.91845703125,-0.076171875
59918775365,0.52880859375,-0.8203125,0.42578125
59918797850,0.47900390625,-0.78271484375,0.39501953125
59918818872,0.46826171875,-0.7890625,0.38671875
59918835372,0.44921875,-0.80126953125,0.38720703125
59918857187,0.447265625,-0.80908203125,0.38427734375
59918879777,0.458984375,-0.81787109375,0.38232421875
59918894654,0.46826171875,-0.81689453125,0.40087890625
59918917207,0.4931640625,-0.80810546875,0.39501953125
59918940127,0.48583984375,-0.81640625,0.39404296875
59918954644,0.45947265625,-0.90576171875,0.40478515625
59918977143,0.4892578125,-0.99462890625,0.41162109375
59918999589,0.4853515625,-0.99169921875,0.431640625
59919014545,0.427734375,-0.98974609375,0.4296875
59919037062,0.35009765625,-0.99755859375,0.42138671875
59919059717,0.298828125,-1.001953125,0.431640625
59919074619,0.24853515625,-1.00537109375,0.43359375
59919097057,0.19580078125,-1.00830078125,0.41796875
59919119680,0.14599609375,-1.0078125,0.4150390625
59919134492,0.08447265625,-0.974609375,0.41259765625
59919157086,0.0166015625,-0.9892578125,0.416015625
59919179732,-0.0419921875,-0.98046875,0.40771484375
59919194672,-0.10400390625,-0.943359375,0.40576171875
59919217216,-0.12451171875,-0.9169921875,0.4072265625
59919239698,-0.17724609375,-0.89501953125,0.4033203125
59919254705,-0.24462890625,-0.89013671875,0.39013671875
59919277139,-0.3115234375,-0.853515625,0.38427734375
59919316638,-0.310546875,-0.81591796875,0.3876953125
59919317465,-0.3271484375,-0.79052734375,0.39599609375
59919337083,-0.35693359375,-0.74609375,0.40234375
59919359565,-0.40478515625,-0.7001953125,0.3984375
59919374715,-0.47509765625,-0.6796875,0.38330078125
59919397057,-0.47216796875,-0.685546875,0.37548828125
59919419692,-0.45849609375,-0.69580078125,0.36767578125
59919434703,-0.498046875,-0.6435546875,0.3603515625
59919457221,-0.51708984375,-0.63037109375,0.35595703125
59919471540,-0.5322265625,-0.625,0.3642578125
59919494670,-0.5517578125,-0.6142578125,0.37109375
59919517135,-0.5595703125,-0.6015625,0.3642578125
59919532838,-0.57373046875,-0.59716796875,0.369140625
59919555996,-0.603515625,-0.59619140625,0.3740234375
59919584493,-0.6279296875,-0.59228515625,0.3623046875
59919592781,-0.6220703125,-0.583984375,0.38037109375
59919615922,-0.62939453125,-0.56396484375,0.38134765625
59919637032,-0.62890625,-0.58447265625,0.37646484375
59919653465,-0.6484375,-0.58740234375,0.3720703125
59919675988,-0.654296875,-0.58349609375,0.3759765625
59919697253,-0.66357421875,-0.56689453125,0.37451171875
59919712805,-0.67822265625,-0.54052734375,0.38818359375
59919735978,-0.71875,-0.5361328125,0.40576171875
59919757193,-0.7607421875,-0.53564453125,0.404296875
59919773357,-0.72705078125,-0.54248046875,0.39501953125
59919803467,-0.7177734375,-0.58203125,0.40087890625
59919817118,-0.7041015625,-0.609375,0.390625
59919832857,-0.71337890625,-0.6328125,0.39111328125
59919855959,-0.71337890625,-0.640625,0.3720703125
59919877167,-0.697265625,-0.6474609375,0.37353515625
59919892836,-0.70654296875,-0.67333984375,0.37255859375
59919915963,-0.6982421875,-0.66357421875,0.38037109375
59919937148,-0.70361328125,-0.650390625,0.38037109375
59919952835,-0.71337890625,-0.64306640625,0.38134765625
59919975994,-0.69140625,-0.64794921875,0.3916015625
59919996988,-0.689453125,-0.63427734375,0.38916015625
59920012753,-0.693359375,-0.638671875,0.38525390625
59920035910,-0.69287109375,-0.64111328125,0.39013671875
59920057221,-0.69189453125,-0.63427734375,0.38818359375
59920072796,-0.6845703125,-0.6318359375,0.37646484375
59920096018,-0.67431640625,-0.63525390625,0.380859375
59920117026,-0.66552734375,-0.6337890625,0.3828125
59920132756,-0.666015625,-0.64404296875,0.37353515625
59920155321,-0.67724609375,-0.65283203125,0.37158203125
59920185918,-0.67236328125,-0.625,0.37109375
59920199536,-0.6806640625,-0.63623046875,0.37890625
59920215317,-0.68115234375,-0.63818359375,0.376953125
59920244523,-0.66552734375,-0.6376953125,0.37744140625
59920252773,-0.671875,-0.63525390625,0.3779296875
59920275380,-0.6728515625,-0.640625,0.38427734375
59920297072,-0.6728515625,-0.63232421875,0.38623046875
59920312786,-0.677734375,-0.63525390625,0.3798828125
59920335291,-0.66748046875,-0.64697265625,0.38330078125
59920358441,-0.66845703125,-0.64111328125,0.37939453125
59920372794,-0.671875,-0.63916015625,0.3818359375
59920395957,-0.666015625,-0.64111328125,0.3828125
59920418487,-0.65869140625,-0.64208984375,0.38671875
59920432836,-0.6572265625,-0.65087890625,0.3798828125
59920455760,-0.64208984375,-0.6494140625,0.37646484375
59920478391,-0.63671875,-0.6474609375,0.36572265625
59920492745,-0.6064453125,-0.65673828125,0.3681640625
59920515421,-0.587890625,-0.6640625,0.37451171875
59920538469,-0.55615234375,-0.66748046875,0.35888671875
59920552779,-0.5478515625,-0.64794921875,0.35205078125
59920575314,-0.5615234375,-0.6513671875,0.34619140625
59920598480,-0.5478515625,-0.671875,0.3662109375
59920619606,-0.5009765625,-0.68408203125,0.3720703125
59920635704,-0.48974609375,-0.68798828125,0.3779296875
59920658449,-0.51904296875,-0.69677734375,0.35302734375
59920679461,-0.49462890625,-0.69921875,0.3701171875
59920695297,-0.47705078125,-0.71044921875,0.380859375
59920718393,-0.4873046875,-0.759765625,0.3740234375
59920739477,-0.45654296875,-0.79248046875,0.3994140625
59920755317,-0.3994140625,-0.7822265625,0.41357421875
59920778446,-0.3896484375,-0.7900390625,0.4130859375
59920807006,-0.3759765625,-0.7958984375,0.42626953125
59920823405,-0.34765625,-0.830078125,0.42822265625
59920838417,-0.28466796875,-0.8681640625,0.43701171875
59920859461,-0.2578125,-0.88427734375,0.44677734375
59920875319,-0.2275390625,-0.8818359375,0.43994140625
59920898441,-0.17333984375,-0.88037109375,0.42529296875
59920919488,-0.13720703125,-0.86962890625,0.45751953125
59920935306,-0.115234375,-0.87109375,0.46533203125
59920958474,-0.07568359375,-0.90673828125,0.46533203125
59920979466,-0.02490234375,-0.9296875,0.45654296875
59920995308,0.02197265625,-0.8857421875,0.4677734375
59921018423,0.060546875,-0.89013671875,0.45849609375
59921039758,0.08935546875,-0.90576171875,0.44677734375
59921055339,0.158203125,-0.91796875,0.43896484375
59921077812,0.2373046875,-0.93505859375,0.4365234375
59921099625,0.2900390625,-0.93212890625,0.42578125
59921115351,0.33740234375,-0.89111328125,0.43603515625
59921137767,0.3505859375,-0.904296875,0.41650390625
59921160889,0.37890625,-0.88232421875,0.41552734375
59921175295,0.4384765625,-0.91455078125,0.42529296875
59921197931,0.4619140625,-0.89013671875,0.4140625
59921219501,0.435546875,-0.85791015625,0.40625
59921235339,0.39501953125,-0.83251953125,0.3994140625
59921257780,0.39892578125,-0.81396484375,0.37646484375
59921271470,0.41845703125,-0.8154296875,0.35888671875
59921294525,0.43310546875,-0.814453125,0.34326171875
59921308836,0.45458984375,-0.82666015625,0.39404296875
59921331359,0.62939453125,-0.947265625,0.46240234375
59921354544,0.67236328125,-0.91162109375,0.49755859375
59921368897,0.48974609375,-0.7734375,0.470703125
59921391489,0.35498046875,-0.7177734375,0.4013671875
59921414462,0.39111328125,-0.73681640625,0.3642578125
59921428860,0.47119140625,-0.74365234375,0.3466796875
59921451469,0.54296875,-0.787109375,0.36767578125
59921474348,0.55517578125,-0.8291015625,0.39306640625
59921488973,0.49072265625,-0.814453125,0.3876953125
59921511510,0.44140625,-0.76708984375,0.3857421875
59921534593,0.43603515625,-0.736328125,0.3701171875
59921548826,0.46044921875,-0.76611328125,0.37744140625
59921571500,0.47802734375,-0.78955078125,0.3935546875
59921594525,0.478515625,-0.8046875,0.3984375
59921608938,0.4775390625,-0.78564453125,0.39599609375
59921631424,0.46630859375,-0.76953125,0.400390625
59921654517,0.46240234375,-0.767578125,0.390625
59921668875,0.4638671875,-0.78076171875,0.40283203125
59921691431,0.46484375,-0.77783203125,0.40283203125
59921714960,0.46484375,-0.7822265625,0.41015625
59921728931,0.47509765625,-0.78564453125,0.41845703125
59921751468,0.4658203125,-0.77490234375,0.42041015625
59921774479,0.46337890625,-0.7763671875,0.41455078125
59921788963,0.458984375,-0.77978515625,0.41064453125
59921820216,0.458984375,-0.775390625,0.40966796875
59921834536,0.4619140625,-0.78173828125,0.41650390625
59921850270,0.462890625,-0.7900390625,0.4033203125
59921871417,0.46630859375,-0.783203125,0.39990234375
59921894501,0.4658203125,-0.78173828125,0.40673828125
59921908791,0.46435546875,-0.78466796875,0.39892578125
59921931375,0.46923828125,-0.77685546875,0.3994140625
59921962649,0.46484375,-0.7783203125,0.396484375
59921968802,0.46630859375,-0.7763671875,0.3984375
59921991361,0.4677734375,-0.7763671875,0.39990234375
59922014489,0.46826171875,-0.7783203125,0.39990234375
59922028846,0.46435546875,-0.787109375,0.40576171875
59922051500,0.46484375,-0.78466796875,0.4033203125
59922074592,0.46728515625,-0.77978515625,0.40380859375
59922088916,0.46240234375,-0.7783203125,0.40185546875
59922111527,0.4619140625,-0.7763671875,0.40771484375
59922133956,0.466796875,-0.77392578125,0.40234375
59922148920,0.4619140625,-0.77685546875,0.40185546875
59922171471,0.4619140625,-0.7783203125,0.40673828125
59922193981,0.4658203125,-0.783203125,0.400390625
59922208938,0.4677734375,-0.78271484375,0.40576171875
59922231374,0.46337890625,-0.78515625,0.40234375
59922253969,0.4697265625,-0.7802734375,0.40478515625
59922268826,0.46630859375,-0.78369140625,0.40673828125
59922291482,0.4677734375,-0.77685546875,0.40625
59922307755,0.46240234375,-0.775390625,0.39990234375
59922328909,0.46240234375,-0.77099609375,0.40380859375
59922351472,0.46728515625,-0.779296875,0.40673828125
59922367739,0.47265625,-0.79248046875,0.40283203125
59922388916,0.4677734375,-0.78662109375,0.4072265625
59922411524,0.4609375,-0.7763671875,0.40087890625
59922433895,0.46142578125,-0.7734375,0.39990234375
59922448791,0.4638671875,-0.771484375,0.4072265625
59922471505,0.4638671875,-0.77685546875,0.39599609375
59922487767,0.46630859375,-0.7841796875,0.404296875
59922508913,0.4697265625,-0.7822265625,0.40380859375
59922531386,0.4658203125,-0.78173828125,0.41015625
59922547964,0.46484375,-0.77978515625,0.40185546875
59922568781,0.4658203125,-0.7763671875,0.41064453125
