60093117948,1,-2,0,-1,0,0,0,1
60093117948,-1,-3,-2,-2,-1,-2,-1,0
60093118622,-2,-1,-1,0,-2,0,-1,-2
60093118622,-4,-2,-2,-2,-1,-2,-1,-2
60093119415,-3,-3,-2,-1,0,0,-3,-2
60093119415,1,0,-3,-2,-1,1,-1,1
60093120333,6,3,-2,-1,0,-1,-1,-2
60093120333,-24,-4,-3,-3,-1,-2,-1,-3
60093131714,7,1,-1,0,0,0,3,2
60093131714,0,-1,-3,-1,-1,-3,-1,-1
60093139704,2,-4,-4,-3,-1,-1,0,0
60093139704,8,1,-2,0,-1,1,-1,-1
60093146571,-5,-2,-2,-1,0,-2,-2,-2
60093146571,-6,-3,0,-1,-1,0,1,-2
60093160980,0,2,0,-1,-1,-2,-3,-1
60093160980,8,3,2,0,-1,-1,0,2
60093170368,-3,-1,-2,-3,-1,-1,-1,-1
60093170368,2,-1,-2,0,1,1,2,-1
60093176042,8,-2,-1,-1,-3,-2,0,1
60093176042,-8,-3,-1,-1,-2,-1,-1,-3
60093191710,-2,0,-3,-2,-1,-2,-5,-1
60093191710,0,-1,-1,-2,0,-1,0,-2
60093199587,-2,-3,-1,-2,1,0,-1,-3
60093199587,4,-2,-1,1,-1,0,2,1
60093239154,-2,0,-1,-2,-1,0,0,-2
60093239154,-6,1,-1,1,-1,-2,-1,-2
60093239965,5,0,-1,-3,-1,-1,1,3
60093239965,-1,-1,1,-1,-2,-2,0,0
60093240810,-1,1,-1,-1,-2,-1,-2,-1
60093240810,-7,-6,-3,-3,-2,-1,-1,-1
60093252144,-2,-2,-2,-2,-2,-2,-6,-3
60093252144,1,4,-2,0,-2,0,3,3
60093253627,3,-1,0,2,1,1,-1,1
60093253627,4,0,3,-1,-2,-2,0,3
60093258211,-14,-1,1,0,1,0,3,-2
60093258211,3,-1,2,0,2,1,0,-1
60093273285,-3,2,1,0,3,0,0,-3
60093273285,5,1,3,1,1,2,-1,0
60093280687,4,2,3,1,-2,0,0,0
60093280687,-1,0,0,-2,-2,-1,-2,0
60093289696,0,-1,-1,-1,-1,-2,1,1
60093289696,-2,0,1,0,0,-1,0,-1
60093295714,3,1,0,1,1,-1,-1,-1
60093295714,-4,-3,-2,-1,-1,-2,-1,-2
60093312181,-1,0,-1,0,-1,1,-1,0
60093312181,2,0,-1,-3,0,1,0,-1
60093318323,-5,-2,0,-1,-2,-1,-2,0
60093318323,0,-2,-1,-1,0,-1,-1,-3
60093327195,-5,-2,1,-2,-1,-1,-2,-2
60093327195,5,3,0,-1,-3,-1,1,1
60093340736,1,-2,-3,-1,-1,0,0,-1
60093340736,17,3,-2,0,-2,-1,-3,1
60093349668,-26,-13,-4,-2,0,-2,-1,0
60093349668,-3,-5,-3,-1,0,-1,-1,-3
60093355660,-2,-1,-3,-3,-1,0,0,0
60093355660,4,-3,-4,-2,-1,-1,-2,-1
60093372152,8,1,-1,-1,0,-2,0,0
60093372152,-4,-1,-4,-3,1,0,-2,-2
60093378129,-2,-3,-2,0,-1,-1,-1,-2
60093378129,-2,-2,-3,-1,-2,-1,-2,1
60093387145,-4,1,-1,0,-1,-3,-1,-2
60093387145,8,-2,-2,-1,-3,-1,-1,1
60093400733,-12,-1,-3,-2,0,-1,-1,-4
60093400733,-3,0,0,-2,-1,0,0,3
60093409645,5,-2,-2,-2,0,1,-1,0
60093409645,2,0,-4,-1,-2,-2,-4,0
60093415755,5,-2,-3,-2,-1,-1,-1,-1
60093415755,-8,-5,-3,-1,-1,-1,1,-3
60093440362,3,-1,-1,-1,1,1,-1,0
60093440362,-4,0,-2,0,0,0,0,-1
60093441169,1,0,-4,0,-1,-1,-2,-1
60093441169,-7,-2,-4,0,0,0,-2,-3
60093447159,6,-1,-4,-2,-3,-1,-1,-1
60093447159,16,4,-1,-4,0,1,-1,1
60093460764,-22,-9,0,-1,0,-1,1,0
60093460764,-2,-2,-1,0,-1,1,1,-2
60093469711,3,0,-1,0,-1,-2,-2,-3
60093469711,-4,-4,-3,-1,-2,-1,-2,-3
60093483291,7,1,-1,0,-1,-2,-1,1
60093483291,-3,-1,-2,-1,-1,-3,-3,-3
60093492191,-1,-1,-1,-1,-1,-2,0,0
60093492191,-6,-2,-1,-1,-3,-2,1,-1
60093498228,-1,1,-1,-2,0,0,-2,-2
60093498228,-2,-3,-1,-2,-1,-1,-2,0
60093507177,1,0,-3,-1,-1,0,-3,-1
60093507177,-2,0,-2,-1,-3,-9,-6,-2
60093520793,0,-2,-2,1,2,5,3,-2
60093520793,7,1,0,-2,2,1,0,-1
60093529675,2,2,0,-3,-2,-2,0,1
60093529675,-6,-1,0,-2,-2,-4,2,0
60093535824,1,-3,-2,-3,0,3,-7,-1
60093535824,-6,-2,-1,0,-3,-15,-10,-4
60093552185,0,-4,0,2,1,7,6,0
60093552185,7,0,0,3,10,16,1,0
60093558263,-1,4,-2,-3,-5,-2,9,7
60093558263,2,1,-1,-5,-3,2,0,0
60093567159,-1,-1,-1,2,0,-4,1,5
60093567159,-5,-2,0,2,-3,-1,-7,-6
60093580673,4,-2,-2,-2,-3,-12,-4,-2
60093580673,-4,-5,0,3,4,10,1,-1
60093589710,-1,-3,3,4,2,-6,-3,-2
60093589710,-10,-7,0,-4,-12,-16,-12,-3
60093603239,11,5,-5,-12,-2,12,7,2
60093603239,-6,-1,0,5,2,-15,-5,-5
60093612165,-4,-3,2,-2,2,3,0,-2
60093612165,-2,-1,1,0,-4,-5,10,0
60093618236,13,8,6,-3,-2,22,-1,-17
60093618236,-2,2,3,9,12,12,9,27
60093633290,2,-7,-15,1,20,7,3,1
60093633290,-4,3,7,0,-10,-18,-12,0
60093640842,0,-3,-6,-17,-24,-31,0,0
60093640842,-1,0,-4,3,-3,19,1,-11
60093649677,-4,-8,-5,-2,13,10,-4,-15
60093649677,0,11,6,3,4,-5,3,17
60093663254,-9,-12,-20,-3,-2,1,-5,-3
60093663254,1,-3,-6,-4,-8,-2,-1,-3
60093672239,-4,4,-3,-5,-12,-13,-6,-5
60093672239,-5,-18,1,-4,1,4,-4,-10
60093678189,-2,6,8,8,1,-13,-4,5
60093678189,-4,5,0,-4,4,6,1,-1
60093693285,14,10,-4,0,-6,7,3,5
60093693285,-7,-9,-5,-4,5,10,2,-12
60093700799,-3,2,5,7,6,2,2,10
60093700799,-3,-3,-1,-9,-14,-26,-13,-6
60093710364,-9,-10,14,-1,-1,1,2,-3
60093710364,9,5,-15,8,3,10,5,4
60093723302,-9,-5,2,-1,5,4,-4,-7
60093723302,5,1,-9,-9,-3,-4,-3,-8
60093732177,3,3,4,-3,-12,-14,-9,6
60093732177,-9,-7,7,-1,0,-2,1,-7
60093738327,0,4,4,2,4,3,-1,2
60093738327,10,14,1,2,5,6,7,4
60093747139,-11,2,-5,-3,-6,-9,-6,-10
60093747139,-1,-24,-20,-10,-1,2,2,11
60093760793,-1,-31,-8,5,-1,1,-5,-5
60093760793,-10,1,9,-6,-6,-2,-4,-10
60093769704,19,55,6,-1,-2,3,6,10
60093769704,-7,-35,-11,-4,0,-1,3,2
60093783193,-11,-1,7,10,5,-1,-2,-11
60093783193,3,-18,-8,2,-1,-2,-5,0
60093792201,4,11,9,7,0,-2,-1,-4
60093792201,1,26,7,1,3,3,2,-1
60093798185,20,2,-2,0,0,-6,-3,18
60093798185,-24,-4,-12,-13,-9,3,1,-20
60093807151,-15,-44,-14,-4,-4,0,-5,-11
60093807151,8,-2,4,-1,0,-2,-1,7
60093820762,-4,-41,-10,-4,0,-3,-1,-2
60093820762,-5,17,5,5,4,-5,-3,-9
60093829678,0,7,2,-5,-6,-2,0,6
60093829678,35,40,4,-1,-2,1,-2,9
60093843253,-35,3,3,-2,0,-2,-2,-20
60093843253,-5,3,18,2,1,1,3,6
60093852180,-3,-15,-7,-6,-5,-3,-1,2
60093852180,-5,-2,-8,3,1,3,3,-1
60093858170,12,2,1,-8,-4,0,1,4
60093858170,7,-7,-5,-3,-1,-5,0,7
60093873145,2,8,2,-1,2,5,3,2
60093873145,-2,-9,0,1,-1,0,1,0
60093880646,-14,10,-9,-17,-3,-3,-4,-20
60093880646,7,-2,-3,12,3,2,3,14
60093889615,-5,-5,1,-5,-4,-6,-3,-4
60093889615,-4,-1,-2,24,-1,-1,-7,-4
60093903129,10,18,5,-3,1,1,-1,2
60093903129,3,-16,-8,-6,-5,-8,-5,-1
60093912310,4,3,-6,-11,-4,2,4,5
60093912310,-4,-3,6,-12,-5,-6,-8,-12
60093918261,-1,2,0,7,-1,-2,2,13
60093918261,1,3,-2,-7,1,-1,-3,-8
60093933216,-3,-22,-3,6,2,3,5,7
60093933216,-4,9,-3,-4,-2,3,5,-7
60093940925,5,-2,2,6,-3,-3,-5,3
60093940925,-1,6,-2,-1,0,1,0,-2
60093949651,-12,-13,-3,5,-1,-2,-6,-22
60093949651,5,21,-3,-7,2,-2,2,0
60093963200,8,-12,0,1,-1,-1,1,14
60093963200,9,-14,-7,0,3,6,9,21
60093972159,-15,-11,-4,-4,-3,-4,-5,-11
60093972159,-17,4,4,-4,-6,-10,-8,-18
60093978251,8,11,-5,4,3,6,4,3
60093978251,-3,3,1,-6,-3,-5,-3,-8
60093993320,10,-2,0,1,0,-3,-3,5
60093993320,7,-6,-4,-6,0,-1,-1,6
60094000818,-10,3,0,1,0,1,2,-5
60094000818,6,-4,5,2,-2,0,2,3
60094009662,-5,4,-2,-1,-2,-3,-2,1
60094009662,-11,-7,-5,0,-2,0,-3,-4
60094023314,9,7,0,-1,-3,-1,-5,-12
60094023314,-7,-5,-1,6,-2,-4,-3,5
60094040323,5,1,1,-4,-1,-1,-1,3
60094040323,-8,-12,-7,-34,-5,-2,-1,-5
60094041155,6,3,4,32,5,2,0,4
60094041155,-3,1,1,-7,-3,-4,-2,-9
60094053324,-9,-2,-1,1,0,-1,-2,-6
60094053324,2,-3,3,3,-2,-1,0,2
60094060807,-6,2,-3,-18,-6,-7,-3,-6
60094060807,4,-6,-3,0,1,3,5,1
60094069662,-4,-1,-4,-5,-1,-2,-6,10
60094069662,3,-3,-3,6,2,4,6,6
60094083286,-8,4,4,-5,-3,-3,-6,-7
60094083286,2,10,2,3,0,0,0,0
60094092143,3,-15,-1,-2,-2,1,0,0
60094092143,-9,-12,-3,7,2,0,2,13
60094098287,2,-6,-5,-3,-1,-4,0,0
60094098287,-7,5,-1,-5,0,1,-3,-22
60094113165,5,10,3,1,1,-1,-4,2
60094113165,0,7,-1,-10,-2,-1,-2,2
60094120705,-7,-6,0,3,2,1,1,-6
60094120705,3,3,2,10,1,0,1,7
60094135768,4,0,-6,2,-2,0,-1,-8
60094135768,-6,-10,-1,-2,-2,0,-2,-6
60094143270,3,9,-6,-16,-6,-4,-2,4
60094143270,-5,-15,0,4,0,0,-1,-3
60094152154,-5,2,3,4,-1,-2,-3,-16
60094152154,9,1,-3,0,-1,0,5,20
60094158277,5,5,-10,-7,2,2,-3,-7
60094158277,-4,-9,-1,-2,-1,0,4,5
60094173329,3,2,-4,1,-2,-3,3,6
60094173329,-5,0,-2,1,2,0,-5,-20
60094180723,-1,13,-5,-2,-2,-3,-1,-9
60094180723,-3,-4,3,-1,2,3,-3,6
60094189691,-4,-4,0,-5,-2,1,3,7
60094189691,11,7,4,15,-1,-2,3,11
60094203177,-6,-10,1,9,2,2,2,3
60094203177,1,3,-9,-10,-4,-2,-6,-7
60094212185,-6,13,-12,-12,-3,-1,-1,-3
60094212185,-1,-1,-4,-6,-2,-2,-6,-11
60094226455,1,-15,5,3,1,2,3,3
60094226455,-2,5,1,3,0,-2,-1,5
60094233247,12,4,1,2,1,1,-4,2
60094233247,-11,3,-14,-4,-3,-3,1,-9
60094249548,-12,-33,12,2,1,1,-1,-6
60094249548,-1,-2,-10,-11,-2,-3,2,7
60094251128,2,0,-10,-2,-1,-2,3,1
60094251128,3,-6,2,-1,2,1,-5,1
60094263319,8,62,-24,-1,-8,-6,-10,-12
60094263319,-15,-55,22,23,14,11,12,1
60094272163,-1,-4,1,-7,-6,-4,1,13
60094272163,0,2,2,-7,-1,-1,-2,-4
60094286477,1,6,-7,-8,-2,-3,-2,4
60094286477,1,23,-2,-8,-8,-5,-8,-11
60094293243,-1,-3,-3,3,2,2,-1,-5
60094293243,-5,-12,4,6,1,2,2,-2
60094309519,4,-16,9,3,3,2,2,17
60094309519,-15,2,-7,-2,-5,-6,-2,-19
60094311110,10,-10,6,2,5,3,0,-7
60094311110,-1,3,-1,-1,-4,-4,1,11
60094323237,1,-8,1,1,-1,2,6,13
60094323237,6,25,-7,-13,-5,-3,-6,4
60094332177,-6,1,-4,2,-3,-1,0,-4
60094332177,0,3,4,10,1,0,-1,-8
60094346386,-4,-8,0,-5,0,-4,-3,-8
60094346386,3,-5,-2,-3,0,1,0,10
60094353234,-3,1,6,6,0,-1,-1,-8
60094353234,1,-1,-5,-5,-2,-1,-2,4
60094369508,2,-3,4,-3,0,0,3,12
60094369508,-10,-1,-5,0,0,0,-2,-21
60094371184,-7,-10,-2,-3,-1,-1,-3,-7
60094371184,-1,-2,4,3,0,0,-1,-1
60094383103,0,1,-3,-4,-2,-2,-1,-5
60094383103,8,9,-1,-8,-6,-6,-1,9
60094392125,4,5,1,2,1,2,7,10
60094392125,-10,2,1,-2,-1,-4,-8,-10
60094406328,-4,-23,4,0,-1,0,1,2
60094406328,6,8,-2,-12,-2,-1,-5,-4
60094413110,-4,-5,0,12,-1,-3,0,-7
60094413110,1,0,-2,-1,0,-1,1,1
60094429531,-3,2,1,6,-2,-4,-2,-4
60094429531,0,0,-3,-4,-1,-1,-3,-1
60094431119,-1,1,3,3,-1,0,-2,0
60094431119,-5,-2,-4,-5,-3,-1,-2,-5
60094443217,0,-3,-6,-7,0,-2,-1,0
60094443217,5,-2,-4,-4,-2,-1,-1,0
60094452137,-2,8,3,7,1,0,-1,-2
60094452137,8,2,-1,-1,0,-4,-7,-10
60094466458,-7,1,0,1,0,2,2,-8
60094466458,3,-5,-4,0,-1,-3,0,17
60094473340,0,-8,-7,-10,-5,-4,-3,0
60094473340,-5,-3,0,-2,-3,-1,-2,-9
60094489650,2,6,-2,-3,3,2,0,-1
60094489650,2,8,-3,2,0,-3,1,-2
60094491153,-5,-11,2,-2,3,2,4,0
60094491153,-1,-2,-1,4,-2,0,-3,4
60094503144,0,4,-2,-2,-3,-2,-6,-11
60094503144,-3,-9,-1,5,2,2,1,4
60094512170,0,6,-2,-6,0,-3,-6,-7
60094512170,-1,-2,-1,-3,0,2,7,1
60094526469,1,-4,-3,-1,-1,-1,1,3
60094526469,-6,-2,1,3,-2,-2,-4,-8
60094533260,5,3,-2,-5,-3,-1,-1,4
60094533260,-2,8,-6,-1,-1,1,2,5
60094549612,-2,-13,4,1,1,1,1,4
60094549612,-2,-6,0,-3,1,1,3,-4
60094551101,-1,10,-6,4,-2,-4,-1,5
60094551101,3,3,1,5,1,-3,-5,-7
60094563204,-4,1,-5,-3,-1,-3,-2,-7
60094563204,4,-1,0,-3,-3,-1,-1,4
60094572147,-6,-12,-6,-11,-1,-1,-1,-6
60094572147,1,1,3,4,0,-2,-1,-1
60094586531,4,1,0,1,-4,-1,1,11
60094586531,-13,-6,-2,-2,-2,-5,-8,-22
60094593394,-3,-1,-2,-1,0,-2,-4,-4
60094593394,2,-3,-2,-5,-1,2,6,7
60094609641,2,3,-2,-1,2,1,0,1
60094609641,4,-5,-2,5,-1,2,4,10
60094611154,-3,14,-5,-6,-3,-4,-9,-13
60094611154,-5,-3,3,1,0,-2,-2,-2
60094623239,-2,4,-7,-2,-5,-4,-1,4
60094623239,0,-3,4,2,-1,-2,-4,-9
60094632170,-5,-6,-2,2,1,2,5,6
60094632170,4,-4,-5,-6,-3,-1,1,4
60094646393,-3,3,0,-1,0,1,0,-5
60094646393,4,7,3,11,1,0,-2,7
60094653276,-8,-6,-2,-10,-6,-3,0,-6
60094653276,1,4,-3,-7,-1,-2,1,-1
60094669566,-4,2,1,2,0,-3,-4,-7
60094669566,-3,0,-3,-5,0,-1,-2,-7
60094671115,5,-3,4,3,-1,0,4,20
60094671115,0,-3,-3,-3,1,0,-4,-6
60094683297,1,-3,-1,-5,-2,-2,2,5
60094683297,-5,-14,6,3,3,1,-2,1
60094692168,-3,0,-4,1,0,-2,-3,-10
60094692168,-4,-5,-1,4,-1,-1,1,6
60094706467,0,0,4,9,2,-1,0,1
60094706467,0,1,-2,2,-1,-1,0,1
60094713227,-2,-3,-3,-6,-1,-2,-4,-8
60094713227,-1,-6,-8,-9,-3,-1,-3,-1
60094729583,-1,-10,5,5,2,2,-6,-14
60094729583,1,1,-2,1,1,2,6,10
60094731162,6,2,1,0,-1,0,2,3
60094731162,-7,-2,1,2,-1,-3,-6,-16
60094743232,-2,3,-1,-11,-3,-2,3,4
60094743232,0,2,-7,-2,-3,-3,-5,-15
60094752162,6,-2,-2,0,-1,0,3,19
60094752162,-2,-5,-2,3,-2,-1,-1,0
60094766501,-4,-3,-3,-4,-1,-2,-1,-2
60094766501,-1,10,-5,-6,-2,-2,-6,-6
60094773238,-1,5,1,4,0,0,3,0
60094773238,-2,0,-1,-4,-3,0,3,8
60094789662,1,-1,-4,-4,-2,-2,-4,0
60094789662,0,4,-3,-3,0,-2,4,8
60094791124,-2,-6,0,5,3,1,-3,-5
60094791124,6,3,8,1,-2,-1,0,9
60094803198,-9,2,-7,-3,-3,-3,-2,-17
60094803198,-1,-11,1,0,-4,-4,-5,-3
60094812169,0,-4,-2,-10,-4,-1,-1,1
60094812169,-3,-8,1,0,0,1,0,-1
60094826430,-2,3,-5,0,-2,0,-4,2
60094826430,2,4,2,2,1,-2,0,-2
60094833291,-2,2,3,-1,-1,-2,-3,-11
60094833291,3,11,-6,-2,-2,-2,-2,11
60094848963,2,-3,0,-1,2,-2,-2,0
60094848963,-6,-10,0,-1,-2,0,-4,-9
60094855755,-1,-2,-4,-4,-1,0,-1,1
60094855755,-3,9,0,3,2,-2,-6,-20
60094863196,2,-1,-2,0,-1,0,5,6
60094863196,1,3,-3,-2,-3,-1,0,6
60094872116,1,31,-5,5,-1,-5,-1,5
60094872116,5,-14,-1,-8,0,-3,-1,7
60094886328,-6,-1,0,1,-1,-2,0,-15
60094886328,-2,-11,-1,-4,-3,-1,1,0
60094893136,-1,2,-2,-2,-2,-2,-5,-5
60094893136,-2,3,-4,0,0,0,4,-2
60094908851,-2,-9,4,2,-1,1,-1,6
60094908851,-2,3,-6,-5,-2,-1,0,-5
60094915739,2,-3,2,3,0,-1,-1,-1
60094915739,-3,-3,-4,-1,-2,-2,-2,4
60094923267,3,-14,3,3,1,-1,-1,7
60094923267,-4,-5,-3,1,4,0,-1,-9
60094932273,-3,-11,-2,-7,-2,-2,-2,-1
60094932273,1,-3,-1,2,0,1,5,3
60094946418,3,8,-3,0,-2,0,-2,1
60094946418,-5,-8,-2,1,1,-1,1,-5
60094953277,-4,-9,3,3,1,-1,-5,-12
60094953277,0,-31,11,0,3,2,6,3
60094968971,-3,0,0,-4,-4,-1,-4,-4
60094968971,7,2,0,0,-1,1,6,20
60094975774,-3,-11,-2,0,0,0,-4,-6
60094975774,1,17,-1,-3,-1,-1,-4,-6
60094992134,1,2,-3,-6,-2,0,2,3
60094992134,-3,2,-2,-1,-5,-2,-7,-6
60094993624,-6,-8,3,5,3,-1,2,-4
60094993624,0,7,-4,4,0,-1,-3,-2
60095006368,-2,-4,-2,-5,-3,-3,0,6
60095006368,1,9,0,-1,-2,-2,-1,-2
60095013174,2,3,-5,-4,-4,-3,1,5
60095013174,-1,0,-4,3,1,-2,-3,-6
60095028846,-1,7,-1,-8,-1,-2,1,-6
60095028846,4,0,1,2,2,1,-1,10
60095035648,2,13,1,3,-2,-1,0,-1
60095035648,-8,-7,-1,0,1,0,0,-9
60095052083,0,3,0,-1,-2,-1,-6,1
60095052083,-3,-5,0,-4,-3,-2,-2,-5
60095053592,-1,-2,0,-4,-2,0,-1,6
60095053592,-1,4,-1,0,-4,-2,-2,-2
60095066467,-3,-4,-4,3,0,-1,-1,-2
60095066467,-4,-9,7,6,8,1,0,0
60095073294,-2,-7,-4,-17,-11,-1,1,0
60095073294,0,7,-5,2,1,-3,-1,-1
60095088998,-6,-25,2,4,1,1,2,-2
60095088998,1,-1,-1,-1,2,-1,-1,-1
60095095826,-2,-3,-1,2,0,-2,0,-4
60095095826,-1,-6,-1,-6,-5,-2,-2,0
60095112245,4,8,-2,2,0,-3,-2,-1
60095112245,3,17,2,1,-4,-2,-2,-4
60095113663,-2,-3,-8,-7,-2,-3,0,-2
60095113663,2,4,-11,-8,1,3,2,0
60095126480,-2,2,22,29,2,-1,-1,-2
60095126480,-5,-5,-23,-39,-10,-3,-1,-3
60095133153,-4,-11,-1,10,3,0,-2,-1
60095133153,0,-5,24,-4,-1,-2,-3,-2
60095148976,2,3,-3,-1,2,3,1,0
60095148976,-3,-7,-23,-6,-5,-2,0,-3
60095155779,0,-4,2,-1,-2,-2,-1,2
60095155779,-2,-5,0,6,0,-3,-3,-1
60095172102,-1,2,8,5,0,0,-2,-1
60095172102,0,5,8,1,-3,0,0,-2
60095173593,1,2,3,11,6,2,0,0
60095173593,-1,1,-1,6,-3,-2,-2,-1
60095186438,0,-1,-5,6,4,1,0,-2
60095186438,1,-3,-5,-19,4,4,3,0
60095193287,-3,-5,-20,-11,-3,-1,0,-1
60095193287,-5,-7,0,-39,-18,-6,-5,-3
60095209051,1,0,0,4,-1,-1,-2,-2
60095209051,0,1,11,24,17,2,-1,0
60095215736,-1,2,8,17,-3,-1,-1,-1
60095215736,0,3,-8,6,-4,-1,0,0
60095232145,0,-1,-5,-17,-6,-2,-1,0
60095232145,0,-2,4,16,5,1,-1,-2
60095233636,-2,-2,-8,-27,-5,3,1,2
60095233636,-2,-5,-12,1,-4,-3,-1,0
60095245656,-3,0,-7,-4,-3,-4,-2,-1
60095245656,2,2,8,10,-2,-3,0,0
60095254660,-1,1,6,0,2,-3,-2,0
60095254660,-3,-2,-14,-1,-1,1,-1,-3
60095268897,-1,-2,9,1,2,-3,-4,-2
60095268897,-1,-2,-16,4,-2,-1,0,0
60095275754,-3,-2,9,-16,-5,-1,0,-2
60095275754,0,1,7,8,2,0,1,0
60095292246,-2,-2,0,-4,3,-1,-1,-2
60095292246,0,0,2,1,-6,-4,-3,0
60095293596,1,1,9,20,4,0,1,-1
60095293596,2,-1,4,0,7,2,-1,0
60095305769,-2,-4,-19,-21,-16,-5,-4,-4
60095305769,-1,-3,11,16,-6,-4,-3,0
60095314632,0,2,-10,-12,8,3,2,2
60095314632,0,-3,-5,0,-2,11,3,-1
60095328936,1,-5,-10,-24,-8,-5,-1,0
60095328936,-1,0,11,-18,-9,-3,0,-1
60095335773,-2,-6,-7,5,-2,-6,-7,-3
60095335773,-1,5,9,19,11,-3,-2,-1
60095352207,0,3,-2,4,6,3,2,1
60095352207,0,-12,6,14,1,0,1,2
60095353615,-1,-7,7,-5,-3,-2,0,-1
60095353615,-3,-2,-7,8,1,-2,-1,-2
60095365647,-1,-1,-9,-4,1,0,0,0
60095365647,-3,3,-6,-7,-2,-5,-4,-3
60095374642,2,3,1,11,3,3,2,-1
60095374642,-1,-4,-6,-17,-4,-2,-1,1
60095388799,-1,-3,5,17,1,-1,1,-1
60095388799,-2,-3,-23,-31,-13,-4,-1,-1
60095395596,-1,3,17,4,1,-3,-2,-2
60095395596,0,4,10,1,1,-2,0,-1
60095433950,0,0,-15,-7,-1,5,1,2
60095433950,-4,-3,-3,2,-1,-3,-4,-3
60095442146,0,1,-1,5,-3,0,-1,-1
60095442146,-2,3,7,3,2,-4,-3,1
60095457124,0,-1,6,8,4,-1,-1,0
60095457124,-1,0,-5,-6,7,-1,0,0
60095458615,-1,-2,-15,-35,-3,5,0,0
60095458615,-3,-3,19,22,-4,-3,-1,-2
60095472095,-1,-3,-19,-11,-1,-1,-3,-2
60095472095,-1,3,10,16,0,0,-2,-1
60095473616,0,-12,7,14,5,-2,0,2
60095473616,2,3,-6,-16,0,1,0,2
60095486499,-2,2,1,-2,0,1,1,-2
60095486499,-1,0,0,4,5,0,-1,-1
60095493408,0,2,-14,-14,-5,-4,0,-2
60095493408,-1,-3,-4,2,-1,-1,-1,-3
60095500702,-1,1,10,25,7,4,3,-1
60095500702,-2,3,1,-32,-18,-2,0,-2
60095509641,-3,2,-3,10,2,1,-1,0
60095509641,-2,-5,-19,-19,-5,-6,-2,-3
60095523939,-1,4,11,16,6,-2,-2,-1
60095523939,-2,-2,2,5,-3,0,-1,1
60095524627,0,1,8,6,7,4,-2,-1
60095524627,-1,0,-6,8,-3,-4,-1,0
60095539650,-2,-3,-2,-21,-7,-4,-1,-2
60095539650,1,-4,0,27,9,5,1,1
60095541186,-2,2,13,8,-6,-4,-2,-2
60095541186,-1,1,9,-2,-5,-2,-1,0
60095562086,-2,-3,-1,3,1,-2,-1,1
60095562086,-5,-3,-23,-17,-9,-8,-9,-6
60095563598,-3,1,11,14,2,2,4,-2
60095563598,0,-2,-3,10,11,1,0,-2
60095576494,-1,0,5,-42,-23,5,0,-3
60095576494,0,2,3,13,14,2,3,1
60095583267,-1,0,-13,-18,2,0,-5,-1
60095583267,1,2,-2,-5,-12,-7,-5,0
60095598596,-1,-3,0,14,2,-9,-8,0
60095598596,0,-1,0,-2,1,7,10,0
60095607164,0,-2,-4,-1,1,1,-3,-1
60095607164,0,-1,-3,-5,0,-3,0,0
60095622129,-1,-1,-1,-4,-6,-1,-1,-1
60095622129,0,3,7,-1,0,1,-1,1
60095623641,0,3,9,28,6,-2,-1,-2
60095623641,-3,-6,-40,-46,-6,-4,-6,-2
60095635737,-4,5,42,8,-8,0,-2,-4
60095635737,-4,-9,-16,4,-7,-5,0,-3
60095644662,0,-2,5,14,2,0,0,1
60095644662,2,1,-2,4,6,8,3,1
60095659600,-2,-6,8,1,3,1,-1,0
60095659600,-1,1,3,-14,-2,-5,-2,-1
60095661116,-1,1,7,-4,-9,-2,-3,0
60095661116,-4,-4,-1,-1,0,-2,1,-1
60095681331,2,1,-13,4,10,4,6,3
60095681331,2,4,13,9,3,2,-3,1
60095682101,-2,-3,-18,-23,-11,-2,0,1
60095682101,0,2,13,-1,-6,3,3,1
60095704587,0,1,-14,-11,5,6,6,0
60095704587,2,4,14,13,13,6,-1,0
60095705391,1,0,-7,-3,3,1,-3,-2
60095705391,1,3,3,-14,-12,-3,-1,0
60095718949,0,-2,1,16,6,0,0,-1
60095718949,3,-2,1,-1,-2,-7,-1,1
60095719639,0,-5,7,-9,2,0,1,2
60095719639,-1,-2,-4,8,1,2,0,-1
60095741536,-3,-3,-6,-14,-3,-5,-6,-2
60095741536,-1,-4,-2,-9,1,2,0,-1
60095742138,-1,4,-2,-1,-3,-3,-1,-2
60095742138,-1,0,6,3,0,-8,-5,-4
60095764467,0,-5,-20,-18,-14,-1,0,-2
60095764467,1,3,1,6,1,1,-2,-2
60095765337,-3,-2,-11,-7,-1,-1,-1,-1
60095765337,-2,-3,-5,3,9,0,2,-3
60095778924,-1,0,-5,4,2,-5,-3,-1
60095778924,-3,-1,1,-5,-9,-6,-3,-3
60095779615,-3,-2,-10,-6,-5,-4,-1,0
60095779615,0,0,4,8,7,3,-1,0
60095801392,-1,0,-2,6,2,-1,-2,-2
60095801392,-1,-1,1,-4,-5,-2,1,-1
60095802081,-1,-2,-9,-7,-8,-5,-3,-3
60095802081,-3,-2,4,0,-1,3,-2,-1
60095824638,-3,-3,2,-2,-2,-2,-2,-1
60095824638,0,-2,1,18,9,3,1,0
60095825335,1,1,-6,-1,1,-3,-4,-2
60095825335,-2,-4,-11,-34,-19,-1,1,-3
60095838895,-1,3,3,15,3,-5,-4,-1
60095838895,-3,-3,-6,-9,3,4,-2,0
60095839562,-3,-3,4,6,-12,-6,-2,-1
60095839562,1,2,17,21,8,2,0,0
60095861436,0,-3,-8,-10,0,0,0,0
60095861436,1,2,-3,-4,-3,-4,-1,-2
60095862109,1,3,2,-3,2,0,1,1
60095862109,-1,-3,0,10,-4,-9,-5,-2
60095875628,-1,-2,-10,-22,-7,5,1,-1
60095875628,1,1,6,12,8,-3,-1,-1
60095883968,1,-1,-10,-13,-3,6,1,0
60095883968,-1,0,3,11,-2,-3,1,2
60095898812,2,1,3,-3,-9,-2,1,-1
60095898812,-3,-2,-6,-11,-5,4,-1,-3
60095899575,-2,-1,1,-1,-3,-6,-3,-3
60095899575,-2,1,5,9,8,2,-2,-2
60095921317,-2,-1,-2,2,2,-1,-2,-3
60095921317,1,0,-2,-4,-3,0,-1,-1
60095922070,0,0,2,2,1,-1,-1,-2
60095922070,-2,-1,-1,3,-2,3,-1,0
60095935739,-1,-2,-6,-12,-6,-7,-3,0
60095935739,-3,-3,-1,-5,-6,3,-1,0
60095943942,-1,-2,2,13,6,0,4,-1
60095943942,1,-2,-7,-5,7,5,3,2
60095958842,-1,1,1,-2,-16,-8,-4,-2
60095958842,-2,2,-2,-11,-3,-8,-6,0
60095959564,-1,-2,4,16,6,5,1,0
60095959564,2,1,-3,0,3,4,3,-1
60095981385,1,-2,1,8,3,-1,-1,1
60095981385,0,-1,-3,-7,1,4,1,-3
60095982096,-1,0,0,-2,-6,-7,-3,-2
60095982096,-2,-1,-1,-3,-2,-4,-2,-2
60095995749,1,-2,2,2,7,-1,2,-1
60095995749,-3,-4,-5,-7,-11,-5,-2,-1
60096003808,0,-1,-2,0,-1,2,0,0
60096003808,-1,-1,-5,-6,-4,-4,-3,-2
60096018844,0,0,2,7,2,1,3,1
60096018844,1,0,-3,5,2,-2,0,1
60096019579,1,2,3,-1,0,2,0,1
60096019579,0,-2,-8,-16,-3,-4,-2,-1
60096041379,-2,-5,-9,3,0,-3,-5,-3
60096041379,-1,-3,-3,-8,-6,1,0,-1
60096042112,-2,0,-2,-3,2,-1,1,0
60096042112,-1,3,4,13,1,3,1,1
60096049648,0,2,-7,-14,-1,1,0,1
60096049648,0,-4,-9,1,-5,-5,-2,-3
60096055724,1,0,1,6,1,0,-2,-2
60096055724,0,-2,-1,-9,0,1,-1,-3
60096070790,-1,-3,4,18,5,-1,-2,-1
60096070790,1,-3,-5,-16,-9,-6,-1,-1
60096078321,-2,-2,-6,-6,0,5,-4,-3
60096078321,-1,0,-2,9,3,-3,-2,-2
60096093856,1,-1,4,1,4,3,-1,-1
60096093856,-2,-3,-5,-8,-3,-2,0,0
60096094591,-2,-1,-1,-5,-5,-5,-3,-4
60096094591,-1,-1,-6,0,1,2,0,-1
60096109614,1,0,7,0,-4,0,-1,-2
60096109614,-2,1,3,9,0,-2,0,-1
60096115816,-2,-3,-2,6,2,-7,-4,-2
60096115816,-3,-4,-6,-11,-6,5,1,1
60096130624,-1,0,-3,-1,5,3,2,1
60096130624,-4,-2,-3,-9,-12,-1,1,2
60096138293,0,-4,-6,4,-1,-2,-3,0
60096138293,0,1,2,9,1,-4,-1,-1
60096153926,-1,-1,-1,6,3,-3,-1,0
60096153926,0,0,-2,6,6,3,1,2
60096154562,-3,1,5,-21,-13,-8,-4,-3
60096154562,-2,-3,2,3,-3,-7,-4,-1
60096169602,-3,-3,-9,-14,-8,2,-1,-1
60096169602,-1,1,4,17,9,-3,-2,-1
60096175734,-1,-2,-4,-16,-9,3,0,-1
60096175734,1,-2,1,10,4,3,1,0
60096190746,-1,-1,-1,-6,-3,-1,-2,-2
60096190746,-1,-1,1,6,3,-1,-1,-3
60096198131,0,-4,-8,-7,-4,-4,1,-1
60096198131,0,0,5,3,3,4,0,-1
