60294391295,0.182556152344,0.488342285156,-0.517028808594,-0.678894042969
60294412945,0.182556152344,0.488342285156,-0.51708984375,-0.678894042969
60294427597,0.185302734375,0.487609863281,-0.517517089844,-0.678344726562
60294451211,0.183288574219,0.488220214844,-0.516540527344,-0.679138183594
60294472576,0.182495117188,0.488708496094,-0.516052246094,-0.679443359375
60294487584,0.1806640625,0.488525390625,-0.515563964844,-0.680358886719
60294511323,0.178466796875,0.487670898438,-0.515258789062,-0.681762695312
60294532682,0.177307128906,0.486694335938,-0.515380859375,-0.682739257812
60294577612,0.177917480469,0.486145019531,-0.515869140625,-0.6826171875
60294588247,0.179992675781,0.486511230469,-0.516357421875,-0.681396484375
60294591915,0.182067871094,0.487487792969,-0.516540527344,-0.680053710938
60294608052,0.182678222656,0.488403320312,-0.516235351562,-0.679443359375
60294622563,0.181396484375,0.489868164062,-0.516174316406,-0.678771972656
60294646213,0.181030273438,0.490295410156,-0.516540527344,-0.678283691406
60294690046,0.180969238281,0.490234375,-0.516540527344,-0.678344726562
60294700002,0.180969238281,0.490234375,-0.516540527344,-0.678344726562
60294706217,0.180969238281,0.490234375,-0.516540527344,-0.678344726562
60294728069,0.180847167969,0.491821289062,-0.516540527344,-0.67724609375
60294743692,0.180847167969,0.495178222656,-0.514831542969,-0.676086425781
60294774338,0.182983398438,0.495422363281,-0.515441894531,-0.674865722656
60294789368,0.19189453125,0.497924804688,-0.516967773438,-0.669311523438
60294811860,0.197570800781,0.501770019531,-0.516723632812,-0.6650390625
60294834327,0.195861816406,0.503845214844,-0.514831542969,-0.665405273438
60294849344,0.187683105469,0.502014160156,-0.512939453125,-0.670593261719
60294871863,0.185668945312,0.500854492188,-0.512939453125,-0.672058105469
60294894344,0.184204101562,0.496826171875,-0.514587402344,-0.674133300781
60294908720,0.190551757812,0.496643066406,-0.516967773438,-0.670715332031
60294931890,0.192993164062,0.494812011719,-0.518249511719,-0.670288085938
60294954335,0.193115234375,0.493469238281,-0.518249511719,-0.671325683594
60294969338,0.193054199219,0.493408203125,-0.518249511719,-0.67138671875
60294991895,0.192687988281,0.492797851562,-0.518676757812,-0.671630859375
60295014319,0.192504882812,0.492248535156,-0.519226074219,-0.671630859375
60295028676,0.193481445312,0.492858886719,-0.519226074219,-0.670837402344
60295051839,0.197814941406,0.495666503906,-0.517517089844,-0.668884277344
60295074398,0.206787109375,0.50146484375,-0.512817382812,-0.665466308594
60295095542,0.2197265625,0.5078125,-0.506896972656,-0.661010742188
60295111820,0.233642578125,0.508972167969,-0.50537109375,-0.656433105469
60295134391,0.246948242188,0.50244140625,-0.512268066406,-0.651306152344
60295155510,0.262756347656,0.491760253906,-0.523193359375,-0.644592285156
60295172347,0.283386230469,0.475769042969,-0.536193847656,-0.637084960938
60295194389,0.308288574219,0.454650878906,-0.551208496094,-0.628051757812
60295215395,0.335998535156,0.43017578125,-0.567565917969,-0.616394042969
60295231852,0.364135742188,0.403503417969,-0.584167480469,-0.602783203125
60295254349,0.391235351562,0.374328613281,-0.600708007812,-0.588134765625
60295275559,0.416076660156,0.342468261719,-0.617309570312,-0.573181152344
60295291872,0.437866210938,0.308349609375,-0.633666992188,-0.558288574219
60295314376,0.456359863281,0.273559570312,-0.64892578125,-0.543884277344
60295335484,0.471252441406,0.238952636719,-0.662902832031,-0.530456542969
60295351908,0.482849121094,0.204772949219,-0.675354003906,-0.518493652344
60295374342,0.491760253906,0.17236328125,-0.685363769531,-0.508666992188
60295395513,0.498474121094,0.142822265625,-0.693054199219,-0.500854492188
60295411863,0.503295898438,0.115051269531,-0.698852539062,-0.495056152344
60295441840,0.507446289062,0.0905151367188,-0.703186035156,-0.48974609375
60295455498,0.510864257812,0.0708618164062,-0.706176757812,-0.485107421875
60295471843,0.512817382812,0.0542602539062,-0.708618164062,-0.481628417969
60295494363,0.514343261719,0.0419921875,-0.709777832031,-0.4794921875
60295515624,0.516052246094,0.0319213867188,-0.709838867188,-0.478332519531
60295531854,0.517578125,0.0216064453125,-0.709716796875,-0.477478027344
60295561841,0.518432617188,0.011474609375,-0.710083007812,-0.476379394531
60295575552,0.519653320312,0.00433349609375,-0.710144042969,-0.475036621094
60295591190,0.521606445312,0.00079345703125,-0.709716796875,-0.473571777344
60295614349,0.523620605469,-0.00042724609375,-0.708618164062,-0.473022460938
60295635454,0.524719238281,-0.00250244140625,-0.707336425781,-0.4736328125
60295651173,0.52490234375,-0.0054931640625,-0.706604003906,-0.474487304688
60295680589,0.525268554688,-0.0069580078125,-0.705871582031,-0.475219726562
60295696880,0.526123046875,-0.00653076171875,-0.704772949219,-0.475952148438
60295719400,0.527404785156,-0.00482177734375,-0.703491210938,-0.476440429688
60295740505,0.528625488281,-0.0029296875,-0.701904296875,-0.477355957031
60295756810,0.529418945312,-0.00079345703125,-0.7001953125,-0.47900390625
60295779338,0.529968261719,0.00189208984375,-0.698303222656,-0.481201171875
60295800500,0.530578613281,0.004638671875,-0.696533203125,-0.483093261719
60295816912,0.531188964844,0.00653076171875,-0.694946289062,-0.484619140625
60295839386,0.53173828125,0.0089111328125,-0.693542480469,-0.486022949219
60295860425,0.532165527344,0.01123046875,-0.692260742188,-0.487365722656
60295876888,0.532104492188,0.0125732421875,-0.691223144531,-0.488830566406
60295899339,0.53173828125,0.012939453125,-0.6904296875,-0.490295410156
60295920560,0.531433105469,0.0134887695312,-0.689819335938,-0.491455078125
60295936886,0.531372070312,0.0144653320312,-0.689331054688,-0.492248535156
60295959433,0.531005859375,0.0144653320312,-0.689086914062,-0.492980957031
60295980487,0.530639648438,0.0139770507812,-0.689025878906,-0.493469238281
60295987346,0.530212402344,0.0135498046875,-0.689025878906,-0.493896484375
60296002398,0.530151367188,0.0133056640625,-0.688720703125,-0.494384765625
60296024758,0.530151367188,0.0130004882812,-0.688415527344,-0.494873046875
60296047324,0.530151367188,0.0125122070312,-0.688232421875,-0.495178222656
60296062336,0.530334472656,0.0122680664062,-0.687927246094,-0.495422363281
60296084960,0.530334472656,0.01220703125,-0.687561035156,-0.495849609375
60296107413,0.530090332031,0.0121459960938,-0.687316894531,-0.496459960938
60296122191,0.529846191406,0.0120239257812,-0.687255859375,-0.496826171875
60296144917,0.529602050781,0.0123291015625,-0.687316894531,-0.497009277344
60296167373,0.529479980469,0.0131225585938,-0.687316894531,-0.497131347656
60296182364,0.529052734375,0.0139770507812,-0.687316894531,-0.49755859375
60296204898,0.528564453125,0.0145263671875,-0.687194824219,-0.498229980469
60296227388,0.528015136719,0.0147705078125,-0.687255859375,-0.498718261719
60296242465,0.527709960938,0.0152587890625,-0.687255859375,-0.498962402344
60296264883,0.527587890625,0.01611328125,-0.687194824219,-0.499206542969
60296287356,0.52734375,0.0169067382812,-0.687072753906,-0.499572753906
60296302253,0.526977539062,0.017578125,-0.686950683594,-0.500122070312
60296324854,0.526550292969,0.0183715820312,-0.686828613281,-0.500671386719
60296342677,0.525939941406,0.0192260742188,-0.686767578125,-0.50146484375
60296362339,0.525268554688,0.0203857421875,-0.686584472656,-0.502319335938
60296384786,0.524475097656,0.0217895507812,-0.686462402344,-0.503173828125
60296402598,0.523742675781,0.0233764648438,-0.686279296875,-0.504150390625
60296422411,0.522888183594,0.0244140625,-0.686157226562,-0.505187988281
60296444937,0.522094726562,0.025390625,-0.68603515625,-0.506164550781
60296462703,0.521545410156,0.0263061523438,-0.685729980469,-0.507080078125
60296482309,0.521118164062,0.0271606445312,-0.685424804688,-0.507873535156
60296504841,0.52099609375,0.02783203125,-0.684997558594,-0.508544921875
60296522626,0.520812988281,0.028076171875,-0.684631347656,-0.509216308594
60296542366,0.520629882812,0.0281372070312,-0.684387207031,-0.509765625
60296564962,0.520568847656,0.028076171875,-0.684020996094,-0.51025390625
60296582640,0.520568847656,0.02783203125,-0.683654785156,-0.5107421875
60296609813,0.520629882812,0.027587890625,-0.683288574219,-0.511169433594
60296624686,0.520568847656,0.0272216796875,-0.68310546875,-0.511596679688
60296642708,0.520629882812,0.0269775390625,-0.682861328125,-0.511840820312
60296662335,0.520629882812,0.02685546875,-0.682739257812,-0.511962890625
60296684810,0.520568847656,0.026611328125,-0.682739257812,-0.512084960938
60296702679,0.520629882812,0.0264892578125,-0.682678222656,-0.512084960938
60296722424,0.520629882812,0.0267944335938,-0.6826171875,-0.512145996094
60296744749,0.520568847656,0.0274047851562,-0.6826171875,-0.512145996094
60296762653,0.520812988281,0.0285034179688,-0.682556152344,-0.511962890625
60296783669,0.52099609375,0.030029296875,-0.682861328125,-0.51123046875
60296804747,0.520751953125,0.0328369140625,-0.683471679688,-0.510559082031
60296823334,0.520202636719,0.036865234375,-0.683532714844,-0.510681152344
60296843686,0.519287109375,0.0411987304688,-0.683288574219,-0.511657714844
60296864959,0.517639160156,0.0469970703125,-0.683532714844,-0.512512207031
60296887319,0.514526367188,0.0547485351562,-0.684936523438,-0.512939453125
60296903661,0.510314941406,0.0663452148438,-0.686706542969,-0.513488769531
60296924774,0.5048828125,0.0816040039062,-0.687683105469,-0.515380859375
60296942662,0.496459960938,0.0985107421875,-0.688049316406,-0.520080566406
60296963598,0.488464355469,0.118041992188,-0.687316894531,-0.524475097656
60296984881,0.478088378906,0.13720703125,-0.686767578125,-0.530090332031
60297002649,0.463806152344,0.158630371094,-0.685913085938,-0.537841796875
60297023646,0.447631835938,0.18310546875,-0.684326171875,-0.545715332031
60297044815,0.429748535156,0.208190917969,-0.681823730469,-0.55419921875
60297062635,0.411926269531,0.234558105469,-0.677673339844,-0.562194824219
60297083619,0.39404296875,0.261962890625,-0.671752929688,-0.570007324219
60297104728,0.375061035156,0.288452148438,-0.664489746094,-0.578491210938
60297122686,0.354614257812,0.31298828125,-0.656066894531,-0.588134765625
60297145115,0.333251953125,0.335205078125,-0.646545410156,-0.598815917969
60297164797,0.312316894531,0.356140136719,-0.636108398438,-0.609130859375
60297182599,0.292419433594,0.376220703125,-0.624755859375,-0.618591308594
60297205181,0.274169921875,0.394836425781,-0.61279296875,-0.627258300781
60297224834,0.258483886719,0.41064453125,-0.602355957031,-0.633850097656
60297242622,0.244445800781,0.423583984375,-0.593688964844,-0.639038085938
60297265199,0.231811523438,0.434265136719,-0.586181640625,-0.643493652344
60297284815,0.221374511719,0.4443359375,-0.579040527344,-0.646789550781
60297302646,0.212524414062,0.453186035156,-0.572448730469,-0.649475097656
60297325160,0.204223632812,0.459777832031,-0.567504882812,-0.65185546875
60297344909,0.196105957031,0.463928222656,-0.564575195312,-0.653930664062
60297362620,0.188232421875,0.467163085938,-0.562744140625,-0.655517578125
60297385125,0.180603027344,0.470275878906,-0.561279296875,-0.656677246094
60297404789,0.172912597656,0.473815917969,-0.559936523438,-0.657348632812
60297422596,0.164978027344,0.477111816406,-0.559387207031,-0.657409667969
60297445604,0.15673828125,0.480346679688,-0.5595703125,-0.656982421875
60297464812,0.14794921875,0.483825683594,-0.559631347656,-0.656433105469
60297482611,0.138549804688,0.484252929688,-0.559020996094,-0.65869140625
60297505172,0.135864257812,0.482971191406,-0.557312011719,-0.661560058594
60297524830,0.137329101562,0.47998046875,-0.556884765625,-0.663818359375
60297541804,0.140808105469,0.478942871094,-0.555969238281,-0.664611816406
60297564328,0.144104003906,0.480590820312,-0.55419921875,-0.664184570312
60297585532,0.145385742188,0.482482910156,-0.55224609375,-0.664184570312
60297609385,0.144775390625,0.483032226562,-0.550659179688,-0.665222167969
60297624357,0.142822265625,0.482055664062,-0.55029296875,-0.666625976562
