60092930227,0.172729492188,0.511962890625,-0.55126953125,-0.6357421875
60092951069,0.172729492188,0.511901855469,-0.551330566406,-0.635803222656
60092966066,0.17578125,0.51171875,-0.551513671875,-0.634887695312
60092989745,0.166259765625,0.511657714844,-0.548400878906,-0.640258789062
60093011165,0.164184570312,0.51123046875,-0.5478515625,-0.641479492188
60093026062,0.162353515625,0.510314941406,-0.547790527344,-0.642822265625
60093049691,0.161071777344,0.506652832031,-0.549377441406,-0.644653320312
60093071134,0.167297363281,0.506469726562,-0.551696777344,-0.641235351562
60093110470,0.175964355469,0.509887695312,-0.552734375,-0.63525390625
60093112430,0.179992675781,0.514099121094,-0.551696777344,-0.631652832031
60093132447,0.175720214844,0.515502929688,-0.549438476562,-0.633666992188
60093147368,0.173522949219,0.514892578125,-0.549072265625,-0.635070800781
60093172509,0.17333984375,0.515625,-0.549743652344,-0.633972167969
60093192516,0.173034667969,0.515869140625,-0.549682617188,-0.633850097656
60093228263,0.173034667969,0.515869140625,-0.549682617188,-0.633850097656
60093238508,0.173034667969,0.515808105469,-0.549743652344,-0.633911132812
60093252836,0.173034667969,0.515808105469,-0.549743652344,-0.633911132812
60093265866,0.171142578125,0.517395019531,-0.549072265625,-0.633666992188
60093288989,0.16455078125,0.516235351562,-0.547729492188,-0.637512207031
60093311543,0.16259765625,0.515991210938,-0.547180175781,-0.638732910156
60093326496,0.160522460938,0.515075683594,-0.546936035156,-0.64013671875
60093349055,0.157165527344,0.510925292969,-0.548095703125,-0.643310546875
60093371354,0.162109375,0.509765625,-0.550476074219,-0.640991210938
60093386374,0.170837402344,0.512817382812,-0.551818847656,-0.635070800781
60093408916,0.171813964844,0.513854980469,-0.551574707031,-0.634216308594
60093439739,0.1669921875,0.514770507812,-0.549438476562,-0.636596679688
60093446354,0.164855957031,0.513916015625,-0.549194335938,-0.638061523438
60093469017,0.165954589844,0.513793945312,-0.549377441406,-0.637756347656
60093491654,0.165832519531,0.513488769531,-0.549133300781,-0.638244628906
60093506491,0.165954589844,0.513366699219,-0.549133300781,-0.638305664062
60093528954,0.165893554688,0.513244628906,-0.549255371094,-0.638305664062
60093551536,0.165771484375,0.513427734375,-0.549133300781,-0.638244628906
60093566530,0.166198730469,0.514587402344,-0.548461914062,-0.637817382812
60093589031,0.16845703125,0.518005371094,-0.546447753906,-0.636169433594
60093611522,0.174255371094,0.521484375,-0.543884277344,-0.633972167969
60093625797,0.181884765625,0.521484375,-0.544189453125,-0.631591796875
60093649047,0.189208984375,0.519592285156,-0.545532226562,-0.629821777344
60093671512,0.196350097656,0.514038085938,-0.549743652344,-0.628479003906
60093685849,0.202209472656,0.504272460938,-0.558532714844,-0.626770019531
60093709675,0.205871582031,0.492248535156,-0.570678710938,-0.624267578125
60093731520,0.208679199219,0.478576660156,-0.584716796875,-0.620971679688
60093746369,0.210815429688,0.462219238281,-0.601013183594,-0.617065429688
60093769016,0.212951660156,0.444702148438,-0.618469238281,-0.611877441406
60093791572,0.213989257812,0.425354003906,-0.636596679688,-0.606689453125
60093806459,0.213500976562,0.404663085938,-0.654541015625,-0.601928710938
60093829065,0.211364746094,0.383605957031,-0.671752929688,-0.597412109375
60093851515,0.207641601562,0.362365722656,-0.688232421875,-0.59326171875
60093865781,0.202880859375,0.341186523438,-0.703796386719,-0.589172363281
60093888817,0.197692871094,0.319702148438,-0.71826171875,-0.585510253906
60093911486,0.19189453125,0.296936035156,-0.732116699219,-0.582275390625
60093925843,0.185119628906,0.272583007812,-0.7451171875,-0.579895019531
60093948965,0.177185058594,0.246948242188,-0.7568359375,-0.578735351562
60093971451,0.168273925781,0.220520019531,-0.767517089844,-0.577941894531
60093985770,0.158203125,0.194152832031,-0.777038574219,-0.577514648438
60094008990,0.146423339844,0.167663574219,-0.785705566406,-0.577209472656
60094039599,0.1328125,0.141723632812,-0.793762207031,-0.576416015625
60094045766,0.117370605469,0.116638183594,-0.801391601562,-0.574829101562
60094068933,0.0994873046875,0.091796875,-0.80810546875,-0.573364257812
60094091467,0.0794677734375,0.0675659179688,-0.813598632812,-0.572021484375
60094105817,0.0580444335938,0.045654296875,-0.817810058594,-0.57080078125
60094129300,0.0358276367188,0.0267944335938,-0.820678710938,-0.569763183594
60094151527,0.013427734375,0.0111083984375,-0.822387695312,-0.568725585938
60094165839,-0.0089111328125,-0.00079345703125,-0.823181152344,-0.567810058594
60094189043,-0.0315551757812,-0.0101318359375,-0.822998046875,-0.567138671875
60094211464,-0.0541381835938,-0.0174560546875,-0.822204589844,-0.566467285156
60094227144,-0.0764770507812,-0.023193359375,-0.821166992188,-0.565185546875
60094250330,-0.097900390625,-0.0274047851562,-0.819946289062,-0.563415527344
60094271501,-0.117553710938,-0.0303344726562,-0.81884765625,-0.561157226562
60094287163,-0.134765625,-0.0321655273438,-0.817932128906,-0.558410644531
60094310334,-0.149658203125,-0.0335083007812,-0.817016601562,-0.555908203125
60094331559,-0.162536621094,-0.03466796875,-0.816223144531,-0.553405761719
60094347180,-0.173217773438,-0.035888671875,-0.815979003906,-0.550415039062
60094370735,-0.181701660156,-0.0376586914062,-0.816345214844,-0.546997070312
60094391354,-0.1884765625,-0.0406494140625,-0.817016601562,-0.543579101562
60094407145,-0.194030761719,-0.0438232421875,-0.817443847656,-0.540649414062
60094430346,-0.198547363281,-0.0460205078125,-0.817565917969,-0.538635253906
60094451445,-0.202026367188,-0.0463256835938,-0.8173828125,-0.53759765625
60094467255,-0.204284667969,-0.0443115234375,-0.817138671875,-0.537292480469
60094490350,-0.205932617188,-0.0416870117188,-0.81689453125,-0.537231445312
60094511532,-0.207763671875,-0.0398559570312,-0.816528320312,-0.537292480469
60094527166,-0.209716796875,-0.0384521484375,-0.816040039062,-0.537292480469
60094550343,-0.211547851562,-0.0374145507812,-0.815734863281,-0.537170410156
60094571512,-0.213134765625,-0.0366821289062,-0.815490722656,-0.536926269531
60094587192,-0.214477539062,-0.0362548828125,-0.815246582031,-0.536743164062
60094610330,-0.215698242188,-0.0362548828125,-0.815185546875,-0.536437988281
60094631390,-0.216735839844,-0.036865234375,-0.815246582031,-0.535888671875
60094647122,-0.217407226562,-0.038330078125,-0.815246582031,-0.535461425781
60094670336,-0.217590332031,-0.0396118164062,-0.815124511719,-0.535522460938
60094691519,-0.217346191406,-0.0401611328125,-0.814819335938,-0.536010742188
60094707148,-0.217102050781,-0.0408325195312,-0.814697265625,-0.536315917969
60094730350,-0.217163085938,-0.042236328125,-0.814514160156,-0.536376953125
60094751497,-0.217163085938,-0.0438232421875,-0.814331054688,-0.536499023438
60094767170,-0.217041015625,-0.0450439453125,-0.814025878906,-0.536987304688
60094790337,-0.216796875,-0.0460205078125,-0.813598632812,-0.537658691406
60094811551,-0.216491699219,-0.0469970703125,-0.813232421875,-0.538208007812
60094827140,-0.216186523438,-0.0479736328125,-0.81298828125,-0.538635253906
60094849648,-0.216125488281,-0.0487670898438,-0.812683105469,-0.5390625
60094871573,-0.216003417969,-0.0493774414062,-0.812438964844,-0.539367675781
60094887096,-0.215637207031,-0.0498657226562,-0.812194824219,-0.539855957031
60094909701,-0.215026855469,-0.0499267578125,-0.81201171875,-0.540344238281
60094931482,-0.214416503906,-0.0499877929688,-0.81201171875,-0.540649414062
60094947195,-0.2138671875,-0.0502319335938,-0.81201171875,-0.540832519531
60094969664,-0.213134765625,-0.0504150390625,-0.812072753906,-0.540954589844
60094992814,-0.212341308594,-0.0504150390625,-0.812133789062,-0.541198730469
60095007162,-0.211181640625,-0.0501098632812,-0.812194824219,-0.541625976562
60095029662,-0.209411621094,-0.0494995117188,-0.812438964844,-0.5419921875
60095052790,-0.207275390625,-0.0489501953125,-0.812683105469,-0.54248046875
60095067103,-0.204895019531,-0.04833984375,-0.812744140625,-0.543334960938
60095089692,-0.202026367188,-0.0472412109375,-0.812805175781,-0.54443359375
60095112828,-0.198059082031,-0.045166015625,-0.812744140625,-0.546142578125
60095127173,-0.192321777344,-0.041748046875,-0.8125,-0.548828125
60095149666,-0.184753417969,-0.0375366210938,-0.812072753906,-0.552368164062
60095172782,-0.174743652344,-0.0326538085938,-0.811645507812,-0.556518554688
60095187142,-0.162292480469,-0.0270385742188,-0.811096191406,-0.561401367188
60095209686,-0.146423339844,-0.0194702148438,-0.810485839844,-0.566955566406
60095232861,-0.127136230469,-0.0105590820312,-0.809509277344,-0.573181152344
60095253969,-0.106689453125,-0.00286865234375,-0.808227539062,-0.579223632812
60095269661,-0.0858764648438,0.00347900390625,-0.806274414062,-0.585327148438
60095292793,-0.0635986328125,0.0110473632812,-0.803344726562,-0.592041015625
60095313854,-0.0386352539062,0.0216674804688,-0.798645019531,-0.600219726562
60095329632,-0.01220703125,0.0367431640625,-0.792236328125,-0.609069824219
60095352841,0.0142822265625,0.057373046875,-0.784851074219,-0.616943359375
60095373962,0.041259765625,0.0802001953125,-0.777404785156,-0.62255859375
60095389623,0.068115234375,0.101806640625,-0.769836425781,-0.626403808594
60095434645,0.0891723632812,0.119018554688,-0.761901855469,-0.630432128906
60095441579,0.104187011719,0.137084960938,-0.753112792969,-0.635009765625
60095457811,0.117736816406,0.15869140625,-0.743041992188,-0.639465332031
60095472806,0.130676269531,0.180847167969,-0.732482910156,-0.643249511719
60095487137,0.14208984375,0.203002929688,-0.721984863281,-0.646057128906
60095508969,0.152587890625,0.22705078125,-0.710205078125,-0.648681640625
60095540344,0.162353515625,0.253356933594,-0.697082519531,-0.650817871094
60095562785,0.170104980469,0.280639648438,-0.684020996094,-0.651489257812
60095577105,0.17822265625,0.307922363281,-0.670776367188,-0.650817871094
60095606529,0.183776855469,0.329895019531,-0.657165527344,-0.65234375
60095622869,0.183044433594,0.351379394531,-0.6435546875,-0.654968261719
60095644018,0.183532714844,0.370788574219,-0.628845214844,-0.658386230469
60095660391,0.184631347656,0.389892578125,-0.615356445312,-0.659729003906
60095665791,0.184387207031,0.41015625,-0.602966308594,-0.658996582031
60095688319,0.184020996094,0.42919921875,-0.589904785156,-0.658752441406
60095706121,0.188049316406,0.442749023438,-0.578979492188,-0.658325195312
60095725774,0.19384765625,0.451965332031,-0.57080078125,-0.657531738281
60095748345,0.198486328125,0.456848144531,-0.567199707031,-0.655944824219
60095766034,0.201538085938,0.459228515625,-0.567810058594,-0.652709960938
60095785868,0.204284667969,0.460021972656,-0.570495605469,-0.649047851562
60095808316,0.208923339844,0.459716796875,-0.574035644531,-0.644592285156
60095826108,0.214233398438,0.460083007812,-0.577209472656,-0.639770507812
60095845694,0.212768554688,0.4638671875,-0.577209472656,-0.637512207031
60095868295,0.200927734375,0.468933105469,-0.574462890625,-0.64013671875
60095884632,0.198852539062,0.468322753906,-0.576538085938,-0.639404296875
60095905673,0.20361328125,0.469299316406,-0.578552246094,-0.63525390625
60095928276,0.193176269531,0.471374511719,-0.576293945312,-0.639038085938
60095944637,0.200744628906,0.470520019531,-0.579711914062,-0.634216308594
60095965737,0.192443847656,0.470703125,-0.578125,-0.638122558594
60095988240,0.195068359375,0.471862792969,-0.578308105469,-0.636291503906
60096004617,0.200378417969,0.469787597656,-0.580322265625,-0.634338378906
60096025925,0.191772460938,0.468627929688,-0.578369140625,-0.6396484375
60096048952,0.188842773438,0.469604492188,-0.576538085938,-0.641479492188
60096063174,0.196533203125,0.470825195312,-0.577026367188,-0.637817382812
60096085770,0.205322265625,0.470397949219,-0.578552246094,-0.633911132812
60096108897,0.207092285156,0.468566894531,-0.5791015625,-0.634216308594
60096123325,0.206970214844,0.46826171875,-0.579711914062,-0.633911132812
60096145886,0.207153320312,0.467834472656,-0.579162597656,-0.634643554688
60096168947,0.207092285156,0.467712402344,-0.578552246094,-0.635375976562
60096183298,0.20703125,0.468017578125,-0.577880859375,-0.635803222656
