59619570348,-1,-3,-2,-1,-1,-3,-5,-3
59619570348,0,2,3,-1,-2,-1,-2,0
59619571058,-3,-6,-13,-1,-1,-1,0,2
59619571058,-2,3,9,1,-1,-2,-5,-6
59619571834,8,-3,-12,-1,-2,0,-2,0
59619571834,-6,1,-3,-1,-1,-1,-2,0
59619572707,-11,2,0,-2,-2,-2,1,-3
59619572707,-3,0,-3,-2,1,-1,-6,-1
59619577715,-1,0,0,-1,-3,0,-5,1
59619577715,-3,1,-1,1,0,2,15,-4
59619583333,4,1,1,0,-2,-1,-3,3
59619583333,-8,3,1,-1,0,1,7,-7
59619600208,1,-2,2,-1,-1,-1,-8,-3
59619600208,3,6,-7,-2,0,-2,-5,-1
59619605810,-2,1,4,0,1,-3,3,1
59619605810,3,-3,-8,-5,-3,-3,-8,-4
59619614596,-3,1,6,3,-1,0,3,1
59619614596,-4,-3,0,-1,-2,-2,-6,-3
59619644781,14,0,-2,-2,1,0,-4,9
59619644781,-17,-3,3,0,-1,-1,5,-18
59619645460,-3,-1,-4,-2,-2,0,-2,-2
59619645460,0,-11,-10,-3,-1,-1,-5,-2
59619652797,-5,-2,0,0,-2,2,4,-1
59619652797,-6,-7,-6,-3,-2,-2,-2,8
59619654897,-3,5,15,-1,0,-2,6,-1
59619654897,0,-4,-12,0,-1,-3,-7,-3
59619680625,-3,-1,3,0,-1,2,1,-7
59619680625,19,4,-1,-2,-2,-1,5,14
59619720782,-8,-3,-2,0,-1,-1,1,-1
59619720782,4,-11,-9,-3,-4,-3,-12,-7
59619721556,-2,-10,5,1,-4,-1,9,0
59619721556,0,-1,1,-1,-2,-4,-7,-5
59619722382,-2,-6,-3,-2,-3,-3,-1,-1
59619722382,-5,-4,-4,-1,-2,-2,-8,-3
59619723189,-3,-2,-7,-2,-3,-2,1,-2
59619723189,-1,-5,-3,-1,-2,-2,3,2
59619727096,-2,-2,-1,-1,0,-1,-6,-2
59619727096,-1,3,-1,0,0,-1,1,2
59619733139,-2,-3,-2,-1,-2,-3,1,1
59619733139,-3,-2,-5,0,0,2,-1,-2
59619742373,3,2,1,0,-1,-2,-2,-4
59619742373,0,0,1,-1,1,-1,-2,-2
59619756353,5,6,2,-2,-2,-1,-3,6
59619756353,-13,-3,-7,-2,-2,-4,-1,-16
59619763102,-4,-1,-1,0,-1,0,-10,-4
59619763102,-4,0,-2,-1,-2,0,8,2
59619778176,4,1,-3,-3,-1,-1,-2,3
59619778176,-5,2,3,-1,0,0,-12,-2
59619787100,13,4,0,2,-2,1,11,6
59619787100,-6,-5,-5,-1,-1,-2,-1,-4
59619802035,4,3,3,-3,1,-1,-1,2
59619802035,5,8,-4,-2,-1,-1,1,4
59619803543,-4,-2,-5,-4,0,-3,-10,-7
59619803543,-3,1,-3,-1,-2,1,6,3
59619824640,-5,1,-3,0,-1,2,0,-5
59619824640,-1,0,-2,-2,-1,-3,-4,0
59619826142,-4,0,-2,0,-1,1,9,0
59619826142,3,4,0,0,2,1,-13,-3
59619838315,-2,2,-6,-2,0,-2,1,-3
59619838315,-3,6,10,1,1,1,4,-1
59619847142,2,4,-2,1,3,1,1,3
59619847142,-2,0,1,0,2,0,4,3
59619862114,-1,9,12,3,2,1,-5,-5
59619862114,2,-8,-16,0,0,-1,5,6
59619863588,4,1,4,0,-2,0,-4,-4
59619863588,-18,-3,-3,-4,-3,0,-1,-4
59619884584,-6,-2,-4,-1,2,1,-6,-3
59619884584,10,3,6,-2,-3,0,3,9
59619886092,-6,2,-2,0,-1,1,-3,-5
59619886092,-13,-4,-11,-5,-3,-4,-1,-8
59619898197,1,-16,2,2,-1,0,6,1
59619898197,-1,-4,-2,0,0,-1,-7,-2
59619907152,1,1,-2,-2,-2,-3,9,5
59619907152,1,1,7,-1,3,-1,0,-8
59619922629,0,2,-4,-3,-1,-4,-1,1
59619922629,2,-1,2,-2,0,2,-2,-5
59619924013,-5,-4,-1,-2,-1,-2,-8,-5
59619924013,6,1,2,-2,-1,-2,10,5
59619944440,-4,-5,-10,-4,-4,-3,-4,-2
59619944440,-2,-3,0,1,-2,-3,-1,-2
59619946020,-3,-1,-7,-2,-2,-2,1,-1
59619946020,4,0,6,0,-2,-2,-10,-2
59619967101,-2,-1,-3,-1,0,1,0,-3
59619967101,-4,-4,-1,-3,-1,1,6,0
59619968599,1,-1,0,-1,0,-2,-8,1
59619968599,2,6,8,0,0,1,6,-5
59619981985,5,-7,-14,1,-2,0,1,6
59619981985,1,1,1,-1,-1,-3,-4,-2
59619983660,1,-2,-3,-3,-1,-1,5,1
59619983660,-4,0,4,1,0,0,-6,-1
59620004745,-1,11,8,-1,-2,-2,0,3
59620004745,-15,-4,-4,0,0,-1,-9,-10
59620006189,14,-1,-3,-1,-2,-1,5,2
59620006189,2,-5,5,1,-1,0,1,8
59620027111,-6,0,0,1,2,-1,-5,-11
59620027111,-4,-2,-3,-2,-1,0,4,-1
59620028627,-1,-2,2,2,0,-2,-3,1
59620028627,3,2,-5,-2,-3,-2,3,-1
59620042080,0,-3,1,-2,0,-2,-6,1
59620042080,4,-1,1,1,-1,1,5,1
59620043567,-7,-1,0,-2,1,1,-8,-4
59620043567,9,0,-4,-1,-1,-1,0,6
59620064524,-8,-2,1,-2,-1,2,6,-2
59620064524,3,1,0,-2,1,-1,-1,-3
59620066136,-3,-1,-2,-1,-1,-2,0,-1
59620066136,-2,1,1,-1,0,-2,-5,0
59620087137,2,4,6,2,-3,-3,-3,-4
59620087137,-2,-4,-3,-3,-2,-1,0,-1
59620088569,-5,-4,-4,-1,-1,1,2,-1
59620088569,0,1,0,-1,-1,0,-3,0
59620101438,1,0,-4,-2,-1,-2,-4,-4
59620101438,2,-1,0,1,-1,-2,6,2
59620115655,-6,-3,2,-3,-1,0,-4,0
59620115655,-1,-2,-5,-3,-3,-1,-3,-3
59620124485,-1,-2,2,1,0,0,1,-1
59620124485,0,-1,-4,0,-3,-1,-5,1
59620126104,0,1,4,-2,-1,-1,-4,-5
59620126104,3,1,-5,0,1,1,2,1
59620147239,-11,-4,-4,0,-2,1,11,2
59620147239,-1,-1,1,0,-1,-2,-7,-5
59620148596,-1,-2,-5,1,-2,-4,-1,-6
59620148596,4,13,12,0,-1,-1,-1,1
59620161506,-4,-1,-6,-2,0,-3,-4,-7
59620161506,1,0,-3,-3,-1,0,0,2
59620168194,-1,2,5,-2,0,3,3,1
59620168194,-4,-5,-5,1,-2,-4,-10,-3
59620184576,0,-3,-2,-4,-2,1,5,1
59620184576,0,0,0,-1,-2,-1,2,0
59620186001,-2,-4,-5,-2,-3,-3,-5,1
59620186001,0,-3,-3,-1,-1,-2,0,-3
59620207094,2,2,2,1,0,-2,-6,-3
59620207094,1,0,1,-2,0,0,-1,-2
59620208632,0,2,-2,-4,0,-2,2,2
59620208632,-2,-5,-2,0,0,1,2,-1
59620221458,1,1,1,0,-1,-2,-6,1
59620221458,1,-2,0,0,0,-1,0,2
59620235670,-1,-3,0,2,-1,-1,-3,-1
59620235670,-1,-1,-4,-5,-1,2,2,-1
59620244469,0,-3,-4,-2,0,-1,-5,1
59620244469,2,1,4,2,0,1,-1,0
59620246063,-11,0,-3,-1,0,1,1,-2
59620246063,11,-5,-1,1,0,-1,1,2
59620274626,6,0,4,3,-4,-3,-2,0
59620274626,0,0,-3,-7,2,1,1,2
59620276149,-2,-4,-18,-29,-8,-4,-3,-3
59620276149,-5,-3,1,20,3,-2,-2,-3
59620296979,-3,-3,10,17,6,3,-2,-2
59620296979,-1,-6,-25,-21,-12,-7,-5,-3
59620298730,0,1,29,9,4,5,2,1
59620298730,-5,-7,-29,-20,4,1,3,1
59620304529,1,1,9,5,-2,-3,-4,-3
59620304529,-4,0,-9,-6,-8,-7,-4,-3
59620306092,5,7,-6,-2,-6,0,0,0
59620306092,-6,-11,20,-3,-6,2,2,0
59620327026,5,4,17,23,14,9,4,4
59620327026,-4,-7,-14,-30,-2,-4,-2,-3
59620328595,0,-4,-11,1,1,-6,-2,-2
59620328595,-4,-2,-12,-4,-9,-8,-8,-4
59620340656,-4,1,-12,-2,-1,0,1,-1
59620340656,-3,5,18,26,7,0,1,2
59620349575,3,1,5,6,-1,0,-1,1
59620349575,-1,4,3,-1,-1,-4,-5,-1
59620364529,-6,-7,-4,-15,-5,4,4,-2
59620364529,2,4,9,14,6,4,1,2
59620366025,0,5,7,-5,-6,-4,1,-1
59620366025,-5,-9,-12,7,-6,-3,-5,-4
59620387119,3,3,-5,-14,-6,-8,-3,-1
59620387119,1,-2,1,3,6,9,3,1
59620388622,-2,-1,4,-3,4,1,1,0
59620388622,2,7,10,8,10,5,1,0
59620400701,-2,-6,-13,-15,-12,-4,-5,-3
59620400701,1,-2,17,7,-10,-4,-3,0
59620409615,-4,-12,-35,-10,1,3,-2,-4
59620409615,2,7,5,16,4,0,1,1
59620424474,-4,-5,-13,-6,-2,-5,-5,-5
59620424474,0,2,2,-8,3,-1,-2,-1
59620426080,3,-1,10,9,1,1,-1,0
59620426080,-1,-4,1,8,1,2,2,-1
59620447158,-2,-1,-3,-1,2,0,0,2
59620447158,-1,0,1,2,-5,-4,-7,-2
59620448544,-2,0,3,7,7,5,4,1
59620448544,0,-1,-3,-9,0,0,1,-1
59620460700,0,1,4,0,-2,2,2,2
59620460700,-2,0,-7,-6,-4,-4,-1,-1
59620469639,0,3,5,-2,-5,-6,-4,-2
59620469639,0,2,-2,-6,-4,-1,-3,-2
59620484589,-3,-4,0,5,3,6,-1,-1
59620484589,0,-1,-9,-24,-6,-3,0,-1
59620486089,-1,-4,3,19,-9,0,0,-2
59620486089,1,0,5,-7,-15,-10,-1,0
59620506897,-2,1,-7,0,-1,-1,-5,-4
59620506897,-1,-3,-3,4,6,1,4,1
59620513374,3,4,2,-1,12,5,1,2
59620513374,-2,-2,4,-4,0,3,0,-2
59620520745,2,-1,-5,-17,-12,-8,-3,-2
59620520745,0,4,7,11,1,-1,-2,-1
59620529610,-2,-9,-14,-5,-5,-4,0,-2
59620529610,2,-1,-2,-1,-2,0,0,0
59620552110,3,-3,1,-8,2,-4,0,0
59620552110,1,-3,-3,6,-4,2,0,-2
59620553591,1,-4,2,13,5,1,0,0
59620553591,-1,-3,-9,-19,-13,-1,1,1
59620567085,2,2,5,5,7,-4,-3,-1
59620567085,-2,-3,6,6,-2,2,1,-2
59620568601,-3,-4,-7,2,-5,-9,-2,-2
59620568601,-2,-5,-5,-8,-3,-1,1,-4
59620588526,-3,-1,1,-11,-12,-7,-4,-2
59620588526,-2,0,-3,5,10,2,1,-3
59620597134,-5,-2,-1,-8,-5,-2,-5,-2
59620597134,-3,4,1,11,14,3,2,0
59620604567,-1,-6,-15,-6,-1,3,2,1
59620604567,-5,-3,-4,1,-2,-2,-5,-3
59620606075,-3,3,11,11,1,-4,-2,1
59620606075,-1,1,2,-21,-21,-7,-1,0
59620634586,0,5,-1,8,6,0,0,1
59620634586,-5,-3,-11,-19,-4,1,1,-1
59620636076,0,4,14,-3,-1,1,2,1
59620636076,-4,-4,-14,2,1,-1,-4,-2
59620640712,-1,-1,9,15,2,0,-2,-3
59620640712,-1,-1,2,10,2,-1,0,2
59620649632,0,-2,-7,-16,-7,-2,-4,-1
59620649632,2,0,4,-7,-2,5,3,1
59620664616,-2,0,-12,-8,-2,-11,-7,-3
59620664616,-1,-1,7,-3,1,4,-1,-3
59620666072,1,-6,-20,-11,6,-3,-3,-2
59620666072,-4,-1,5,24,4,3,0,0
59620685733,0,0,20,-2,-5,2,2,0
59620685733,-2,-3,-13,-10,1,-3,1,0
59620694583,1,0,2,0,-5,-1,-2,-2
59620694583,2,1,3,-9,-1,-5,0,0
59620709755,-3,0,-10,5,4,3,1,-1
59620709755,-1,-2,6,-10,-9,-7,-6,-3
59620711127,1,5,2,8,0,-2,-3,0
59620711127,2,2,2,6,8,1,3,0
59620731364,-5,-7,-12,-13,1,1,2,-4
59620731364,0,-1,-4,-4,-7,-2,-2,-2
59620732063,-2,1,6,-7,-9,-3,-1,-4
59620732063,-1,2,13,39,26,8,0,-1
59620754481,-2,-3,7,4,0,4,2,0
59620754481,-3,-8,-10,-17,-11,-5,0,0
59620755322,-3,-5,4,5,-4,-6,-3,0
59620755322,0,0,-6,-18,-10,-1,-7,-1
59620768795,-3,0,-16,-11,7,4,3,1
59620768795,2,3,4,14,3,0,0,2
59620769515,-2,-6,-1,-12,-11,-1,1,0
59620769515,-1,-4,-4,-15,0,-3,-3,-3
59620791372,4,0,6,16,-1,2,3,4
59620791372,-1,-1,4,11,0,-2,-4,-5
59620792079,-2,0,4,3,5,3,0,-1
59620792079,-4,-2,-8,-5,1,-3,-1,-1
59620805647,7,1,2,-6,-6,-2,-3,-2
59620805647,0,0,11,19,9,7,5,5
59620813936,-3,-1,-17,-12,0,1,0,-1
59620813936,1,-2,1,-10,-10,-7,-5,-2
59620828947,-1,3,12,-3,-3,-3,-4,-2
59620828947,3,-1,-14,0,5,5,5,1
59620829597,0,-1,10,6,3,1,0,-1
59620829597,-5,-4,-3,-7,-6,-6,-4,-2
59620851312,2,1,10,17,-6,-5,-6,-1
59620851312,2,0,-5,-7,-4,-4,-8,-2
59620852069,-1,2,0,1,7,7,11,1
59620852069,3,3,11,11,1,1,1,0
59620865711,-5,-4,-6,-2,-1,1,0,-5
59620865711,-3,1,7,6,0,-3,-3,1
59620873939,-1,1,-5,-1,1,-6,-5,-3
59620873939,1,-3,-6,-16,-18,4,1,1
59620888829,-4,-1,-3,-1,1,-4,3,0
59620888829,-4,-3,-3,-4,9,4,1,-2
59620889532,3,-7,5,8,-10,-6,-5,0
59620889532,0,0,-3,-5,2,-3,-4,-3
59620911484,-3,-4,-3,2,-2,1,-3,-3
59620911484,-5,-2,-3,-7,-2,-2,-2,-8
59620912086,1,0,-10,-17,7,7,6,4
59620912086,-1,0,3,16,3,0,-2,-1
59620925680,-2,0,-1,0,-6,-3,-2,1
59620925680,8,3,6,1,-5,-7,-4,4
59620933940,-7,-1,-12,-1,-4,-3,-3,-10
59620933940,-4,-4,-7,-11,5,4,5,-1
59620948784,-4,-2,-3,-10,3,-1,1,-2
59620948784,0,-1,2,2,-8,-4,-2,4
59620949542,-2,-4,4,7,-3,-2,-5,0
59620949542,-2,0,6,3,4,4,4,1
59620971484,1,-3,2,-2,0,0,-1,0
59620971484,-2,-5,-14,-11,-4,-3,0,-3
59620972084,2,3,2,-3,-3,-2,-3,0
59620972084,-4,-3,-4,4,2,0,0,-3
59620985746,1,1,0,1,-1,-2,-4,0
59620985746,-3,0,2,-16,-13,2,4,1
59620994015,-7,-2,0,8,5,1,-1,-7
59620994015,6,-3,-3,9,-2,-6,-8,6
59621008886,1,1,-4,-14,-4,-2,-2,0
59621008886,-2,-2,-3,5,12,4,6,1
59621009579,2,1,11,11,-3,-4,-2,3
59621009579,0,1,-7,-11,-5,-3,-2,0
59621031893,-6,-3,-6,-2,0,-1,-3,-10
59621031893,-4,4,17,14,0,-2,-3,1
59621032564,-2,-4,-7,-5,3,4,4,0
59621032564,2,4,10,1,-3,-3,-5,-1
59621045724,11,-3,-24,-11,-5,-2,1,10
59621045724,-11,-2,4,2,7,7,0,-10
59621053870,-4,-5,-4,-10,-2,0,0,-2
59621053870,3,1,3,4,-1,-4,-3,1
59621068821,-3,2,1,-10,-3,-3,4,0
59621068821,4,1,12,19,2,0,-2,3
59621069539,1,1,-5,-7,-2,-2,-4,-1
59621069539,-4,-4,-5,-6,0,-1,0,-3
59621091425,-1,-2,5,11,3,4,8,5
59621091425,0,-2,-2,5,1,-7,-9,-7
59621092057,2,3,-1,-13,-8,1,-1,-2
59621092057,-6,-5,-8,-5,-5,-4,-4,-5
59621105737,1,-5,-1,-4,-1,-1,-4,0
59621105737,2,0,1,5,3,2,4,4
59621113891,1,-2,-1,8,1,-1,-2,1
59621113891,-2,0,3,2,3,3,3,0
59621128862,-2,-1,3,-1,-1,-1,-4,0
59621128862,-3,-1,-8,-13,-9,-6,-9,-8
59621129514,0,-3,-3,-1,4,3,3,0
59621129514,-3,-2,8,7,1,-3,-2,-1
59621151357,-1,-1,0,3,3,2,-2,-1
59621151357,3,-2,-18,-14,-6,-4,-4,2
59621152087,-2,-5,-2,0,-10,-4,-4,0
59621152087,1,-2,3,-5,2,-1,1,1
59621165675,-3,1,5,9,4,0,-3,-3
59621165675,1,-2,-9,-14,1,4,6,1
59621173859,-3,0,7,9,7,-3,0,-2
59621173859,8,0,1,2,-8,1,-3,5
59621188785,-4,3,11,9,0,-2,5,-10
59621188785,-14,-4,-4,-12,-8,-5,-11,-8
59621189546,4,-5,-12,-2,5,7,-1,3
59621189546,3,0,-1,-5,0,-2,5,2
59621211399,2,-1,-1,2,-1,0,0,3
59621211399,5,1,0,3,6,5,4,1
59621212037,-1,1,1,-3,-4,-8,-5,-1
59621212037,-9,-5,-2,1,-1,-4,-8,-5
59621227085,-2,-6,-1,-2,1,2,-2,-1
59621227085,-1,-4,-3,1,-4,-2,-6,0
59621234058,0,0,0,-3,2,0,4,1
59621234058,-1,-1,-13,-5,-3,-2,-4,-3
59621248796,-2,0,1,-2,-1,0,2,-1
59621248796,3,0,9,5,-2,-2,1,1
59621249559,-4,-1,-8,-11,-6,-5,-7,-2
59621249559,-1,-1,2,-6,3,1,1,-1
59621271416,-4,-2,-4,4,0,1,-2,-2
59621271416,-1,-1,10,6,-2,-5,2,-3
59621272080,2,-2,-8,-16,-4,-1,3,-2
59621272080,-1,2,6,9,-8,-11,-5,-5
59621285763,-1,-3,-10,-5,12,11,1,4
59621285763,0,-5,4,9,-3,0,2,0
59621293748,-3,2,-1,0,-4,-8,-3,-4
59621293748,-2,-1,-6,-2,-2,-2,0,0
59621308809,-2,3,1,-3,-3,-4,-2,3
59621308809,2,-1,-5,1,5,7,1,9
59621309568,-4,0,8,2,3,-1,7,-3
59621309568,-4,-2,-3,-1,1,0,2,-3
59621331386,1,0,-5,-2,-8,-6,-6,-3
59621331386,-5,0,-5,-6,1,2,0,-5
59621332064,1,0,2,0,-7,-2,-7,1
59621332064,1,2,-1,-1,0,2,2,0
59621345738,-1,0,1,-6,1,-1,-1,-5
59621345738,2,0,-9,-1,-3,-5,-3,2
59621353915,-2,-2,2,3,0,-2,-2,-1
59621353915,-2,-1,-2,3,-1,-2,-11,-5
59621368896,2,-1,-3,-7,-7,-3,7,1
59621368896,-2,-1,4,2,-1,-3,-4,-3
59621369585,-1,2,-4,-2,1,2,1,1
59621369585,-1,-1,-8,-3,7,2,-2,0
59621391451,-3,-1,8,3,-5,-8,-6,-1
59621391451,-1,2,3,4,-1,-2,2,2
59621392065,-3,-5,-6,0,-3,-1,-5,-5
59621392065,-2,-3,-7,-4,1,0,-1,-1
59621414453,0,1,0,-6,-2,1,-3,0
59621414453,0,-2,2,-3,-3,0,6,-2
59621415313,1,1,2,0,-1,-1,3,2
59621415313,1,-4,-2,-5,-3,0,2,2
59621428873,0,-2,1,7,3,1,-2,-1
59621428873,-5,-3,-1,-4,-1,1,-5,-8
59621429512,9,0,0,2,-2,-5,-23,3
59621429512,-11,9,9,5,3,5,14,-11
59621451669,-2,-3,-2,1,-5,-3,0,1
59621451669,0,-2,-9,-17,-4,-2,-3,-3
59621452089,0,0,6,9,3,-3,-3,-1
59621452089,0,-1,4,9,1,-2,-4,4
59621474554,-1,-4,-6,-7,0,1,-1,0
59621474554,-1,-4,-11,-7,0,2,6,-2
59621475229,-3,-3,-2,-4,-6,-5,1,-1
59621475229,0,-1,-2,-9,-3,-2,-5,-1
59621488848,-2,2,13,14,9,4,5,-3
59621488848,3,-4,-2,8,6,0,-3,2
59621489607,-7,-5,-13,-10,-5,3,4,-2
59621489607,0,-3,1,2,-2,-2,-4,0
59621511357,-1,-2,-10,-11,-5,-5,-3,0
59621511357,-1,3,2,-5,-1,-1,8,2
59621512064,-2,-3,6,1,4,6,-7,-6
59621512064,1,-2,-4,-8,-6,-2,5,0
59621534506,3,1,-2,2,-4,-7,-5,0
59621534506,-1,0,0,8,2,-4,-11,-1
59621535291,1,0,7,-5,-3,1,4,3
59621535291,1,-2,-3,0,0,-3,-5,0
59621548844,-2,-6,-9,-10,-3,-2,4,-5
59621548844,0,-1,0,-4,-3,-3,0,-1
59621549544,-2,-4,-3,6,6,4,-1,-3
59621549544,2,11,11,5,5,4,4,1
59621571505,-2,-2,2,6,0,1,-4,-3
59621571505,0,-2,0,-2,-5,-3,-1,-2
59621572038,0,-2,3,-4,-3,-5,0,-2
59621572038,-3,-8,-11,-5,-1,1,1,2
59621594569,-1,-3,-4,3,4,-1,1,1
59621594569,1,1,2,-1,-2,1,-1,0
59621595251,-2,2,1,5,-2,0,2,-1
59621595251,-4,-3,2,1,-2,-3,-2,-4
59621608885,7,1,-1,-7,-7,-6,-5,4
59621608885,0,-4,-4,0,0,4,-5,4
59621609585,4,0,1,-1,-2,-1,10,3
59621609585,-7,-5,-10,-5,-3,-1,-8,-9
59621631313,-4,-3,-3,-1,0,4,3,-1
59621631313,-4,1,0,0,1,0,0,-5
59621632131,0,0,-3,-8,0,-1,3,2
59621632131,0,-2,3,3,-3,-6,-4,0
59621654593,-2,-1,-9,-2,-2,-3,-4,-2
59621654593,4,4,10,10,-5,-1,2,1
59621655390,-3,-2,-3,-1,2,1,-4,-4
59621655390,2,-5,-4,-4,0,0,4,-1
59621668859,-4,-7,-6,-3,-3,0,2,2
59621668859,-1,-1,1,-1,-2,-4,-1,-1
59621669539,-6,-4,-3,0,-3,-1,-1,-3
59621669539,-1,3,6,1,-1,-1,-1,-2
59621691357,-1,0,2,1,-1,-1,-6,-3
59621691357,1,9,2,-3,1,0,0,-1
59621692031,0,-1,-1,7,-2,-2,-1,0
59621692031,-1,0,-1,-5,3,-1,-6,1
59621714431,-4,1,-3,-2,-1,1,5,0
59621714431,-1,-2,0,-1,-4,-5,-2,-2
59621715219,-2,-3,-1,-3,-3,-3,-12,-4
59621715219,2,-1,-6,-3,0,5,8,-2
59621728748,-1,2,3,1,-4,-4,0,0
59621728748,-1,-4,-6,-7,-1,-1,-3,-1
59621729510,-1,0,0,-1,0,-1,-3,-1
59621729510,-4,-4,0,5,2,2,2,-1
59621751251,2,-1,7,3,-1,-2,-6,-4
59621751251,2,-1,2,4,-4,-5,-3,0
59621752014,-3,1,-3,2,-1,1,6,1
59621752014,0,-4,-6,-8,-4,-2,-5,2
59621774446,-2,0,1,-5,1,1,4,-1
59621774446,-4,-2,0,-6,-2,-3,-7,-5
59621775306,1,0,-4,2,2,0,0,0
59621775306,4,-1,1,0,2,0,-7,6
59621788866,-11,0,-5,-6,-6,-2,7,-15
59621788866,-2,-5,2,8,1,0,-5,-3
59621789590,-1,0,-4,2,2,0,5,1
59621789590,1,0,3,-2,-1,0,1,1
59621811336,4,-5,0,1,-1,-3,-10,3
59621811336,-2,-4,-12,-7,-4,-4,-7,-4
59621811994,-2,3,5,2,3,2,13,3
59621811994,3,-1,3,7,0,-1,5,1
59621834694,3,1,-2,-6,0,-1,-7,1
59621834694,-5,2,9,2,-2,0,8,-1
59621835237,-2,0,-7,-4,-1,0,-12,-4
59621835237,-2,-2,-6,-7,-5,-4,-8,-5
59621848844,0,0,3,-1,-2,0,7,2
59621848844,1,-4,-5,4,2,-1,-5,0
59621849631,0,-3,2,1,3,4,5,0
59621849631,0,0,5,2,2,-1,4,3
59621872106,-1,-1,-7,-8,-4,1,-5,-6
59621872106,0,-1,-5,-2,0,0,7,3
59621872733,-2,-2,3,-1,-7,-6,-6,-4
59621872733,-1,0,-3,-7,-4,-1,-1,-4
59621894590,2,1,3,3,1,0,-1,2
59621894590,-4,-5,-3,-2,3,4,-3,0
59621895334,-2,-4,3,7,0,1,4,-1
59621895334,-6,-4,-5,-1,-3,-2,-1,-3
59621908813,6,6,2,0,-2,0,-5,6
59621908813,0,-1,1,-8,-3,-2,-2,-1
59621909547,0,-2,-13,-14,-2,-1,-11,-2
59621909547,-3,2,7,9,-3,-1,12,1
59621932066,-3,-5,6,-1,-3,-5,-6,-5
59621932066,4,18,3,2,0,-2,-5,-1
59621932736,-1,-4,-7,-6,1,1,3,-1
59621932736,0,-1,1,1,-2,-2,-6,0
59621954611,3,-1,-12,-7,0,2,1,7
59621954611,-5,-5,0,1,-3,1,1,-7
59621955336,-1,2,3,1,0,-6,-4,1
59621955336,-3,-1,0,4,4,3,-4,-7
59621968858,3,-1,-1,0,-5,-3,7,4
59621968858,1,-5,-6,-4,-2,-4,-1,0
59621969542,1,1,1,2,-1,-2,-2,0
59621969542,1,-6,-10,-13,-4,0,1,3
59621992069,-5,2,3,-1,-3,-4,-8,-5
59621992069,-2,-3,-7,-1,3,2,7,1
59621992762,1,-1,3,-11,-8,-2,8,3
59621992762,1,1,6,14,2,0,-12,-3
59622014568,-4,-4,-3,-6,-1,-2,1,-5
59622014568,-3,-3,4,4,2,0,-4,0
59622015213,2,2,0,1,-2,-3,-4,1
59622015213,-1,-1,-2,-8,-1,0,-2,-1
59622028185,-2,0,-3,-5,-3,-2,-1,3
59622028185,0,-4,-5,-4,-1,0,-1,-2
59622036478,-1,0,-3,-1,0,0,-3,-3
59622036478,3,19,2,-5,-2,-3,-1,-2
59622052105,-4,-4,3,5,2,2,-1,0
59622052105,-5,-4,-6,3,-1,-4,-8,-8
59622052763,4,-6,4,2,0,4,17,8
59622052763,-3,-2,1,-7,-2,-2,0,0
59622074598,2,2,2,4,0,2,2,-2
59622074598,-1,0,3,-3,-2,-4,-10,0
59622075236,-2,0,-6,-8,-3,-3,-7,-6
59622075236,-5,-6,-5,6,0,3,7,-2
59622097244,1,-3,-1,-3,-3,-3,-8,-2
59622097244,-2,-2,-5,-3,-1,2,5,-1
59622097767,-4,2,10,5,0,-1,-2,-2
59622097767,1,-4,-4,-11,2,2,4,4
59622112092,-4,1,7,11,0,-2,2,2
59622112092,0,-2,1,10,-1,-2,-2,-5
59622112763,-3,-4,-7,-5,-2,-2,-2,-1
59622112763,7,-4,0,3,-2,-3,-6,3
59622134537,-13,-2,-7,-10,-2,0,1,-17
59622134537,3,-2,0,4,5,3,6,5
59622135236,-4,-2,0,-1,-3,-4,2,-2
59622135236,-1,0,-4,3,-2,-2,2,1
59622148225,4,-2,-2,-2,-3,-4,-13,-1
59622148225,4,20,-1,-9,-4,-2,9,4
59622156387,-3,2,3,6,7,2,-2,0
59622156387,0,-2,-3,0,-2,-1,1,-2
59622172100,-3,-4,1,-4,-1,-2,3,2
59622172100,-3,-1,2,1,-3,-2,-8,-6
59622172738,3,2,-4,-2,-1,1,-5,1
59622172738,-2,-1,-2,-6,-3,-4,-2,-4
59622194567,2,3,5,7,7,2,-1,3
59622194567,-1,-10,-17,-11,2,0,6,-1
59622195230,1,-2,9,4,-5,-3,0,1
59622195230,-5,-7,-11,-13,-4,-5,-15,-11
59622208177,-3,0,2,11,1,3,7,-2
59622208177,-2,-2,0,-1,1,2,2,2
59622216427,0,1,5,10,2,-1,-2,-2
59622216427,-3,-1,0,1,0,0,-5,0
59622232059,2,-2,-6,-7,-3,-1,10,2
59622232059,0,-1,-1,-7,-4,-3,-4,3
59622232740,1,-1,-3,-2,-3,-1,4,1
59622232740,-9,-7,-2,0,-2,-1,-10,-11
59622254560,-3,-6,-3,-1,2,-2,-3,-3
59622254560,9,-2,-1,-1,-3,0,2,6
59622255375,-4,-5,-6,-5,-3,-6,-8,-3
59622255375,2,-2,-1,0,-1,-1,3,3
59622268097,-2,-5,-1,4,2,-2,-4,-3
59622268097,-4,2,4,0,-4,-4,-5,-5
59622276259,-3,-6,-16,-15,-4,-1,-5,-2
59622276259,-4,-2,6,14,1,2,13,4
59622291393,4,2,-1,-3,-2,-7,-3,1
59622291393,-6,-2,3,-2,-2,1,0,-4
59622298189,0,0,0,1,3,1,-1,-2
59622298189,-1,1,-1,0,1,0,-2,0
59622314684,0,3,-3,-8,-4,-1,-3,0
59622314684,-2,-5,-1,3,3,0,-4,0
59622316048,-3,-3,-3,-3,-2,2,7,-1
59622316048,-1,0,4,0,-1,-2,4,-3
59622328112,-1,-1,1,3,2,3,6,5
59622328112,-1,-3,-7,-10,-5,-3,3,2
59622337044,-1,2,13,12,1,-2,-10,-7
59622337044,3,-5,-13,-13,-4,-3,-6,0
59622352134,2,-1,4,3,2,4,0,0
59622352134,-2,-2,7,8,7,5,5,3
59622353567,3,0,-5,-1,-4,-3,-5,1
59622353567,-9,-8,-2,-8,-4,-2,-1,-8
59622374567,-2,-5,-1,-3,-4,-4,-7,-4
59622374567,-1,-3,-4,-1,-5,-3,-4,-6
59622376015,4,0,-1,0,4,0,6,4
59622376015,2,4,0,0,2,-3,3,4
59622397066,-5,2,0,3,-2,0,-8,-6
59622397066,0,-2,-1,4,5,2,4,3
59622398557,2,2,-3,-4,-6,-4,-7,1
59622398557,-4,2,-1,-4,1,2,0,-8
59622412081,1,-2,1,0,-1,-2,6,0
59622412081,1,-1,-7,-7,-5,-6,-7,-2
59622413607,-6,-6,2,2,2,2,5,-3
59622413607,0,-1,-3,2,-1,-3,-2,6
59622434605,0,0,0,-6,3,1,-4,0
59622434605,1,3,2,11,-3,-5,-7,-5
59622436108,-3,-5,-19,-14,-4,1,3,0
59622436108,0,4,7,3,-2,1,-1,-1
59622457083,-3,2,-2,1,-3,-4,-5,-2
59622457083,-7,-3,-3,-14,-5,-1,-2,-5
59622458603,4,1,-3,-1,3,-2,-5,2
59622458603,4,5,-3,1,-6,0,0,-1
59622471969,2,-8,0,-5,-3,-2,0,3
59622471969,-1,-1,-2,2,-2,-4,-1,-2
59622473639,-5,1,2,2,3,1,0,-4
59622473639,2,2,-1,-2,1,-1,1,-1
59622494708,-1,3,-3,0,-1,-3,-8,-3
59622494708,-1,-1,0,3,-3,-3,9,0
59622496052,-2,-2,4,-7,-2,1,3,2
59622496052,0,-4,-4,-1,2,-1,-16,-7
59622517201,-1,-1,-3,0,-1,0,14,2
59622517201,1,-3,3,2,1,3,2,1
59622518571,-1,1,-1,2,0,-1,-1,-1
59622518571,1,-1,-1,-9,-3,-2,-6,1
59622531365,-3,1,0,4,-1,-1,-4,1
59622531365,-9,-2,-5,-1,3,1,-3,-8
59622538179,0,0,0,-5,-3,-4,-4,-2
59622538179,-2,-2,-7,2,-2,-3,3,1
59622554619,-1,-3,-2,-6,-2,0,-2,-3
59622554619,2,-1,3,1,2,0,-2,0
59622556041,-5,-1,5,1,1,2,4,-2
59622556041,5,-3,3,5,2,2,-3,7
59622577096,-8,1,-2,3,-1,-3,6,-7
59622577096,-1,-1,-8,-9,-7,-1,0,-3
59622578580,11,-4,-2,1,-3,-4,-4,-1
59622578580,-14,-3,-2,-2,0,-1,2,-8
59622591474,10,-7,-2,-9,-6,0,2,12
59622591474,0,-2,0,-2,-1,0,-4,2
59622598155,-4,0,-1,2,-3,-1,-1,-4
59622598155,-2,1,-2,-3,-2,-2,3,6
59622614567,3,1,-1,4,2,-3,-11,-6
59622614567,-3,-1,-1,-6,-1,-3,-2,-2
59622615996,13,3,4,1,3,1,-3,12
59622615996,-3,0,7,6,2,5,16,-13
59622637035,-1,3,-7,-4,-4,-2,-1,3
59622637035,-5,-6,0,-4,-3,-3,-6,-2
59622638571,-4,1,1,0,2,2,-3,-4
59622638571,4,-4,-1,0,-1,-1,2,4
59622651359,-16,-2,-1,-3,1,-1,5,-7
59622651359,26,-1,-2,5,-1,-1,-2,9
59622658211,-5,7,6,1,-2,-2,-4,-4
59622658211,0,-6,-5,-1,-4,-5,-14,-6
59622674570,-2,-1,-3,-3,2,3,1,-1
59622674570,-10,7,5,5,2,-1,0,-3
59622676089,-6,-3,-6,-3,-3,-2,-2,-2
59622676089,8,2,-2,-6,0,3,4,9
59622697064,-1,0,4,4,0,-2,-4,-2
59622697064,-4,0,0,-4,-1,-1,0,1
59622698540,-1,-5,-3,0,-1,-2,1,-3
59622698540,-5,0,1,-3,-3,-6,-8,-7
59622710637,3,-6,-2,0,-1,-1,1,6
59622710637,0,2,1,0,0,1,-11,-7
59622719565,6,-5,-8,0,1,1,11,7
59622719565,-5,-3,6,5,-2,-3,-2,-2
59622734477,-2,0,-5,-2,0,0,0,-1
59622734477,-9,-4,-1,-3,-5,-4,1,-7
59622736025,0,-1,-3,-3,-3,-2,-9,-7
59622736025,1,3,-1,4,3,3,1,2
59622757080,7,2,2,6,3,1,-3,1
59622757080,-4,-6,2,-1,0,0,3,1
59622758548,-4,-3,-5,-7,-5,-3,-2,-3
59622758548,-1,0,0,-3,2,0,3,1
59622770632,-7,-2,1,0,-3,-2,-1,-5
59622770632,2,2,-4,-7,-5,-5,-10,1
59622779542,-16,-3,2,4,0,1,4,-9
59622779542,17,4,-2,-1,0,1,4,12
59622794560,3,-3,-5,-3,-4,-3,-6,-3
59622794560,5,-6,1,4,2,2,2,3
59622796048,-9,-6,8,8,0,-2,0,-6
59622796048,-5,-6,-5,-2,-1,-1,-8,-5
59622817066,2,-3,5,3,0,-1,-4,-2
59622817066,4,4,-2,6,5,0,8,2
59622818572,-3,3,-6,-18,-10,-5,-3,-2
59622818572,-4,4,3,0,1,3,2,-1
59622830684,-1,2,-2,3,2,1,-3,-3
59622830684,-4,5,2,1,0,-1,0,-2
59622839588,3,2,-8,-5,1,1,-2,0
59622839588,-1,-4,-5,-5,-6,-7,-4,-1
59622855013,6,4,4,-5,-2,0,-2,3
59622855013,-9,0,0,7,2,1,5,-7
59622856551,3,-2,2,-10,-6,-4,-6,-1
59622856551,-6,-12,-1,7,1,1,-4,-1
59622877243,-2,-5,-8,-6,-2,-2,-5,-3
59622877243,3,1,2,3,-2,0,5,-1
59622878627,2,-2,1,0,1,1,-1,0
59622878627,-3,2,-4,-11,-3,1,3,-4
59622890684,-1,-3,-1,4,2,1,0,-1
59622890684,-6,-1,-2,-10,-3,-2,-5,-6
59622899622,10,-2,-8,0,-3,-4,-3,9
59622899622,-13,4,11,7,7,2,-1,-14
59622914553,-5,-2,0,-7,-7,-4,-2,-4
59622914553,2,-2,-7,-13,-3,1,-2,5
59622915997,-2,-2,4,11,1,1,0,-3
59622915997,6,-4,-2,0,0,-1,-1,3
59622937008,0,-4,-6,0,1,-1,0,2
59622937008,-11,-5,1,1,-2,-1,1,-5
59622938555,9,5,6,-3,1,0,-1,2
59622938555,0,-5,-4,2,-3,-1,-1,0
59622950686,-5,1,3,-4,-2,-1,0,-4
59622950686,4,6,-6,-4,-4,1,-2,1
59622959584,0,-3,-3,10,5,1,1,-1
59622959584,-2,-3,-6,-16,-8,-5,3,4
59622974577,-2,1,1,-1,-1,0,-1,-3
59622974577,0,-1,4,7,0,-2,-5,-1
59622975997,-3,1,2,-3,1,-1,0,-2
59622975997,3,2,-3,1,-2,-3,-1,-2
59622997050,-4,-3,-2,-10,-1,1,-4,-2
59622997050,5,-6,-4,1,-1,-2,1,5
59622998571,-5,1,6,17,7,4,3,-6
59622998571,-1,5,5,-8,-2,-3,-1,0
59623010756,-2,-1,-1,3,-1,-3,-1,-1
59623010756,3,-1,3,1,5,2,-4,3
59623019563,-5,-6,0,-17,-7,-4,4,-1
59623019563,3,-1,-10,2,0,4,-8,1
59623034480,1,-2,-5,-5,-3,-6,1,1
59623034480,-5,-4,-7,-2,-10,-3,8,-3
59623036097,0,0,0,2,9,-1,-9,2
59623036097,-1,1,-4,-4,-2,1,-2,-4
59623057067,-1,-1,0,3,0,-2,0,1
59623057067,-1,-7,-2,-2,-1,-1,-8,0
59623058539,-4,-1,-2,-2,-4,-2,1,-1
59623058539,-2,-3,-7,-4,-3,-4,0,-4
59623070633,-2,-4,11,11,8,3,-4,-3
59623070633,-3,-3,-6,-5,-3,-4,1,-3
59623079583,-3,-1,1,4,2,3,0,1
59623079583,-2,-3,7,10,4,-2,-2,-1
59623094492,-1,-1,-9,-8,-7,-4,0,-1
59623094492,3,3,7,15,0,-2,-2,-1
59623096020,-3,-2,-4,-4,2,1,-5,-2
59623096020,1,-6,-6,-7,0,-1,-1,1
59623117078,-1,-1,-2,-4,0,2,11,0
59623117078,-1,-4,-3,-5,1,-1,-3,2
59623118574,0,-3,-8,-13,-11,-3,-4,-1
59623118574,-1,2,8,5,-1,-5,-2,-3
59623130635,2,0,7,7,6,2,-1,-2
59623130635,-3,0,-4,2,2,2,0,-4
59623139585,-1,-7,-7,-18,-5,-6,0,-3
59623139585,3,4,1,10,2,-2,2,3
59623154443,1,-4,2,-13,-10,-7,-2,0
59623154443,0,-3,-7,-12,-3,-2,-3,2
59623156075,-2,2,-2,12,0,1,1,0
59623156075,-2,1,3,-1,1,2,-4,-3
59623177054,1,4,7,10,6,4,7,1
59623177054,-3,-3,-8,-10,-2,-2,-1,2
59623178521,9,1,0,-1,-4,-8,-4,7
59623178521,-17,-1,-10,-12,-7,-3,0,-17
59623190777,0,10,5,12,7,6,0,-1
59623190777,-3,3,11,15,11,10,3,-2
59623199609,-1,2,-8,-16,-1,-6,2,3
59623199609,4,0,6,6,0,-3,-2,5
59623213860,0,-5,-4,-9,-17,-11,-9,-3
59623213860,1,-2,-6,-8,3,4,1,-1
59623220658,-5,8,10,10,-3,0,-1,-4
59623220658,1,-10,-13,-13,-3,-4,0,2
59623236958,-4,-3,-1,12,6,3,1,1
59623236958,0,-2,3,-5,-11,-5,-1,-1
59623238565,-3,-2,1,1,3,-3,-1,-3
59623238565,1,4,10,5,1,4,3,3
59623250648,1,-10,-8,-9,-3,-2,-3,0
59623250648,-1,-4,3,6,-3,-9,-5,-2
59623259586,-9,-9,-12,-5,-4,-1,-2,-8
59623259586,16,-4,6,11,7,6,4,6
59623273898,-17,-5,-8,-17,-1,-2,-5,-4
59623273898,2,1,-4,-1,-4,1,5,3
59623280672,-7,-2,-4,-10,-13,-9,0,-10
59623280672,6,5,1,2,2,5,-4,10
59623297009,-12,1,-1,9,4,2,5,-18
59623297009,3,0,4,-7,-2,-2,0,-2
59623298527,2,0,0,5,5,3,-1,4
59623298527,-6,-2,0,-3,-4,-7,-7,-5
59623319507,7,1,-6,-12,-4,-1,-4,5
59623319507,-4,-4,-1,-4,-3,-4,-6,-4
59623321042,2,-1,6,8,1,1,0,-2
59623321042,-5,-2,-10,-10,-2,3,1,1
59623333875,-1,-9,-3,4,3,-2,-3,2
59623333875,1,0,-3,-6,-10,-1,0,-3
59623340633,1,-6,0,15,14,5,1,3
59623340633,-6,-2,0,4,0,-3,1,-3
59623357140,3,2,-2,-6,-5,2,-5,-3
59623357140,5,-4,-7,-10,-6,-11,0,7
59623358585,-22,-7,1,2,-2,5,-1,-16
59623358585,4,2,0,0,2,2,1,-3
59623379560,-5,0,3,17,4,-4,1,5
59623379560,6,-3,-4,-13,2,4,4,2
59623381009,7,4,-1,0,-2,0,-2,6
59623381009,0,1,5,0,3,0,2,-1
59623393801,0,13,1,-3,-5,-2,-4,-1
59623393801,-5,1,-3,0,-2,-5,-7,-3
59623400684,5,-4,-10,-7,-6,-3,6,2
59623400684,-8,-10,-8,-4,-5,-2,-1,-8
59623417040,5,-3,-10,-18,-9,-7,2,1
59623417040,-6,-4,8,13,5,3,-1,-1
59623418537,3,3,3,0,1,1,0,-1
59623418537,-4,-5,-2,-1,-5,-5,-5,-2
59623447162,1,-1,-8,-5,-4,0,-1,1
59623447162,-1,0,-2,-3,0,1,0,-2
59623448535,-4,-3,5,7,2,1,-2,0
59623448535,-1,0,-2,-12,-6,-5,1,-1
59623453860,7,-3,3,5,2,3,-1,2
59623453860,-8,0,3,4,4,-2,-2,-10
59623460676,3,-1,0,-2,-1,1,-1,3
59623460676,-2,0,0,4,-4,-2,-2,1
59623477065,-5,10,-1,-5,-5,-4,0,-5
59623477065,1,-1,-3,-1,3,2,2,4
59623478559,0,0,2,6,6,5,2,3
59623478559,9,-3,-1,-2,1,-1,-6,10
59623499601,-10,-1,-2,-1,-1,-4,0,-19
59623499601,0,-1,-3,-2,-2,-3,-13,0
59623501045,0,8,1,-5,-5,-3,15,0
59623501045,0,1,3,3,-2,2,16,2
59623513896,3,-5,-6,-6,1,1,-5,1
59623513896,-3,2,1,1,-2,0,3,2
59623520708,-2,-4,-2,-4,-1,-4,-11,-3
59623520708,-6,-2,-5,1,-1,-1,-2,-3
59623537092,-1,0,2,1,-3,2,3,3
59623537092,-3,-1,1,-1,2,0,0,-6
59623538581,0,-4,-3,-4,-2,0,-5,2
59623538581,-1,3,5,5,0,-2,-1,-3
59623559503,1,-2,2,1,0,-2,-2,0
59623559503,-1,1,-4,-9,-5,0,0,-1
59623561042,0,-1,-1,1,1,-2,-2,-1
59623561042,-3,2,2,1,0,0,-1,-3
59623573208,0,-3,-2,4,2,0,-1,4
59623573208,-3,-1,-6,-8,-5,1,4,-1
59623582061,3,3,0,2,-2,-4,-4,2
59623582061,-10,-5,-8,-4,-2,1,-1,-11
59623597031,3,-4,4,4,4,-2,2,6
59623597031,0,-1,0,4,1,-1,0,-2
59623598529,-2,-2,0,-5,-3,-4,-7,-2
59623598529,1,-1,0,-2,-2,-1,-2,-2
59623619583,-1,-3,-2,0,-4,-2,-1,0
59623619583,0,1,1,0,2,0,-5,-5
59623621118,-5,-5,-6,0,0,1,6,0
59623621118,1,2,2,-3,-3,-4,-5,3
59623633957,-4,-3,-12,-8,0,2,3,0
59623633957,20,3,3,8,2,1,-3,8
59623640661,-17,-8,1,1,0,0,-3,0
59623640661,-14,-2,0,-3,-1,-4,0,-3
59623657037,-1,-1,0,0,-1,-2,-3,-2
59623657037,-5,1,0,3,2,0,-1,-3
59623658531,11,3,2,-3,-1,-1,-1,-1
59623658531,6,-3,-6,-3,0,-2,-4,6
59623679536,-7,1,9,1,1,1,7,-7
59623679536,-2,-5,-3,0,2,-4,0,2
59623681003,3,0,3,0,-2,-2,-4,-1
59623681003,0,-2,0,-4,-1,0,2,0
59623693930,5,-1,-3,-1,-1,0,-6,1
59623693930,-3,-3,-3,-2,-1,0,2,-3
59623700683,-4,2,-2,0,1,-2,-1,-4
59623700683,2,0,-2,-4,-1,-1,-4,-4
59623716950,2,-1,0,-1,-3,1,0,1
59623716950,-4,0,5,2,-1,1,4,0
59623718571,-1,-3,-6,-4,-2,-1,-9,-4
59623718571,0,1,-1,3,-1,0,2,1
59623739522,0,-2,1,0,0,-1,-1,0
59623739522,-6,-6,-6,-3,-3,-5,-11,-9
59623740998,17,5,-9,-1,0,4,11,16
59623740998,-10,-4,1,-2,-2,-4,4,1
59623753191,-7,0,-1,1,-1,1,-3,-18
59623753191,-2,-6,-2,-5,-1,-1,5,-2
59623762082,-2,-2,2,-1,-1,-1,-8,-7
59623762082,4,2,1,1,0,1,-1,2
59623777139,6,-1,-2,0,0,-2,-1,7
59623777139,-4,-5,-11,-5,-2,-2,-3,-2
59623778540,-4,-4,2,2,-1,-1,4,-5
59623778540,3,-3,-2,-3,-3,-2,1,0
59623799478,-2,-2,-1,-1,-1,-3,-3,-1
59623799478,0,2,5,3,0,0,2,-1
59623801022,-2,1,2,0,-2,-2,1,1
59623801022,-2,-1,-11,-5,-1,-4,-7,-4
59623813227,-2,-6,-1,0,-3,-3,1,-2
59623813227,-3,-1,1,0,-1,-2,-9,-1
59623822063,0,0,2,1,2,4,10,-1
59623822063,-1,-1,5,3,1,1,0,-3
59623837008,2,-1,2,-3,-2,0,-2,4
59623837008,6,2,-7,0,-2,0,0,3
59623838525,10,-6,-1,0,-2,1,0,4
59623838525,-22,-2,-5,-3,-2,-3,-16,-16
59623859612,0,2,-1,-2,0,-1,-1,3
59623859612,0,3,2,-2,-2,0,9,-5
59623861032,-5,1,-2,-3,-3,-2,-9,1
59623861032,10,2,-2,1,0,1,15,10
59623873312,0,-4,-2,-1,1,-1,-5,0
59623873312,-6,-9,-6,-2,-3,-4,-3,-5
59623882059,-1,0,-2,-4,-3,-1,0,-3
59623882059,0,-2,1,0,0,0,-2,3
59623896992,8,2,-3,1,-2,-2,-2,-5
59623896992,-1,-2,-1,-2,0,3,-1,2
59623898544,-6,1,0,-3,0,-2,-2,-4
59623898544,2,0,0,1,-1,-1,-6,-2
59623919611,-1,-1,0,0,-1,-1,5,-1
59623919611,-7,5,12,2,1,0,-1,0
59623921047,2,-2,-3,-1,-3,-3,-2,-1
59623921047,3,3,3,1,1,0,2,-3
59623933161,1,-1,-3,-3,-3,-3,-5,5
59623933161,-5,-3,0,1,-2,-2,8,-2
59623942077,-9,0,-2,-2,-2,-4,-11,-8
59623942077,-2,-9,3,2,1,3,7,2
