60234512248,0.158813476562,0.490173339844,-0.587585449219,-0.623962402344
60234527287,0.158752441406,0.490173339844,-0.587585449219,-0.623962402344
60234548712,0.157653808594,0.49072265625,-0.586853027344,-0.62451171875
60234572268,0.149658203125,0.492309570312,-0.583923339844,-0.627990722656
60234587196,0.149536132812,0.494506835938,-0.582885742188,-0.627197265625
60234608437,0.148742675781,0.494812011719,-0.582458496094,-0.627502441406
60234632251,0.146728515625,0.494384765625,-0.582092285156,-0.628723144531
60234647265,0.144897460938,0.493347167969,-0.582092285156,-0.629943847656
60234701305,0.143981933594,0.489929199219,-0.583679199219,-0.63134765625
60234703159,0.150390625,0.489990234375,-0.585815429688,-0.627807617188
60234704006,0.1591796875,0.493347167969,-0.586853027344,-0.622009277344
60234715462,0.160278320312,0.494323730469,-0.586608886719,-0.621154785156
60234736770,0.165344238281,0.49169921875,-0.588989257812,-0.619689941406
60234760427,0.164672851562,0.491149902344,-0.588989257812,-0.620300292969
60234781874,0.164672851562,0.491088867188,-0.588989257812,-0.620300292969
60234826564,0.164672851562,0.491149902344,-0.588989257812,-0.620300292969
60234827393,0.164611816406,0.491088867188,-0.588989257812,-0.620361328125
60234838338,0.164855957031,0.491088867188,-0.589294433594,-0.619995117188
60234856562,0.162292480469,0.489318847656,-0.58984375,-0.62158203125
60234879121,0.161071777344,0.491577148438,-0.588256835938,-0.621643066406
60234893430,0.158630371094,0.493713378906,-0.586242675781,-0.622497558594
60234915900,0.151062011719,0.492614746094,-0.584289550781,-0.627014160156
60234938296,0.149047851562,0.491638183594,-0.584228515625,-0.628356933594
60234953251,0.148681640625,0.49072265625,-0.584594726562,-0.628845214844
60234975886,0.154846191406,0.490295410156,-0.586669921875,-0.625732421875
60234998301,0.157104492188,0.491088867188,-0.5869140625,-0.624267578125
60235013265,0.158081054688,0.492065429688,-0.586669921875,-0.623474121094
60235035848,0.154907226562,0.493286132812,-0.585021972656,-0.624877929688
60235058373,0.155029296875,0.493103027344,-0.5849609375,-0.625061035156
60235073376,0.155517578125,0.492614746094,-0.585021972656,-0.625244140625
60235095868,0.155578613281,0.492614746094,-0.585021972656,-0.625183105469
60235118444,0.155578613281,0.492553710938,-0.585083007812,-0.625183105469
60235133348,0.155883789062,0.492614746094,-0.5849609375,-0.625183105469
60235155911,0.156433105469,0.492797851562,-0.584777832031,-0.625122070312
60235178287,0.157287597656,0.493408203125,-0.584289550781,-0.624816894531
60235193487,0.158935546875,0.494812011719,-0.583435058594,-0.624084472656
60235215919,0.162353515625,0.497741699219,-0.581604003906,-0.622680664062
60235238389,0.168884277344,0.501586914062,-0.578247070312,-0.620910644531
60235253300,0.178649902344,0.5068359375,-0.572998046875,-0.618835449219
60235275866,0.192077636719,0.509033203125,-0.568481445312,-0.6171875
60235298433,0.207824707031,0.506225585938,-0.568176269531,-0.614624023438
60235313441,0.222839355469,0.499572753906,-0.570983886719,-0.612243652344
60235335889,0.240051269531,0.491088867188,-0.574279785156,-0.609497070312
60235358373,0.26171875,0.481201171875,-0.577941894531,-0.60498046875
60235373379,0.287170410156,0.467834472656,-0.583312988281,-0.598693847656
60235396011,0.3154296875,0.451782226562,-0.58935546875,-0.5908203125
60235418344,0.345520019531,0.433471679688,-0.59521484375,-0.581787109375
60235433401,0.376770019531,0.414001464844,-0.600524902344,-0.570983886719
60235455732,0.408264160156,0.392395019531,-0.606262207031,-0.558410644531
60235478316,0.438293457031,0.369384765625,-0.61279296875,-0.544006347656
60235493378,0.466369628906,0.345581054688,-0.619812011719,-0.528137207031
60235515858,0.492004394531,0.320983886719,-0.627136230469,-0.511413574219
60235538340,0.515563964844,0.296081542969,-0.633850097656,-0.494750976562
60235553296,0.537109375,0.272033691406,-0.639038085938,-0.478698730469
60235575854,0.556640625,0.249389648438,-0.643127441406,-0.463012695312
60235598410,0.573425292969,0.22802734375,-0.646728515625,-0.4482421875
60235613301,0.587158203125,0.207824707031,-0.650146484375,-0.435180664062
60235635901,0.598693847656,0.18896484375,-0.652893066406,-0.423828125
60235653744,0.609008789062,0.172607421875,-0.654479980469,-0.413513183594
60235673396,0.618591308594,0.160827636719,-0.654235839844,-0.404357910156
60235695783,0.627136230469,0.15283203125,-0.653259277344,-0.395812988281
60235718439,0.635009765625,0.148498535156,-0.6513671875,-0.387939453125
60235733298,0.641723632812,0.147094726562,-0.649291992188,-0.380798339844
60235755858,0.647094726562,0.147277832031,-0.647033691406,-0.375427246094
60235778401,0.651550292969,0.148559570312,-0.64453125,-0.371520996094
60235793351,0.655334472656,0.1513671875,-0.641479492188,-0.368896484375
60235815923,0.65869140625,0.155883789062,-0.637573242188,-0.367980957031
60235841252,0.6611328125,0.161193847656,-0.633178710938,-0.368835449219
60235856168,0.662780761719,0.167419433594,-0.62841796875,-0.371154785156
60235875839,0.663879394531,0.173889160156,-0.62353515625,-0.374450683594
60235893663,0.664184570312,0.179931640625,-0.619018554688,-0.378540039062
60235916181,0.663940429688,0.185607910156,-0.615234375,-0.382446289062
60235935859,0.663330078125,0.191223144531,-0.612060546875,-0.385803222656
60235953643,0.662719726562,0.196350097656,-0.609558105469,-0.38818359375
60235976158,0.662414550781,0.20068359375,-0.607421875,-0.389831542969
60235995840,0.662231445312,0.203735351562,-0.605834960938,-0.391052246094
60236013703,0.662292480469,0.20556640625,-0.604797363281,-0.391662597656
60236036170,0.662536621094,0.205993652344,-0.604125976562,-0.391967773438
60236055883,0.662963867188,0.205444335938,-0.603759765625,-0.39208984375
60236073725,0.663452148438,0.204467773438,-0.603637695312,-0.392028808594
60236096212,0.663940429688,0.203125,-0.603698730469,-0.391723632812
60236115873,0.66455078125,0.201416015625,-0.603759765625,-0.391540527344
60236133690,0.6650390625,0.199462890625,-0.603820800781,-0.391540527344
60236156150,0.66552734375,0.197570800781,-0.603881835938,-0.391662597656
60236175836,0.666015625,0.19580078125,-0.603820800781,-0.391784667969
60236193681,0.666381835938,0.194152832031,-0.603698730469,-0.392211914062
60236216181,0.666687011719,0.192565917969,-0.603576660156,-0.392639160156
60236237195,0.666931152344,0.191101074219,-0.603454589844,-0.393127441406
60236253647,0.667053222656,0.190063476562,-0.603393554688,-0.393432617188
60236276196,0.667236328125,0.189270019531,-0.603271484375,-0.393737792969
60236296513,0.66748046875,0.188598632812,-0.60302734375,-0.39404296875
60236312885,0.667724609375,0.188171386719,-0.602783203125,-0.394287109375
60236335328,0.667907714844,0.18798828125,-0.602416992188,-0.394592285156
60236356493,0.66796875,0.187683105469,-0.601989746094,-0.395202636719
60236372885,0.668029785156,0.187561035156,-0.601379394531,-0.396118164062
60236395348,0.66796875,0.187805175781,-0.600769042969,-0.397033691406
60236416472,0.668029785156,0.188415527344,-0.600158691406,-0.397583007812
60236432941,0.668334960938,0.189025878906,-0.599365234375,-0.39794921875
60236455361,0.668395996094,0.189208984375,-0.598754882812,-0.398681640625
60236476401,0.668640136719,0.188903808594,-0.59814453125,-0.399353027344
60236492838,0.668823242188,0.188415527344,-0.597778320312,-0.399841308594
60236515368,0.669128417969,0.187927246094,-0.597412109375,-0.400024414062
60236536491,0.669677734375,0.187683105469,-0.59716796875,-0.399719238281
60236552860,0.670227050781,0.187377929688,-0.596862792969,-0.399291992188
60236575391,0.670593261719,0.186645507812,-0.5966796875,-0.399291992188
60236597859,0.670776367188,0.185729980469,-0.5966796875,-0.399475097656
60236612836,0.670715332031,0.18505859375,-0.596740722656,-0.399719238281
60236635364,0.67041015625,0.184814453125,-0.596862792969,-0.400207519531
60236657865,0.670104980469,0.184875488281,-0.596923828125,-0.400573730469
60236672669,0.669799804688,0.185241699219,-0.596923828125,-0.400939941406
60236695409,0.669311523438,0.185607910156,-0.596984863281,-0.401428222656
60236717849,0.668762207031,0.185546875,-0.59716796875,-0.402221679688
60236732181,0.668151855469,0.185241699219,-0.597351074219,-0.403076171875
60236755335,0.667602539062,0.185363769531,-0.597473144531,-0.403686523438
60236777860,0.667175292969,0.185729980469,-0.597595214844,-0.404052734375
60236792269,0.666931152344,0.186157226562,-0.59765625,-0.404174804688
60236815327,0.666809082031,0.186401367188,-0.59765625,-0.404296875
60236837882,0.666687011719,0.186279296875,-0.597473144531,-0.40478515625
60236852209,0.666625976562,0.18603515625,-0.597229003906,-0.405456542969
60236875364,0.666198730469,0.185424804688,-0.596862792969,-0.406921386719
60236897868,0.665161132812,0.184997558594,-0.596435546875,-0.409423828125
60236919037,0.662719726562,0.183715820312,-0.596435546875,-0.413879394531
60236935374,0.658630371094,0.180419921875,-0.597900390625,-0.419799804688
60236957835,0.653076171875,0.176818847656,-0.600891113281,-0.425598144531
60236978863,0.645446777344,0.175109863281,-0.605590820312,-0.431274414062
60236995339,0.634338378906,0.175964355469,-0.6123046875,-0.437927246094
60237017832,0.619445800781,0.18017578125,-0.621032714844,-0.445190429688
60237038989,0.599792480469,0.187194824219,-0.631896972656,-0.453796386719
60237055362,0.57763671875,0.1982421875,-0.643371582031,-0.461730957031
60237077885,0.55224609375,0.211547851562,-0.6552734375,-0.469970703125
60237099118,0.524169921875,0.226257324219,-0.666625976562,-0.479309082031
60237115383,0.494323730469,0.240600585938,-0.6767578125,-0.489685058594
60237137887,0.462524414062,0.255187988281,-0.685485839844,-0.501037597656
60237159052,0.428039550781,0.268737792969,-0.692932128906,-0.514221191406
60237181526,0.394104003906,0.283996582031,-0.697692871094,-0.526611328125
60237197837,0.362854003906,0.298645019531,-0.69970703125,-0.538146972656
60237226541,0.335021972656,0.312377929688,-0.698608398438,-0.549743652344
60237235334,0.3125,0.327758789062,-0.693664550781,-0.560180664062
60237257884,0.295837402344,0.346618652344,-0.685485839844,-0.56787109375
60237279017,0.283142089844,0.366821289062,-0.676147460938,-0.572814941406
60237295336,0.272888183594,0.3857421875,-0.667297363281,-0.575744628906
60237317931,0.263427734375,0.402465820312,-0.658935546875,-0.578369140625
60237339060,0.254821777344,0.417419433594,-0.650207519531,-0.581420898438
60237355364,0.247375488281,0.430969238281,-0.641174316406,-0.584838867188
60237377810,0.240417480469,0.442138671875,-0.633239746094,-0.587951660156
60237399015,0.233581542969,0.450744628906,-0.627502441406,-0.59033203125
60237415337,0.227661132812,0.457702636719,-0.622863769531,-0.59228515625
60237437859,0.222961425781,0.464416503906,-0.617797851562,-0.594116210938
60237458977,0.219299316406,0.471374511719,-0.612243652344,-0.595764160156
60237474710,0.216369628906,0.478454589844,-0.606750488281,-0.596740722656
60237503877,0.2138671875,0.485107421875,-0.601867675781,-0.597290039062
60237520362,0.211059570312,0.491394042969,-0.596923828125,-0.598083496094
60237534705,0.20703125,0.496643066406,-0.592529296875,-0.599548339844
60237557834,0.201293945312,0.500732421875,-0.58935546875,-0.601196289062
