59610729978,1,5,-3,0,0,-3,-3,1
59610729978,2,3,1,-2,-2,-1,-1,-3
59610735728,-2,1,-4,-1,-2,0,3,2
59610735728,0,3,1,-2,3,3,1,0
59610737123,-1,0,0,1,0,2,1,2
59610737123,-2,2,1,2,-1,3,5,3
59610737937,0,5,2,3,1,-1,-5,-5
59610737937,1,0,-3,-5,-2,-2,4,3
59610742269,4,0,1,-1,0,-2,-12,-4
59610742269,-12,0,-1,-4,1,1,2,-9
59610764287,1,-1,-3,-3,-1,1,0,4
59610764287,-3,-2,-2,2,1,1,2,2
59610764957,-2,-2,0,-2,-1,0,2,1
59610764957,1,-3,1,-1,-1,-3,-3,0
59610775152,0,0,-2,-1,0,0,-2,-3
59610775152,1,0,-1,-1,0,-1,1,2
59610787249,7,1,-1,-2,-3,0,3,11
59610787249,-7,-3,-3,1,0,-1,-4,-20
59610802761,-7,-4,-4,-2,-1,-4,0,-1
59610802761,0,2,-5,-2,-3,-3,1,-6
59610804907,12,-4,2,0,-1,0,-1,1
59610804907,8,0,0,-1,-1,-1,-3,8
59610823204,0,0,4,0,0,-2,-3,-1
59610823204,-1,7,-1,-2,-3,-2,2,-1
59610864438,0,-2,-2,-2,-3,0,7,-5
59610864438,-2,0,-1,-1,-1,-2,-10,-3
59610865017,-3,0,-1,-1,-1,0,12,2
59610865017,-1,-1,-1,-1,-2,-3,0,0
59610865872,5,0,-1,-1,-2,-1,-5,1
59610865872,-6,-2,-2,-1,-2,1,3,-2
59610869120,0,-1,-2,0,-3,-2,-5,-1
59610869120,0,3,5,-2,-1,-2,-2,-2
59610884053,0,1,-5,-1,0,-2,-3,2
59610884053,1,0,-4,-2,1,-3,1,2
59610884742,-3,-1,-1,-1,1,1,-4,-6
59610884742,-3,2,-4,-2,0,-1,2,-2
59610892325,-9,0,-1,-1,-1,-2,-3,-3
59610892325,7,-1,0,-2,-1,-2,-4,-2
59610913958,-3,-2,-5,-1,0,1,1,4
59610913958,6,5,-3,0,-3,-2,-3,1
59610922336,-6,1,-1,2,-1,1,-2,3
59610922336,-13,-2,-5,0,1,1,12,-9
59610937322,7,6,9,3,2,1,5,7
59610937322,13,1,-1,-1,2,0,-1,11
59610938732,1,4,0,0,0,-2,0,-9
59610938732,-2,0,-1,-1,-2,-2,-3,-4
59610952272,-1,1,-4,0,-2,-1,-4,-4
59610952272,-6,-1,-3,1,1,0,1,0
59610953775,3,2,3,1,1,0,2,3
59610953775,0,-1,2,0,0,-1,1,4
59610974639,1,0,-1,-2,-2,-3,-8,-5
59610974639,-2,-3,-2,0,-1,0,7,2
59610976336,-1,-3,-4,-1,3,-1,-8,-6
59610976336,3,4,6,-2,0,1,3,-1
59610997082,-2,-3,-2,-3,-1,-2,-3,3
59610997082,-7,-5,-2,-3,-3,-3,-14,-8
59610998739,-2,-3,-1,-2,-2,2,14,1
59610998739,0,-1,0,-2,-2,0,-3,4
59611012269,-1,-1,2,0,0,2,0,-4
59611012269,-7,-3,2,-2,1,0,0,-5
59611013768,-4,-5,-7,-2,-2,1,-5,-8
59611013768,13,2,0,0,-2,0,1,15
59611034736,-21,-12,1,-1,-1,-1,3,-9
59611034736,-2,9,8,-1,-1,-3,-1,-3
59611036236,-6,0,2,-1,1,-3,-8,0
59611036236,-7,-7,-3,-1,0,-2,5,-2
59611057293,5,1,0,-1,0,-1,-1,2
59611057293,5,-5,-2,-2,-1,0,0,5
59611058789,-8,-3,1,1,-1,-4,0,-6
59611058789,0,1,-2,1,0,1,-11,-5
59611072297,4,-1,-2,-3,-4,-1,0,5
59611072297,-7,-5,-3,-1,1,-1,6,-6
59611073760,9,0,1,-3,-3,-2,-1,8
59611073760,0,0,-4,0,-1,0,1,1
59611094869,-2,-1,0,0,0,-1,-6,-7
59611094869,2,-2,0,1,-2,0,4,5
59611096243,2,-1,1,-2,0,1,0,1
59611096243,-7,-5,0,-2,-1,-2,-2,-5
59611117348,1,0,0,-1,-1,1,-1,-1
59611117348,-6,-3,-1,-2,-1,0,-4,-5
59611118771,4,0,-2,-3,-2,-1,-4,3
59611118771,-4,0,1,-1,-1,0,3,-2
59611131636,4,1,-4,-2,-1,-1,0,4
59611131636,-4,-6,-2,-1,0,-1,-8,-5
59611138585,14,6,0,-1,1,1,9,3
59611138585,-5,-7,-2,1,0,1,-5,0
59611154741,1,5,8,2,0,-2,3,0
59611154741,-7,-2,-4,-1,-2,-1,0,-1
59611156339,2,-4,-1,0,0,2,-2,-4
59611156339,3,0,-3,-1,-2,-3,-3,-1
59611177327,-3,-3,-3,-2,-1,0,1,-1
59611177327,1,-1,1,0,-1,-2,-4,-2
59611178770,-4,-1,0,1,-1,-3,0,1
59611178770,2,1,1,-2,-2,-3,3,1
59611199666,-5,-3,-7,-2,-3,-2,-8,-3
59611199666,1,-2,-4,-2,-1,4,10,0
59611201234,-2,0,0,1,-2,-1,-6,2
59611201234,-5,-1,0,-1,-1,-2,4,-5
59611214709,4,0,1,-1,0,-4,-4,6
59611214709,-5,-4,-8,-4,-2,-4,-3,-15
59611216228,-7,-2,-1,-1,1,0,-2,-3
59611216228,-1,1,0,-1,-2,-1,-8,-3
59611237352,1,-1,-1,0,0,-2,3,-1
59611237352,-1,1,0,-2,-1,-1,2,4
59611238781,-2,-3,0,-1,1,-1,1,3
59611238781,11,3,-2,-1,1,0,-3,-3
59611251542,-20,-7,-1,0,-2,-1,2,0
59611251542,4,-2,0,-2,-1,-2,-6,-1
59611258417,0,5,8,1,-2,-1,1,0
59611258417,2,-3,-1,-1,-2,-2,-1,3
59611274776,6,-1,-1,-1,-1,0,3,-4
59611274776,-2,-1,-1,1,-1,-1,-4,0
59611276327,-4,-6,-4,-3,-3,-3,0,-2
59611276327,-3,1,3,-1,-1,-1,2,0
59611297247,-3,-1,-6,1,-1,-1,-4,-3
59611297247,12,1,0,-1,-2,-1,3,2
59611298710,-4,-5,-5,-2,-1,0,-3,-2
59611298710,-3,-1,-1,-3,0,-1,0,-1
59611311616,1,-1,-1,-3,-2,-1,-4,-4
59611311616,1,-2,0,1,-1,-2,-10,-1
59611325927,7,0,-4,-1,-1,2,4,5
59611325927,-25,0,1,0,0,0,-3,-13
59611334803,10,0,0,-1,-2,-2,-1,4
59611334803,-3,3,-2,0,0,-2,-3,2
59611336360,-4,-2,-1,-1,-1,1,-8,-8
59611336360,3,0,-1,1,-3,-1,3,1
59611364836,15,2,0,-2,-1,-1,0,6
59611364836,-21,-1,1,-3,-2,1,2,-8
59611366385,-4,-4,-4,-1,-1,-3,-2,-2
59611366385,6,-1,2,1,-1,0,-4,8
59611371654,-4,1,4,6,2,1,0,-11
59611371654,9,-3,-9,-5,3,2,4,7
59611378512,-1,-1,0,0,1,1,-1,-2
59611378512,2,0,0,-2,0,0,1,-3
59611394762,0,-2,-8,-5,-4,-3,-3,4
59611394762,2,0,4,5,-3,0,-2,-1
59611396317,-4,-1,2,-1,0,-2,1,-3
59611396317,0,-1,-9,-2,1,0,0,0
59611417213,-3,3,16,15,11,2,1,-4
59611417213,-4,-6,-12,-19,-6,-2,-3,-4
59611418751,-3,-5,-8,10,6,-3,-1,-1
59611418751,1,0,3,-25,-24,-9,-4,-2
59611430876,-4,-3,-4,-13,-12,-5,-6,-4
59611430876,5,15,32,17,18,18,11,5
59611439740,-1,-12,3,10,5,0,0,1
59611439740,-1,-4,-13,33,26,5,0,-1
59611454686,-12,-24,-44,-40,-32,-10,-5,-6
59611454686,5,10,23,-23,-17,-14,-7,-1
59611456207,-1,0,-13,5,6,5,-2,-1
59611456207,3,-1,13,15,12,4,4,2
59611477172,4,16,20,25,17,10,4,2
59611477172,-2,-13,-20,5,3,-6,-3,-2
59611478748,1,11,24,-22,-14,-5,0,-3
59611478748,-2,-1,-3,-14,-16,-7,-4,-3
59611490719,1,0,1,-4,5,-1,-1,1
59611490719,-5,-8,-14,9,-6,2,0,-2
59611499761,-1,-5,-8,-2,-1,-2,3,-1
59611499761,0,5,4,-9,-7,-1,1,-2
59611514741,-1,0,9,-9,-10,-7,-2,-3
59611514741,-2,0,-1,6,-3,-4,-2,0
59611516236,-1,-2,-4,-8,3,-1,-5,-2
59611516236,1,4,-2,8,2,6,-1,-1
59611537284,-1,4,-8,-2,-8,-9,-2,-1
59611537284,3,4,6,5,5,2,0,0
59611538794,-4,-15,-13,-2,-6,-5,-1,-1
59611538794,-1,-22,-9,3,10,9,0,-2
59611550890,-3,-2,18,7,6,5,2,-1
59611550890,-3,4,2,6,-2,-5,-1,-6
59611559782,0,14,1,-14,-9,-5,-2,3
59611559782,2,5,8,12,7,-1,2,-1
59611575984,-1,-8,-7,-7,5,4,1,-1
59611575984,-1,-13,-29,-10,-13,-5,-5,1
59611577541,0,-1,-1,-4,1,2,-1,-3
59611577541,-3,0,-7,-4,-5,-7,-3,-2
59611597244,1,-6,-5,11,4,-1,-2,0
59611597244,0,-3,6,-1,3,0,2,0
59611598737,-1,-3,-5,1,-1,-2,-3,0
59611598737,-1,1,2,7,-5,-4,-1,-2
59611610760,-6,-5,-7,-18,-12,-2,0,-2
59611610760,-1,-3,-2,-8,0,-3,-4,-1
59611619796,2,5,28,19,7,6,2,1
59611619796,0,-7,-28,-11,-4,-10,-5,2
59611634760,-2,7,5,9,1,2,-1,-2
59611634760,-3,1,0,-13,-13,2,3,1
59611636386,-1,4,7,9,9,2,2,-2
59611636386,-2,-1,7,3,7,0,0,0
59611657266,1,3,5,2,-1,-4,-3,-1
59611657266,-1,-4,-11,-2,3,2,1,-1
59611658714,2,1,-1,0,-11,-5,-2,0
59611658714,-2,0,-6,-29,-11,-4,-1,-1
59611670889,-2,6,3,16,20,7,1,-2
59611670889,0,-2,6,4,-5,-2,0,0
59611679781,-4,-7,-1,-7,-7,-4,-4,-1
59611679781,0,-4,3,-5,-5,-3,0,-2
59611694043,0,-5,-17,-3,-6,-3,0,1
59611694043,1,0,3,10,17,4,1,-3
59611700962,3,2,2,-4,-7,1,-2,-1
59611700962,-5,-5,-8,-10,-8,-2,0,-1
59611717379,1,6,3,-3,0,-2,-1,-1
59611717379,-3,-1,-3,-1,-1,0,-2,-2
59611718763,-3,-4,-17,-3,0,-2,1,-2
59611718763,-1,5,12,0,0,-2,-4,-2
59611730909,1,-1,8,9,5,1,-1,1
59611730909,-1,-4,-24,-2,-8,0,1,1
59611739832,-1,-5,-2,-15,-9,-2,-3,-2
59611739832,-2,-8,-5,-6,-3,1,2,1
59611755534,-3,0,1,-6,-7,-6,-3,-3
59611755534,4,5,5,10,8,-1,-4,2
59611760887,3,-1,-1,-1,-5,-2,5,0
59611760887,-6,-5,-3,13,6,5,-1,-1
59611777166,0,2,2,-24,-15,-6,-5,-2
59611777166,-5,-6,-3,3,0,-2,-4,-4
59611778794,1,7,3,5,3,5,2,-1
59611778794,2,3,5,-6,-4,-7,-2,-1
59611790935,2,-2,6,7,8,6,4,2
59611790935,-3,-7,-20,-16,-13,-4,-1,-2
59611799731,0,-1,-5,-7,3,0,-3,-1
59611799731,0,0,4,11,5,-1,1,-2
59611814163,-2,-13,-6,1,0,5,-2,-2
59611814163,2,4,23,6,1,-3,-3,-1
59611820831,-4,-3,-13,-1,-2,-4,1,0
59611820831,3,7,8,5,8,9,2,-2
59611835894,-3,-2,1,-7,-8,-3,1,1
59611835894,3,6,13,11,11,1,2,2
59611844812,-2,-10,-21,-3,-6,-7,-6,-2
59611844812,0,-1,9,0,-5,0,-3,-1
59611859811,2,0,6,11,10,2,2,0
59611859811,-4,-4,-24,-14,-7,0,0,-3
59611861432,0,-1,1,3,-8,-7,-4,-2
59611861432,0,2,-8,-5,1,-2,-2,-2
59611882116,-2,3,4,12,4,4,2,2
59611882116,-1,-1,-12,4,-3,-5,-1,0
59611883853,0,0,27,-18,0,-1,-5,0
59611883853,-1,-1,-6,-3,-7,0,4,2
59611895886,0,-5,-9,-2,-5,-7,-6,-5
59611895886,-9,-3,-2,-9,-7,-4,-4,-3
59611904727,-2,-2,-1,7,6,3,1,-3
59611904727,7,1,-2,-3,1,1,-1,0
59611919735,-3,1,2,-5,0,-2,-1,0
59611919735,-5,-2,9,-8,-9,0,-1,-4
59611921334,-2,-4,-4,10,0,3,2,0
59611921334,-2,-6,1,-2,2,-5,-5,0
59611942235,3,-2,-14,-1,1,-3,0,-2
59611942235,2,-2,7,7,3,1,-2,3
59611943721,-5,0,-5,-6,2,3,-4,-1
59611943721,0,-4,4,-7,-16,-6,-1,-1
59611955969,-2,-14,-12,4,8,2,2,1
59611955969,-4,15,22,-9,1,-6,-6,-4
59611964743,-3,5,-4,5,-2,-7,-3,0
59611964743,-1,0,-4,-1,1,-1,-1,-1
59611979712,2,5,1,6,5,3,0,-1
59611979712,8,5,17,8,5,6,4,4
59611981226,-4,-2,-2,-4,-2,-4,-1,-3
59611981226,-7,0,1,4,3,-1,-3,-4
59612002105,0,-3,5,-7,-10,2,3,-1
59612002105,1,1,-10,0,4,-2,-2,-1
59612003733,1,-6,-4,-7,-14,-1,2,-1
59612003733,-8,-16,-1,0,2,0,0,-4
59612015901,-2,-11,-20,0,-2,-3,-4,-2
59612015901,0,-5,6,-12,-4,-6,-5,1
59612032247,4,7,8,16,16,11,7,3
59612032247,-1,-14,-28,-16,-6,-4,0,1
59612039685,-5,15,19,7,-1,-4,-1,-8
59612039685,3,-4,-14,-2,0,0,-4,-4
59612041231,-5,-4,-3,-10,-14,-1,-1,-1
59612041231,0,10,1,13,14,3,0,-1
59612062367,2,0,2,-18,-12,-4,-2,3
59612062367,-1,-3,-16,10,13,2,7,0
59612063747,2,3,7,-3,-4,-3,-6,-2
59612063747,3,7,6,0,-5,2,2,1
59612075869,-6,-4,-4,-8,2,2,-5,-2
59612075869,-4,-12,-35,3,1,-2,-1,-2
59612084881,1,-8,2,4,4,1,2,0
59612084881,-2,-3,2,-3,-5,-2,-3,-2
59612099740,1,-3,-3,0,-7,-5,-5,-2
59612099740,1,-5,21,-8,-13,-4,0,2
59612101233,-3,-2,-10,6,12,4,2,-1
59612101233,2,-1,-16,-5,3,0,-2,-1
59612122210,-4,6,9,4,7,1,1,-1
59612122210,4,8,27,6,-3,-4,-3,-1
59612123711,-4,-4,-8,-17,-12,-5,-1,-2
59612123711,0,1,10,7,5,1,-1,1
59612135933,2,2,-6,-1,-3,0,1,2
59612135933,-2,-3,-1,-8,-7,-1,2,-2
59612144775,-2,-3,2,7,4,0,-1,-5
59612144775,-2,-1,2,0,-3,0,2,1
59612159740,-1,-3,-3,-4,-4,-1,-6,-3
59612159740,-2,-1,-4,-6,-9,-7,-4,-2
59612161368,3,10,15,13,13,3,2,0
59612161368,-2,-9,3,-6,-7,2,1,1
59612182304,-3,-2,-4,-2,-2,-2,-2,-3
59612182304,0,-4,2,-1,-1,7,2,1
59612183780,-2,3,-8,-7,-12,-10,-6,-3
59612183780,0,0,11,8,4,-2,0,-2
59612195754,-3,0,0,-1,-3,-6,-3,-1
59612195754,-2,-7,-8,-7,3,0,-1,1
59612204730,3,7,8,2,-1,-2,1,1
59612204730,-1,1,-21,-8,-3,-2,-5,-4
59612218316,-4,-3,2,2,3,4,3,1
59612218316,0,-1,-5,5,-4,-4,-3,-1
59612227335,-1,7,13,-1,-3,-4,-3,-1
59612227335,0,10,-10,2,1,1,-3,-1
59612242261,-1,0,-7,-1,4,2,0,-1
59612242261,-4,-1,4,9,9,7,7,1
59612243740,3,-2,6,-1,-3,-2,-2,1
59612243740,-1,-4,-6,-11,-9,-5,-2,-3
59612255869,-2,-9,-15,-3,-4,-9,-8,-1
59612255869,1,8,7,3,2,1,2,-1
59612264781,-3,2,25,16,12,6,5,2
59612264781,-6,-9,-33,-16,-9,-2,-4,-4
59612279743,2,2,3,-4,-1,-2,0,2
59612279743,-3,-3,-6,6,4,4,0,-1
59612281223,-1,1,14,-1,6,-1,-3,-1
59612281223,-1,-2,-1,-3,-13,-6,-3,-2
59612309738,1,3,4,3,5,1,-1,-1
59612309738,0,-5,-11,-19,-13,-3,1,0
59612311226,0,-5,-18,0,-2,-2,0,0
59612311226,-2,0,12,6,1,-4,-3,-2
59612315864,-2,-5,4,-1,3,-2,-4,-3
59612315864,-4,-14,-16,-5,-5,-1,-4,-4
59612324802,-1,-2,-1,5,3,-2,-4,-2
59612324802,7,10,2,-9,-6,1,7,8
59612347385,-3,1,-9,-1,-8,-1,3,1
59612347385,1,0,8,7,9,5,4,2
59612348720,-4,-11,-14,-17,-13,-7,-4,-3
59612348720,-3,-3,6,8,5,0,-3,-3
59612362245,0,3,3,7,4,3,-1,-1
59612362245,2,5,6,2,2,-2,-2,-1
59612363717,-2,-3,-11,-18,-19,0,1,-6
59612363717,-1,-5,-3,3,2,-5,-2,-3
59612384644,0,3,13,-1,-1,1,-1,-1
59612384644,-1,-6,-5,2,6,2,-1,1
59612386227,2,-3,-12,0,5,0,-4,0
59612386227,0,3,14,2,2,4,4,2
59612399074,-5,-2,-1,-5,-3,2,1,-3
59612399074,-4,1,-1,2,-1,-1,-2,-3
59612405865,-1,1,-1,1,1,-7,-3,-1
59612405865,1,-2,5,-4,-8,1,-1,-1
59612421334,0,-1,-14,-9,0,-3,0,2
59612421334,-1,-3,-4,-2,4,4,1,-3
59612429769,-6,1,-3,-4,-1,1,0,-5
59612429769,-4,2,8,12,5,-2,3,-2
59612444686,-3,-6,-22,2,1,-3,-3,-6
59612444686,1,3,5,-8,-13,-8,-5,1
59612446208,2,3,-5,3,4,4,6,6
59612446208,0,3,8,1,4,2,-3,1
59612459815,1,-3,1,0,-5,-1,5,0
59612459815,-1,1,-13,-3,0,-4,-3,-3
59612461203,3,3,5,-2,-5,-5,-3,-1
59612461203,0,1,-8,1,3,-2,0,1
59612482232,1,-12,1,10,9,-1,-1,0
59612482232,-3,1,3,-18,-18,-3,-4,-4
59612483721,0,-8,-2,-3,-7,4,1,1
59612483721,-2,1,2,-3,-1,-5,-4,-1
59612504587,-1,4,11,-5,-7,-5,-4,-1
59612504587,-2,-5,1,6,7,3,2,3
59612506196,-1,10,-2,-7,-6,-1,-1,1
59612506196,-1,-4,3,5,1,-3,-6,-5
59612519646,-3,-1,-7,-4,-5,5,4,0
59612519646,-1,-3,-15,1,0,-1,-2,0
59612521223,1,3,3,3,-3,-1,1,3
59612521223,0,-3,-24,2,3,1,-3,-7
59612542117,-5,-7,14,5,4,4,1,-1
59612542117,-2,4,12,1,-4,-6,-5,-3
59612543784,-2,-8,9,4,10,1,1,4
59612543784,-2,2,-9,2,3,0,0,-3
59612564796,2,0,-4,-5,-4,-3,-5,-3
59612564796,1,-2,1,-3,-2,-3,4,-1
59612566214,-2,0,-3,6,6,4,-3,-4
59612566214,4,4,7,-3,-6,-3,0,6
59612587860,2,5,1,-5,-7,1,1,2
59612587860,0,2,3,-1,1,1,0,-4
59612589428,-2,-3,-6,5,-5,-7,-3,-6
59612589428,-2,-3,4,-5,2,5,2,1
59612602216,2,3,-11,-6,-4,-2,-1,-1
59612602216,-4,-5,6,-2,1,-6,-5,-1
59612603731,0,-3,-13,-7,-6,-1,1,-2
59612603731,-6,-11,-14,-4,-4,-2,-1,-1
59612624745,2,5,12,3,-2,-3,-2,0
59612624745,-2,-1,2,6,9,3,-1,-3
59612626409,-1,-7,-3,-6,-2,-1,-6,1
59612626409,-2,0,13,5,5,3,3,0
59612638998,0,-1,-2,-15,-11,-7,-2,2
59612638998,1,2,-2,5,5,4,3,1
59612645878,-2,-2,-7,4,9,-3,-4,-3
59612645878,0,-1,-1,-19,-20,0,2,0
59612662244,1,2,-2,-4,-3,-2,-2,0
59612662244,-1,0,2,11,4,2,0,-2
59612663722,0,-3,-19,0,2,2,3,6
59612663722,-5,-12,-8,2,0,-5,-7,-8
59612683969,0,11,-4,8,12,4,3,-1
59612683969,2,8,6,-9,-22,-9,-3,3
59612684688,4,10,-1,1,12,11,7,2
59612684688,-4,-10,5,10,9,-3,-5,-4
59612698340,-1,9,19,0,-10,1,-3,1
59612698340,-1,-10,-15,4,4,1,1,-4
59612706547,-3,-2,4,5,-7,-5,-4,-1
59612706547,0,0,-13,-2,-1,-7,-8,-4
59612721540,-3,-8,12,-6,-2,0,1,-4
59612721540,5,2,5,4,4,1,5,8
59612722232,-2,-1,14,-5,-7,-1,-3,-3
59612722232,0,0,8,7,6,0,1,2
59612744043,1,-5,-16,3,3,-2,1,5
59612744043,-7,3,-8,-5,-13,-7,-6,-10
59612744710,-6,-13,-2,0,10,0,-2,-5
59612744710,0,0,11,-1,-3,3,1,2
59612758254,-3,-11,-21,-16,-12,-2,-3,-4
59612758254,2,16,24,6,8,7,0,9
59612766508,1,17,4,6,-1,-3,-3,-5
59612766508,-3,-3,-4,-5,0,-8,-4,-3
59612781496,-3,-11,-10,2,-6,3,1,-1
59612781496,1,-1,-6,-2,9,4,7,3
59612782263,4,3,-1,-3,-3,-4,-3,1
59612782263,-4,-1,-1,0,-11,-6,-5,-5
59612804084,1,0,6,6,9,0,0,0
59612804084,-4,-2,-2,-10,6,2,-4,-9
59612804689,-9,-19,7,-9,-6,-1,1,2
59612804689,-3,1,-21,-8,-5,-4,-1,-2
59612818345,1,-7,15,14,7,-4,-1,1
59612818345,2,3,2,-2,-6,-5,-3,0
59612826804,3,2,2,9,7,0,3,1
59612826804,0,8,10,-16,-13,1,0,-2
59612841499,-2,-3,1,15,11,3,-3,2
59612841499,5,4,-2,-2,-4,5,7,8
59612842225,-4,-9,-3,-8,-7,-7,-6,-7
59612842225,1,-14,-25,0,-6,4,6,5
59612864543,2,21,20,7,4,-2,0,-1
59612864543,-6,-15,-4,5,-3,0,0,-4
59612865194,0,3,-2,-8,-7,-1,-3,-2
59612865194,4,4,10,-4,3,2,-1,5
59612878345,-1,-15,-20,2,10,3,4,-1
59612878345,-5,1,14,8,-6,-4,-4,-3
59612886562,-6,-1,-9,-9,-10,-6,-4,-7
59612886562,1,8,11,5,0,1,-2,2
59612901538,-2,-5,-14,-6,-2,-3,-3,-1
59612901538,8,11,27,0,4,1,3,6
59612902243,1,1,4,8,4,1,-4,-7
59612902243,-1,2,-4,-3,-6,-4,4,1
59612924028,0,0,2,-1,1,0,-2,1
59612924028,-3,-27,-21,-7,-2,-4,-4,-5
59612924742,-4,-3,-1,-6,-2,2,0,-9
59612924742,-4,-1,-2,2,4,-1,-3,-2
59612938402,1,11,29,7,-8,-2,-1,-1
59612938402,-1,-7,-20,-13,-3,-2,-1,-1
59612946591,7,6,2,4,-6,-2,2,6
59612946591,-6,-10,-19,-9,-3,-2,-6,-8
59612961536,-4,-10,0,-8,-6,-5,1,-2
59612961536,3,5,-4,-7,-11,-1,3,8
59612962217,-1,-2,13,5,4,6,5,-3
59612962217,-3,3,7,-3,-1,-7,-6,-1
59612984156,-6,-3,-11,1,8,0,0,-9
59612984156,-8,-10,-8,-10,-14,-4,-4,-5
59612984722,8,11,-4,2,2,-1,-1,7
59612984722,7,-14,0,6,7,4,4,6
59612998359,-18,1,3,-4,-3,0,1,-5
59612998359,-3,-5,-2,1,-4,-2,-2,-4
59613006423,-3,-2,-10,11,19,-2,-2,-5
59613006423,4,3,10,-17,-7,0,-2,1
59613021402,6,-7,0,-1,-9,-2,-5,-1
59613021402,-7,6,-13,4,9,-1,-2,-7
59613022194,0,-4,-7,-3,-3,-4,-1,5
59613022194,7,8,13,14,6,0,2,1
59613044013,1,6,14,6,3,-1,-2,-6
59613044013,-3,-3,-17,-14,-2,-3,-5,-1
59613044709,-3,-21,-20,-5,-9,-4,-3,-1
59613044709,2,3,10,9,1,1,5,5
59613058378,6,11,1,-1,6,0,-1,0
59613058378,-6,-20,16,1,-3,-7,-6,-8
59613066577,-3,5,2,-11,-10,-2,0,2
59613066577,-4,-3,-5,7,18,8,-1,-6
59613081667,-2,12,1,4,2,2,6,0
59613081667,6,16,3,4,5,-2,-3,2
59613082202,-4,-10,-12,-9,-12,-1,-2,-3
59613082202,-3,0,29,8,1,-1,-2,-3
59613104048,0,-10,-24,-9,-5,-4,-3,4
59613104048,0,10,14,13,7,3,0,-4
59613104689,4,17,13,9,13,10,6,9
59613104689,-3,-7,-17,-15,-7,1,0,-4
59613118408,1,-2,8,8,3,-4,-3,-1
59613118408,2,0,-12,-16,-12,-3,0,3
59613126627,1,1,5,-1,4,-1,0,1
59613126627,-10,-2,-1,3,2,2,0,-17
59613141480,-1,-3,-10,-2,3,1,3,-2
59613141480,0,-6,-7,-2,-5,-7,-6,-1
59613142210,1,-6,-9,-9,-7,1,-1,1
59613142210,1,10,-3,-13,-18,-9,-8,-4
59613163965,4,2,20,2,-3,-1,1,7
59613163965,-7,-4,-15,3,8,4,-2,-7
59613164714,-3,-4,-18,-5,-2,-1,-1,2
59613164714,5,9,2,12,6,-3,-2,1
59613178367,-1,-2,-4,-16,-9,-2,-1,4
59613178367,-6,-2,12,11,-14,-4,-2,-7
59613186569,-5,-20,-4,-8,-6,-1,-7,-8
59613186569,-5,6,-1,4,6,4,4,1
59613201398,2,2,-2,-7,-5,-10,-7,2
59613201398,2,2,-7,0,5,8,4,3
59613202178,-7,-10,-5,-5,-8,-5,-2,-9
59613202178,2,-8,-4,-2,-4,-5,-3,3
59613223993,-3,-6,-12,-7,-8,1,-1,-7
59613223993,8,12,9,9,11,-1,3,7
59613224745,-2,1,20,-3,-6,-2,-3,-4
59613224745,-4,-7,-16,-1,2,-1,0,0
59613238384,-5,-7,-9,-3,-2,-2,-4,-5
59613238384,1,-8,0,4,-4,5,5,2
59613246590,3,7,21,4,10,0,0,10
59613246590,5,-2,-3,-3,-4,-4,4,-4
59613261511,-6,-4,-18,-5,-1,3,-3,-4
59613261511,-5,-7,5,1,5,-2,-1,-7
59613262169,-2,5,0,4,0,-5,-5,-5
59613262169,3,-3,0,0,-3,0,1,10
59613283938,-5,-11,-14,2,2,-2,-1,-4
59613283938,4,4,6,1,-2,1,2,0
59613284709,-1,7,-7,-3,-6,3,0,-4
59613284709,-4,-7,12,-6,-1,-2,-2,-3
59613298339,10,6,-1,-1,4,0,1,11
59613298339,-4,-9,-7,-6,-2,-5,-3,-1
59613306551,3,4,-2,-4,0,4,4,3
59613306551,-3,-1,-16,-1,-1,-4,-4,-1
59613321553,-1,-5,3,-10,-10,-1,2,3
59613321553,-1,10,10,-5,-2,-4,-6,-3
59613322243,-1,1,-2,11,6,3,5,-2
59613322243,-2,0,1,4,6,3,0,1
59613344057,-1,4,7,-6,-3,2,1,3
59613344057,0,-5,-9,-5,-4,-7,-3,0
59613344706,1,3,1,7,5,0,-7,0
59613344706,-3,4,-10,-12,-12,0,2,-3
59613367235,2,-1,-2,11,2,-1,0,-9
59613367235,0,7,13,-5,-9,-5,-3,5
59613367869,-4,-9,-5,3,4,-1,-3,-6
59613367869,-1,-9,-27,-4,-10,0,-3,-2
59613381557,-1,1,3,-1,-6,-9,-7,-5
59613381557,2,-3,1,-3,3,4,-1,3
59613382219,1,2,7,-6,-5,0,7,2
59613382219,-4,-3,-3,15,16,3,-2,-1
59613412118,-2,0,9,-12,-12,-3,-2,-5
59613412118,-2,6,-15,10,7,-3,-3,1
59613412911,0,10,11,5,-4,-4,-1,-2
59613412911,0,2,19,-9,0,2,0,4
59613427225,-2,1,3,0,3,0,2,-5
59613427225,-5,-24,-18,-10,-8,-3,-3,-5
59613427921,2,-4,-8,6,7,0,-2,2
59613427921,3,3,6,-8,-7,-3,3,-2
59613441544,-8,-14,-16,6,-3,-3,-5,-6
59613441544,-1,-3,1,-11,-8,-4,-6,-5
59613442210,-7,-4,-9,-5,-4,-2,-4,-6
59613442210,2,4,6,4,4,-2,0,7
59613464061,6,6,10,-3,-3,0,1,9
59613464061,0,9,10,6,1,3,-2,-4
59613464708,-9,-24,-38,-8,-6,-6,-5,-8
59613464708,0,-5,1,-3,-1,-2,-5,1
59613487267,-1,3,2,0,0,-1,-1,-7
59613487267,-2,-3,-1,1,-3,-1,0,0
59613487897,2,8,4,-9,-5,-5,-4,0
59613487897,2,11,2,-3,-6,-5,0,-3
59613501454,-4,-17,-16,3,8,4,3,6
59613501454,-2,-7,-12,4,10,0,-2,-6
59613502134,-4,8,28,-8,-8,-2,3,0
59613502134,-1,-8,-30,-15,-13,-4,-6,-3
59613523850,3,15,15,3,4,5,2,5
59613523850,1,-5,6,7,6,2,4,4
59613524614,0,-9,-15,2,0,-3,5,5
59613524614,-5,-1,9,8,1,-1,-8,-11
59613547048,-3,-1,0,-16,-9,-3,-1,-5
59613547048,-1,0,-6,-2,-2,0,4,-1
59613547843,4,7,12,3,-4,-2,-3,2
59613547843,3,-15,-9,-3,2,2,3,5
59613561509,1,5,-5,10,12,3,-2,-2
59613561509,-12,-7,-8,-13,-6,-2,-4,-8
59613562163,-1,-3,5,7,2,-3,0,1
59613562163,-2,-1,2,2,2,0,-5,0
59613592111,-1,0,-10,-1,-4,-3,-3,5
59613592111,3,7,20,-5,-5,-2,1,-3
59613592914,-2,-6,-26,-10,0,2,-3,0
59613592914,-4,4,-3,6,8,1,1,-5
59613607244,-1,-1,6,6,4,-3,-1,-4
59613607244,3,5,-9,-13,-21,-5,-4,4
59613607876,-4,-10,-9,-1,5,3,-3,-4
59613607876,3,5,15,7,-3,-5,-2,3
59613621491,3,4,-9,-14,-5,0,1,-1
59613621491,-5,-9,5,11,2,0,-3,-4
59613622181,-2,-4,-4,-4,-2,-5,-2,-5
59613622181,2,-3,7,4,7,5,8,12
59613644066,0,5,-8,7,7,-3,-8,-1
59613644066,-2,-10,-1,-3,-5,-4,4,-3
59613644718,-2,-3,-2,-10,-5,1,-2,-7
59613644718,-10,-10,-8,-5,-11,-4,-2,-1
59613667176,-1,1,11,3,-4,-1,-2,-2
59613667176,1,-2,-6,3,8,6,2,0
59613667860,3,2,1,5,3,-3,-4,2
59613667860,1,0,4,-1,-12,2,5,-5
59613681451,0,-8,-12,-7,0,-5,-1,3
59613681451,1,5,0,-1,6,5,0,5
59613682190,-3,-8,-4,-1,-6,-2,1,-7
59613682190,2,14,13,7,7,-1,-3,2
59613704050,-5,-9,-1,-5,-9,0,1,-2
59613704050,0,5,3,1,1,-1,-5,-5
59613704697,3,6,2,-2,2,-1,0,3
59613704697,-3,-6,-20,0,9,-3,-6,-8
59613727330,-7,-13,0,-8,-15,-1,3,-8
59613727330,-2,-15,-9,-10,-9,-7,-1,0
59613727872,3,7,23,7,8,4,2,7
59613727872,-3,4,-22,5,5,1,-4,-9
59613741504,-6,-8,8,-6,-5,-2,2,-1
59613741504,-3,-5,-5,5,5,-1,-2,-3
59613742201,-1,-1,-1,0,-8,-4,-2,-1
59613742201,1,3,7,-5,-3,-6,-7,-3
59613772248,6,9,9,10,6,6,1,4
59613772248,-7,-6,-3,-3,-3,2,0,-9
59613772894,-1,-3,-8,-1,-6,-5,-4,2
59613772894,1,17,18,-4,-1,1,2,-1
59613787214,-3,-7,-15,-6,-8,-5,-5,-2
59613787214,5,10,-4,-4,0,-1,-1,8
59613787923,-4,-2,1,2,-4,2,3,-8
59613787923,-2,2,7,5,0,2,0,-1
59613801370,-3,3,-7,-2,2,-5,-5,-4
59613801370,1,5,20,7,3,1,2,1
59613802207,-3,-5,-13,-4,3,1,1,0
59613802207,0,-10,0,-6,-10,-4,-2,2
59613824713,2,3,-9,10,2,0,-1,0
59613824713,2,4,5,1,-4,-2,-1,-2
59613825413,1,-1,0,-3,0,1,-3,3
59613825413,-2,-3,1,0,0,0,6,2
59613847138,-5,-3,15,4,2,1,3,-1
59613847138,0,4,-17,-4,0,-3,-4,-5
59613847863,-2,-7,-2,-8,-10,0,-4,0
59613847863,0,-9,-9,8,5,4,-1,0
59613861549,-2,-3,-4,-6,-8,-6,-5,1
59613861549,-2,-4,6,4,2,-3,-2,-8
59613862168,-3,6,-1,-17,-12,2,3,-1
59613862168,0,10,-7,-2,1,-4,0,1
59613884618,-2,-6,-24,0,5,3,1,-5
59613884618,3,1,-9,0,-2,0,1,6
59613885403,-7,0,16,3,5,-5,-1,-4
59613885403,-2,-8,-2,-4,-5,0,1,-1
59613907190,1,8,7,3,13,2,-1,-1
59613907190,-2,-9,-5,-13,-18,-3,-6,-4
59613907857,7,4,-8,11,14,6,6,4
59613907857,0,-4,-4,-12,-11,-4,-5,-5
59613921500,-2,-2,5,-1,2,-6,-1,0
59613921500,0,4,2,5,15,4,2,0
59613922228,-1,-4,-10,-19,-22,-1,2,-3
59613922228,-4,-5,-1,0,2,-1,-2,-2
59613943721,3,0,1,3,-4,-3,-3,5
59613943721,-6,-5,-13,-9,1,2,-2,-8
59613951534,-2,25,20,11,4,-5,-3,-1
59613951534,-1,-7,-3,-6,-3,2,-5,-2
59613966324,2,-2,-24,-6,-3,2,4,-1
59613966324,0,-1,11,9,-1,-5,-1,8
59613973998,-2,-6,1,-3,-1,0,-5,-9
59613973998,-2,1,0,-1,-5,-4,-3,-4
59613980879,-1,-6,7,-6,4,2,2,6
59613980879,1,2,9,1,-2,1,2,-2
59613989060,4,-3,-14,-4,-3,-5,-3,0
59613989060,-2,-2,-2,4,6,3,5,-2
59614004904,2,3,5,7,11,2,-2,-3
59614004904,2,4,-3,-12,-11,4,3,4
59614005376,0,-5,-5,2,2,-3,-5,1
59614005376,-2,-5,-2,-1,-3,-6,1,-2
59614027222,-3,3,6,-3,-3,-3,-1,-8
59614027222,-5,-8,0,10,6,-1,-1,-1
59614027953,-2,-6,0,4,5,6,1,1
59614027953,-1,-6,-2,-12,-7,-5,-4,-3
59614040727,0,7,3,-4,-14,-3,-3,-4
59614040727,-2,-3,-8,7,11,1,2,1
59614049010,-2,-8,3,-4,-1,-1,-5,-2
59614049010,-1,0,-5,-6,-5,-1,2,1
59614064664,-3,-11,-23,-4,-1,1,0,-2
59614064664,0,6,1,5,-5,-7,-6,-4
59614065359,1,-3,3,1,1,2,2,2
59614065359,-1,4,13,2,1,1,-2,0
59614087183,0,-1,4,0,-7,-1,0,2
59614087183,0,-2,-5,-14,-8,-6,-7,-2
59614087901,-2,-2,-9,0,-1,-4,-1,-5
59614087901,2,4,0,2,1,1,2,3
59614100874,-1,-4,-2,-5,-6,1,0,-1
59614100874,1,5,1,5,2,-2,1,-3
59614133558,-1,-8,0,2,0,-1,-1,-2
59614133558,-1,-2,-3,-2,0,0,1,-3
59614135058,-2,-3,2,1,2,-1,0,-1
59614135058,-2,-1,1,7,7,-2,-3,-2
59614135852,-1,-3,0,-15,-17,-4,-1,1
59614135852,-2,-1,-6,0,1,2,2,-1
59614147248,-2,0,6,5,3,0,0,1
59614147248,1,5,15,-12,-11,3,1,0
59614147884,-4,-9,-36,5,6,-1,-3,1
59614147884,-1,-7,1,-1,-3,-1,-4,0
59614160815,-2,-2,9,-1,-4,-2,-4,-4
59614160815,2,1,-2,-5,-4,-2,1,2
59614169058,0,2,7,2,1,-1,-3,-2
59614169058,3,20,12,6,0,1,1,2
59614184691,-2,-4,-8,-5,0,-4,-4,-4
59614184691,-3,-3,5,-1,-2,-2,0,-1
59614185400,1,-1,3,2,0,0,5,1
59614185400,-1,-7,-5,-1,1,0,-2,-1
59614207302,7,4,7,-4,-4,-2,-3,0
59614207302,-6,-3,-4,1,4,2,1,2
59614207891,-15,1,5,1,0,-2,-3,-12
59614207891,-12,-8,-5,-3,-6,-1,-4,-6
59614220810,6,9,3,4,-2,-1,4,5
59614220810,9,-5,-11,-1,-3,-1,1,6
59614229767,2,0,-5,-8,-1,-1,-2,0
59614229767,2,-1,3,2,-2,-1,0,1
59614252359,-4,-5,-2,0,4,1,-1,-2
59614252359,-4,-2,0,5,3,0,-10,-3
59614253682,12,7,6,1,0,0,7,5
59614253682,-12,-3,-4,0,1,-2,-1,-5
59614267169,-11,-8,-10,-4,-7,-5,-2,1
59614267169,-2,1,2,-5,-4,-6,-6,-9
59614268670,1,3,6,10,4,4,1,2
59614268670,6,5,-20,-24,-2,0,3,3
59614297176,1,1,17,8,1,1,0,1
59614297176,5,1,-14,1,1,2,11,13
59614298683,-11,3,11,6,1,-1,-12,-22
59614298683,7,0,-2,3,1,-3,3,5
59614304687,-3,0,2,9,-1,-3,-10,-13
59614304687,2,4,-1,-22,-5,2,5,4
59614306205,-6,-4,-5,-5,-3,-4,-2,6
59614306205,-1,-3,5,0,0,2,-5,-8
59614327177,3,1,-16,4,2,-2,-4,2
59614327177,2,0,2,0,2,6,9,1
59614328711,-14,-13,1,-2,-1,2,1,-7
59614328711,-11,-8,2,-10,-9,-4,-7,-1
59614349763,10,6,6,10,3,2,6,-2
59614349763,19,0,0,-3,1,2,-6,-3
59614351207,6,-3,-44,-19,2,5,3,17
59614351207,-37,-10,-1,-35,-15,-10,-5,-16
59614364722,17,2,10,12,-1,-2,-4,7
59614364722,-12,-19,3,0,-6,-6,7,-2
59614366224,2,-28,12,13,6,1,-20,-13
59614366224,7,0,-8,2,1,2,3,-6
59614387226,-6,-3,5,0,-2,1,-4,2
59614387226,-2,17,-3,2,6,0,2,-12
59614388699,24,-10,-11,-9,-9,-11,-11,9
59614388699,0,-6,12,15,6,6,10,6
59614409656,-4,-11,-4,-25,-7,-4,4,7
59614409656,-6,-1,10,25,2,0,-8,1
59614411183,-2,4,-11,-26,3,6,6,1
59614411183,4,-6,-10,20,-7,-8,-4,-6
59614424608,1,-1,3,-21,-5,-2,-11,5
59614424608,-13,-28,1,8,4,1,14,-6
59614426176,4,15,18,24,5,1,-4,6
59614426176,5,15,-5,-5,2,0,4,-9
59614447185,-3,17,-7,-8,-5,-3,0,-12
59614447185,-33,-1,-16,-33,-12,-6,-13,2
59614448722,9,16,6,-7,-4,-2,-9,0
59614448722,11,0,9,6,6,3,14,14
59614469631,13,11,-3,14,4,-1,0,-3
59614469631,-2,10,7,10,2,-3,-13,-10
59614471177,-3,-2,-2,1,-2,0,13,9
59614471177,-7,-4,-14,2,2,-1,-11,6
59614483991,-11,-8,-9,-7,-5,-3,5,-9
59614483991,-8,6,-3,-2,-2,-2,-3,-3
59614490897,-1,5,0,13,0,-1,10,1
59614490897,12,-3,4,-3,-3,-2,-6,2
59614507306,-9,-9,3,5,3,1,-5,-9
59614507306,9,1,6,18,4,5,5,8
59614508686,-4,-3,-16,-48,-22,-12,-9,-12
59614508686,4,13,10,11,6,3,4,4
59614529700,-2,-7,-5,0,1,1,4,7
59614529700,10,-2,5,8,1,0,-6,-1
59614531226,-13,-1,14,16,6,1,4,-8
59614531226,9,-5,-8,-6,-5,-5,-6,-6
59614543308,-17,-9,-5,-12,-5,-1,2,-2
59614543308,11,-1,-4,-6,-3,-3,-6,-2
59614559768,-3,-2,3,8,0,-3,3,-3
59614559768,-3,0,-1,-9,-3,-1,-2,-4
59614567180,11,-3,5,9,3,1,-2,10
59614567180,-7,-7,1,0,1,0,8,1
59614568650,-14,0,4,5,1,2,3,6
59614568650,13,-2,-3,-4,-1,-5,-8,-3
59614589677,-11,-4,-6,-11,-3,1,-3,-7
59614589677,6,1,-3,-9,-3,-4,-6,-1
59614591201,-7,-2,-2,-4,1,0,7,-4
59614591201,-18,-6,1,12,2,-2,-5,-4
59614603358,2,-18,-21,-18,-5,-1,-3,1
59614603358,-9,0,9,1,-3,-1,-1,-10
59614612212,3,4,12,18,3,0,1,3
59614612212,-1,-4,-13,-14,-2,-1,-10,-1
59614627098,-2,-2,-2,3,0,-3,14,-3
59614627098,-3,0,-4,-5,-2,-3,-3,-1
59614628683,6,-1,-5,0,-4,-3,-4,-2
59614628683,-4,-2,6,-12,-5,2,1,1
59614649725,-4,1,-3,-2,1,3,-5,-6
59614649725,6,1,-3,-1,-2,-1,-2,4
59614651195,8,5,-4,6,5,2,-6,-2
59614651195,-7,-2,6,8,0,1,10,1
59614663214,3,2,3,2,-2,1,-3,-3
59614663214,-5,-3,-5,-17,-5,-5,-3,-5
59614672216,11,3,-3,-3,0,2,1,6
59614672216,5,2,7,15,3,1,-4,0
59614687190,0,2,1,0,0,-2,2,2
59614687190,3,-6,-12,-11,-1,-1,2,4
59614688684,-15,-3,-3,-6,-3,-6,-6,-9
59614688684,3,2,4,2,-3,-4,-1,0
59614709726,-4,3,12,10,-1,1,0,-4
59614709726,5,-2,-10,-10,-5,1,-4,3
59614711201,-1,4,4,8,4,2,5,0
59614711201,4,1,8,11,5,2,4,6
59614723322,-3,-9,-12,-9,0,-2,-2,2
59614723322,-13,-4,-6,-1,-2,-2,-4,-14
59614732275,-1,-6,-1,-14,-5,-1,-3,-3
59614732275,-8,-1,4,18,1,-2,-12,-2
59614747289,17,9,16,2,1,1,12,7
59614747289,4,-3,-2,0,-2,-1,2,7
59614748705,-2,1,7,5,-1,-3,-1,-2
59614748705,-2,-5,-17,-9,1,0,-2,0
59614769668,-11,1,0,-4,-2,-3,-5,-10
59614769668,5,-7,4,8,2,2,0,8
59614771184,1,-1,-3,-8,-5,-2,2,3
59614771184,4,-4,-6,-11,-3,-1,-1,-4
59614783342,-4,2,5,12,4,2,-3,0
59614783342,9,7,-1,8,0,1,2,6
59614792247,-20,-2,-3,-14,-3,-3,-4,-20
59614792247,4,-1,-7,-8,-1,-2,-1,-1
59614807181,-5,3,1,2,-4,-5,0,-5
59614807181,-4,-3,-5,-1,5,3,-1,-2
59614808666,7,10,13,4,-2,0,1,8
59614808666,-1,0,2,-7,-2,-3,1,-1
59614829674,-1,0,1,-6,0,5,-7,-2
59614829674,4,-1,4,-5,-1,-4,2,4
59614831182,-3,-8,-3,16,3,-2,-5,-7
59614831182,-6,4,-11,-6,-6,2,11,-2
59614843335,7,7,7,10,5,-4,-8,4
59614843335,-3,4,7,-13,-4,-2,0,-5
59614852181,0,-10,-9,-6,0,0,0,2
59614852181,-2,-4,-9,-3,-2,-2,-3,0
59614867362,-3,-7,0,10,5,0,1,0
59614867362,-3,-3,3,2,-5,-4,-2,-5
59614868671,2,-6,0,2,1,-6,-2,3
59614868671,13,2,12,6,5,2,0,3
59614889710,-20,-3,-4,-7,-3,2,1,-2
59614889710,-8,-4,-7,1,1,-3,-8,-12
59614891166,7,0,-3,-2,-7,0,-6,7
59614891166,18,-2,-7,-3,-2,0,8,17
59614903399,-19,-2,1,-14,-5,-4,-4,-27
59614903399,0,-2,-13,-3,-2,-1,-4,-1
59614912209,-6,-5,-6,-5,-1,2,5,-4
59614912209,-2,0,5,6,3,-2,-2,1
59614927144,11,0,-1,3,-4,-6,1,10
59614927144,-4,4,8,3,-4,6,-9,-4
59614928667,2,1,-3,-2,4,-2,6,0
59614928667,-6,-2,-2,-2,-4,-2,-4,-4
59614949790,3,-2,1,-1,2,0,6,4
59614949790,2,1,-4,8,5,-4,-7,0
59614951177,3,-20,-8,-5,-6,-4,5,6
59614951177,-11,-1,5,4,-2,0,-4,-12
59614963418,-1,-3,-8,-14,-8,0,-1,-1
59614963418,0,1,-3,-12,-3,0,0,0
59614972224,-3,0,-6,3,-1,-3,-4,-1
59614972224,-3,0,1,0,1,0,4,1
59614987169,7,3,-1,7,2,-1,-5,1
59614987169,0,-3,11,2,-4,0,4,0
59614988688,-2,4,7,10,5,0,-1,-3
59614988688,-6,-7,-10,-4,-1,2,-1,-4
59615009730,1,-5,-10,-10,-3,-1,-1,2
59615009730,5,3,-1,-25,-11,-7,0,3
59615011204,2,6,8,22,5,0,-1,-1
59615011204,-7,5,0,-30,-14,-4,-5,-5
59615023201,3,-4,-11,1,10,8,2,3
59615023201,-7,-1,3,14,5,-6,0,-4
59615039728,9,3,0,-6,-6,3,7,9
59615039728,0,-4,1,6,1,-4,0,-1
59615046479,7,3,0,-6,-6,-7,-11,-3
59615046479,-1,-4,-8,-10,2,5,10,5
59615053297,1,9,-6,-9,-1,-2,-1,7
59615053297,-4,-4,9,17,5,-1,-9,-19
59615069632,0,-1,0,-11,-7,0,-3,-1
59615069632,-1,-2,3,10,8,3,2,-2
59615071173,-1,-1,-1,-9,-6,-5,-6,-2
59615071173,-1,1,-6,-8,-3,-2,2,5
59615083374,-2,0,-5,1,2,-1,-1,1
59615083374,-1,-1,11,29,3,3,2,-2
59615092192,-6,-1,5,0,1,5,2,-4
59615092192,2,0,-11,-34,-10,-7,-2,4
59615107309,-2,-2,-3,11,1,-1,-1,-4
59615107309,3,1,-4,-4,-3,5,1,12
59615108706,-20,-1,6,11,3,4,-3,-22
59615108706,-1,-2,3,-2,-2,-7,0,4
59615129692,2,9,2,0,0,-1,0,3
59615129692,-4,-2,6,1,-1,-6,-2,-3
59615131178,7,-4,-4,-3,3,5,-2,-1
59615131178,5,6,17,16,7,7,6,4
59615143338,-7,-8,3,8,0,-2,-1,-3
59615143338,4,-5,-14,-14,-15,-6,-5,-1
59615152942,2,0,-3,-2,-1,-5,-1,0
59615152942,-12,-2,0,1,3,5,0,3
59615166511,10,2,14,8,4,1,5,13
59615166511,-5,2,-5,1,0,-2,-3,-19
59615173359,-1,-13,-12,-4,-7,-2,0,4
59615173359,-7,-2,-7,-19,-8,-2,-2,-8
59615189671,7,-4,-1,-2,-6,-2,0,1
59615189671,-4,-11,-10,-7,8,2,-6,-1
59615191151,10,3,5,4,-5,0,4,11
59615191151,-8,-4,7,8,1,-2,-4,-13
59615203384,-4,-7,-7,-2,-2,-3,-2,0
59615203384,2,7,9,-9,-4,-4,1,0
59615212232,-1,-3,-14,-14,-3,-1,-5,0
59615212232,5,2,-2,5,2,-3,-3,-2
59615226603,-17,-5,-16,-9,-1,7,0,1
59615226603,2,-5,1,-20,-19,-16,0,7
59615233205,-9,-3,0,4,3,-1,-5,-11
59615233205,4,-3,0,2,10,5,3,3
59615249800,-5,-1,-2,10,7,4,1,-5
59615249800,-1,-3,-4,-1,-1,0,1,4
59615251182,-1,4,0,-4,-5,-1,0,-2
59615251182,2,-8,-9,-8,-10,-5,-2,13
59615272131,-13,7,1,-1,-3,-5,-10,-27
59615272131,-1,-2,0,9,6,3,-5,0
59615273712,-2,-6,-3,-5,1,2,5,-2
59615273712,5,-5,-2,3,0,1,5,4
59615286537,5,-3,-7,-4,-3,-4,5,6
59615286537,-1,-2,1,-11,-9,-3,-5,0
59615293381,-3,3,9,8,2,-1,-5,-10
59615293381,-1,-1,-14,5,1,0,-2,0
59615309780,-5,1,1,-25,-10,-9,-3,-4
59615309780,7,4,4,13,3,3,0,5
59615311218,15,-7,-17,5,3,0,0,11
59615311218,-17,-2,9,-7,-6,-1,-3,-3
59615332199,5,-2,2,1,0,0,-1,-1
59615332199,-4,1,-3,8,10,5,3,-5
59615333672,1,4,4,-7,-4,-5,2,3
59615333672,1,3,0,0,-5,2,-3,-5
59615346354,2,-2,-5,-3,-2,-10,-3,2
59615346354,11,11,2,-4,0,1,1,11
59615353308,-17,3,16,7,6,7,-1,-16
59615353308,3,-7,-6,0,3,-2,0,-2
59615369644,-2,5,7,5,1,0,5,2
59615369644,2,-5,-5,6,-1,0,3,1
59615371164,-1,-1,-6,-14,-7,-8,-11,-6
59615371164,2,-3,-1,3,-1,-1,-6,1
59615392189,2,-6,-1,1,-2,3,-1,-1
59615392189,-5,-3,-5,3,0,-4,-2,-6
59615393702,-2,-1,0,-9,-1,-1,1,0
59615393702,0,4,7,9,-3,-1,2,-1
59615406512,2,-5,-6,-3,-2,-7,-3,3
59615406512,-4,-3,-2,1,1,-1,-4,-8
59615413311,-4,-1,0,3,0,0,-2,1
59615413311,5,2,-4,-2,2,2,3,1
59615429647,-6,-3,4,2,-1,-3,-7,-7
59615429647,2,-4,-2,2,-1,-3,0,1
59615431165,-13,-6,-2,-2,-1,1,8,1
59615431165,-4,6,4,-4,-2,-4,-9,-5
59615452186,6,1,-4,-5,-6,-1,1,4
59615452186,-3,-3,0,-1,1,2,-3,-2
59615453729,3,6,-3,2,-4,-3,4,-2
59615453729,3,-5,-5,-5,-2,-2,1,5
59615466562,-2,-1,-1,-2,0,1,-2,2
59615466562,-7,-1,-2,-3,-1,0,2,-3
59615473296,9,0,2,-1,-2,-5,-8,8
59615473296,-2,-1,-1,3,-1,-3,3,-2
59615489668,0,10,2,-2,2,2,-1,-3
59615489668,-3,-3,-1,-1,-3,-3,2,-1
59615491189,0,-2,-2,2,-2,-1,0,-3
59615491189,-1,-1,3,1,2,-2,-7,-4
59615512481,-2,-7,-3,-3,-3,1,2,1
59615512481,-3,-2,2,2,2,0,-1,-1
59615518303,-6,-2,-6,-8,-1,-1,-5,-6
59615518303,5,0,-4,1,-2,-2,-1,7
59615526399,3,1,7,5,5,2,2,2
59615526399,-3,-4,-5,-15,-6,-2,4,-3
59615533200,0,-4,0,-4,-5,-2,-6,0
59615533200,-2,-1,0,3,2,1,0,-3
59615549489,-2,-2,-5,-2,0,-2,-1,-1
59615549489,-2,0,6,5,2,0,-7,-4
59615551126,1,3,2,-1,1,-1,8,2
59615551126,1,-5,-13,-6,-1,-3,-4,-4
59615572036,-1,3,-1,1,-1,-2,2,2
59615572036,-1,5,10,4,0,1,-2,0
59615573759,2,-2,0,1,0,-1,-2,2
59615573759,8,4,8,5,3,-1,-7,-4
59615585848,1,-8,-14,-11,-5,-2,1,8
59615585848,-17,-7,-6,0,-1,-1,0,-6
59615594717,-2,0,3,4,1,-2,-6,-4
59615594717,-1,1,9,3,-1,0,9,-2
59615609689,-5,-5,-5,2,0,-2,-7,-8
59615609689,8,0,-6,-9,-2,-3,4,11
59615611231,1,-3,-5,-1,-1,0,-1,-2
59615611231,-7,-1,6,2,-1,-1,5,-3
59615631324,-4,3,3,2,-1,-2,-1,0
59615631324,-7,-4,-6,2,-2,-2,-1,-11
59615639700,3,2,-1,-6,-2,-2,-4,-1
59615639700,-5,-1,-2,0,-4,-3,-3,3
59615645724,1,0,7,2,2,0,2,-1
59615645724,0,0,-8,-6,-3,0,-3,0
59615654726,-6,-7,-3,0,-1,-2,-1,0
59615654726,-3,-7,-7,-5,-3,-2,-4,-1
59615669651,-1,-6,5,5,0,2,1,-2
59615669651,0,1,1,4,3,-1,-5,-5
59615671168,4,2,0,-8,-4,0,7,2
59615671168,-1,1,0,1,0,1,3,1
59615692141,-1,1,-5,-5,0,-3,-23,-4
59615692141,17,1,1,2,2,4,21,7
59615693659,-15,-6,-4,-1,-1,-1,-6,-8
59615693659,0,-4,0,-8,-4,-4,-8,-1
59615706358,1,-3,-4,-1,-1,0,2,0
59615706358,-11,2,8,2,1,0,-7,-3
59615713287,3,-6,-9,3,-2,-2,-1,1
59615713287,1,0,0,-2,1,0,1,0
59615729648,1,2,3,0,-3,-2,-1,-2
59615729648,0,-1,-2,-2,1,-2,-4,1
59615731125,0,6,5,-1,0,-1,0,1
59615731125,-6,-6,-3,2,-1,1,3,-2
