60375652337,0.206604003906,0.494873046875,-0.497314453125,-0.682006835938
60375673527,0.206604003906,0.494567871094,-0.497192382812,-0.682250976562
60375697954,0.210754394531,0.491638183594,-0.498901367188,-0.681884765625
60375712341,0.208801269531,0.4921875,-0.497924804688,-0.682800292969
60375733527,0.203857421875,0.493591308594,-0.495422363281,-0.685119628906
60375757405,0.195617675781,0.492309570312,-0.493103027344,-0.690124511719
60375772353,0.188537597656,0.488830566406,-0.492309570312,-0.695068359375
60375793725,0.18798828125,0.485900878906,-0.49365234375,-0.696350097656
60375849439,0.195617675781,0.486511230469,-0.49560546875,-0.6923828125
60375851493,0.207458496094,0.491027832031,-0.49609375,-0.685363769531
60375852229,0.216430664062,0.497436523438,-0.494079589844,-0.679382324219
60375869291,0.218139648438,0.503051757812,-0.490051269531,-0.677673339844
60375884969,0.221130371094,0.508178710938,-0.487731933594,-0.674560546875
60375907258,0.2255859375,0.511108398438,-0.485534667969,-0.672424316406
60375951005,0.229614257812,0.51171875,-0.486267089844,-0.670104980469
60375961122,0.233581542969,0.509460449219,-0.489990234375,-0.667724609375
60375974724,0.238708496094,0.503112792969,-0.496765136719,-0.665710449219
60375989138,0.244506835938,0.494323730469,-0.50537109375,-0.663696289062
60376004811,0.247375488281,0.484802246094,-0.510375976562,-0.665832519531
60376034148,0.2626953125,0.472900390625,-0.51953125,-0.661437988281
60376050525,0.278747558594,0.460021972656,-0.529174804688,-0.65625
60376072983,0.295654296875,0.445068359375,-0.539367675781,-0.650817871094
60376094023,0.313659667969,0.427368164062,-0.551086425781,-0.644409179688
60376110427,0.332641601562,0.407653808594,-0.564270019531,-0.63623046875
60376132941,0.352722167969,0.388305664062,-0.576843261719,-0.626159667969
60376154145,0.369873046875,0.368103027344,-0.589172363281,-0.616943359375
60376169794,0.38330078125,0.346923828125,-0.6015625,-0.609008789062
60376192923,0.397033691406,0.324645996094,-0.61376953125,-0.600219726562
60376215418,0.409301757812,0.304870605469,-0.625061035156,-0.590637207031
60376229765,0.420776367188,0.2841796875,-0.635375976562,-0.581787109375
60376252949,0.431823730469,0.264404296875,-0.644592285156,-0.572814941406
60376275468,0.442260742188,0.245910644531,-0.652038574219,-0.564636230469
60376289784,0.451049804688,0.228149414062,-0.658264160156,-0.557861328125
60376312950,0.458557128906,0.212707519531,-0.663269042969,-0.551879882812
60376335461,0.46484375,0.198364257812,-0.667663574219,-0.546691894531
60376349774,0.470703125,0.185363769531,-0.671508789062,-0.541442871094
60376372940,0.476806640625,0.175476074219,-0.674194335938,-0.536071777344
60376395492,0.482055664062,0.167297363281,-0.676025390625,-0.531677246094
60376409810,0.486877441406,0.161315917969,-0.676879882812,-0.528015136719
60376439013,0.490783691406,0.155639648438,-0.677734375,-0.524963378906
60376455459,0.494262695312,0.150329589844,-0.678771972656,-0.521911621094
60376469842,0.497436523438,0.145751953125,-0.679504394531,-0.519226074219
60376492936,0.500549316406,0.142700195312,-0.679565429688,-0.517028808594
60376515180,0.502990722656,0.140808105469,-0.679382324219,-0.515441894531
60376536647,0.505187988281,0.140625,-0.679016113281,-0.513793945312
60376552965,0.507141113281,0.141906738281,-0.67822265625,-0.512512207031
60376575436,0.508728027344,0.143493652344,-0.677612304688,-0.511352539062
60376589816,0.509643554688,0.14599609375,-0.676818847656,-0.5107421875
60376612985,0.51025390625,0.148498535156,-0.676086425781,-0.510437011719
60376635442,0.510559082031,0.151062011719,-0.67529296875,-0.510437011719
60376656616,0.510559082031,0.153564453125,-0.67431640625,-0.510925292969
60376672933,0.510375976562,0.155578613281,-0.673461914062,-0.511657714844
60376695469,0.510437011719,0.15673828125,-0.672607421875,-0.512329101562
60376716534,0.510375976562,0.157470703125,-0.671752929688,-0.513305664062
60376732941,0.510437011719,0.158447265625,-0.670654296875,-0.514343261719
60376755461,0.510803222656,0.159057617188,-0.669494628906,-0.515319824219
60376776607,0.511413574219,0.159118652344,-0.668762207031,-0.515747070312
60376792966,0.511962890625,0.158569335938,-0.668151855469,-0.516052246094
60376815509,0.512512207031,0.157592773438,-0.667785644531,-0.516296386719
60376820889,0.513061523438,0.156555175781,-0.66748046875,-0.516540527344
60376843446,0.513488769531,0.156005859375,-0.667114257812,-0.516662597656
60376865981,0.51416015625,0.155944824219,-0.666687011719,-0.5166015625
60376880958,0.514587402344,0.155822753906,-0.666442871094,-0.516540527344
60376903411,0.515014648438,0.155883789062,-0.666198730469,-0.516418457031
60376925976,0.515319824219,0.155700683594,-0.665954589844,-0.516540527344
60376943754,0.515502929688,0.155334472656,-0.665832519531,-0.516540527344
60376963459,0.515747070312,0.1552734375,-0.665771484375,-0.516357421875
60376985900,0.515991210938,0.155334472656,-0.665710449219,-0.516235351562
60377000864,0.516052246094,0.155334472656,-0.665710449219,-0.516235351562
60377023324,0.51611328125,0.155212402344,-0.66552734375,-0.516357421875
60377045828,0.516296386719,0.154968261719,-0.665283203125,-0.516540527344
60377062322,0.516479492188,0.154907226562,-0.664978027344,-0.516784667969
60377084734,0.516723632812,0.154968261719,-0.66455078125,-0.51708984375
60377114840,0.516906738281,0.155029296875,-0.664306640625,-0.517211914062
60377120935,0.517028808594,0.155090332031,-0.664123535156,-0.517272949219
60377143464,0.517028808594,0.155090332031,-0.664123535156,-0.517272949219
60377165970,0.517211914062,0.154907226562,-0.664001464844,-0.517333984375
60377180980,0.517333984375,0.154907226562,-0.663818359375,-0.517456054688
60377203360,0.517456054688,0.155151367188,-0.663513183594,-0.517578125
60377225906,0.517578125,0.155334472656,-0.663269042969,-0.517761230469
60377240945,0.517639160156,0.155456542969,-0.6630859375,-0.517883300781
60377263342,0.517822265625,0.155700683594,-0.662963867188,-0.517822265625
60377285804,0.517761230469,0.155822753906,-0.663024902344,-0.517822265625
60377300825,0.517761230469,0.155822753906,-0.663024902344,-0.517822265625
60377323436,0.517761230469,0.15576171875,-0.663024902344,-0.517761230469
60377345834,0.517761230469,0.155700683594,-0.663024902344,-0.517761230469
60377363740,0.517822265625,0.155700683594,-0.663024902344,-0.517761230469
60377383399,0.517822265625,0.155700683594,-0.663024902344,-0.517700195312
60377408748,0.517822265625,0.155639648438,-0.662902832031,-0.517944335938
60377422319,0.517883300781,0.155639648438,-0.662719726562,-0.51806640625
60377443436,0.517944335938,0.155395507812,-0.66259765625,-0.518249511719
60377465878,0.517944335938,0.155395507812,-0.66259765625,-0.518249511719
60377482347,0.51806640625,0.155334472656,-0.662475585938,-0.518310546875
60377503434,0.518127441406,0.155334472656,-0.662292480469,-0.518493652344
60377525962,0.518188476562,0.155395507812,-0.662048339844,-0.518676757812
60377549792,0.518188476562,0.155395507812,-0.662048339844,-0.518676757812
60377563488,0.518249511719,0.155395507812,-0.662048339844,-0.518615722656
60377586078,0.518188476562,0.155334472656,-0.661987304688,-0.518798828125
60377602358,0.518005371094,0.154846191406,-0.661865234375,-0.519348144531
60377623499,0.51806640625,0.153930664062,-0.661499023438,-0.519958496094
60377653376,0.518127441406,0.152893066406,-0.661193847656,-0.520629882812
60377663779,0.517822265625,0.152404785156,-0.660766601562,-0.521606445312
60377686218,0.517028808594,0.152893066406,-0.660583496094,-0.522399902344
60377701338,0.515686035156,0.154663085938,-0.660339355469,-0.523620605469
60377723726,0.513671875,0.15771484375,-0.659851074219,-0.525268554688
60377743506,0.51123046875,0.162109375,-0.658935546875,-0.527465820312
60377765976,0.508361816406,0.168640136719,-0.658081054688,-0.529235839844
60377783747,0.504150390625,0.177185058594,-0.6572265625,-0.531494140625
60377803465,0.498168945312,0.187133789062,-0.656311035156,-0.534912109375
60377826087,0.491149902344,0.198303222656,-0.654418945312,-0.539611816406
60377843701,0.4833984375,0.210998535156,-0.651550292969,-0.545288085938
60377863299,0.474731445312,0.225280761719,-0.648071289062,-0.551330566406
60377886066,0.46484375,0.241027832031,-0.64453125,-0.557189941406
60377903798,0.452331542969,0.258117675781,-0.640625,-0.564270019531
60377923481,0.43798828125,0.275329589844,-0.636474609375,-0.572082519531
60377945913,0.422790527344,0.292358398438,-0.631774902344,-0.580200195312
60377963728,0.407470703125,0.309143066406,-0.626281738281,-0.58837890625
60377983493,0.392272949219,0.325622558594,-0.620056152344,-0.596374511719
60378005817,0.376953125,0.342163085938,-0.613037109375,-0.604248046875
60378023708,0.362243652344,0.359802246094,-0.604919433594,-0.611145019531
60378043434,0.348266601562,0.376281738281,-0.596435546875,-0.617614746094
60378065925,0.335510253906,0.391418457031,-0.587829589844,-0.623413085938
60378083719,0.324157714844,0.405944824219,-0.579040527344,-0.628356933594
60378103377,0.314697265625,0.420227050781,-0.56982421875,-0.632202148438
60378121226,0.306457519531,0.433410644531,-0.560668945312,-0.635498046875
60378143780,0.298461914062,0.444458007812,-0.552795410156,-0.638610839844
60378163469,0.290588378906,0.453125,-0.546447753906,-0.6416015625
60378181237,0.28369140625,0.460876464844,-0.540771484375,-0.643981933594
60378203693,0.278869628906,0.468627929688,-0.535217285156,-0.645141601562
60378223514,0.275634765625,0.476135253906,-0.530090332031,-0.645263671875
60378241239,0.272766113281,0.482299804688,-0.526123046875,-0.645141601562
60378263710,0.269836425781,0.487670898438,-0.522766113281,-0.645080566406
60378284738,0.266845703125,0.492492675781,-0.519287109375,-0.645385742188
60378301326,0.264587402344,0.497375488281,-0.515625,-0.645568847656
60378323784,0.26318359375,0.503051757812,-0.511474609375,-0.645080566406
60378346310,0.261352539062,0.50830078125,-0.507995605469,-0.644409179688
60378361202,0.257934570312,0.512512207031,-0.505920410156,-0.644104003906
