59977126654,0,3,-3,-2,-3,-2,-2,-2
59977126654,0,-3,-6,-2,-3,0,6,4
59977127417,-3,-2,-5,0,-3,-2,-4,-4
59977127417,2,0,-1,-1,0,-1,4,1
59977133805,-1,3,-8,-2,-2,-3,-7,-5
59977133805,1,-3,-7,-4,-2,-1,-6,-4
59977135848,-1,2,12,1,-3,-4,2,-1
59977135848,-2,-3,-7,0,-4,-4,-4,-4
59977137918,-3,-5,-5,-2,-2,-1,-2,0
59977137918,-4,-4,-10,-2,-3,-6,-5,-4
59977149414,-1,-5,-8,0,-6,-3,-3,-2
59977149414,-3,-1,-2,-1,-1,-3,0,2
59977161609,2,-2,0,6,7,7,2,1
59977161609,4,0,7,2,-5,-4,-1,6
59977169424,-1,2,4,5,10,6,1,-2
59977169424,-1,-8,-16,-13,-16,-5,0,-2
59977176655,-4,-9,-5,-11,-6,-3,0,-6
59977176655,-6,0,5,1,-5,-5,-1,-6
59977191650,1,-1,-4,-3,7,-6,-4,1
59977191650,0,4,1,7,1,-2,-1,1
59977198227,4,-1,-6,-3,-4,4,2,5
59977198227,0,-2,-5,-3,8,-3,-2,-3
59977246329,-2,-4,-10,-20,-28,-2,-2,-6
59977246329,-6,-4,-10,-5,1,2,3,-1
59977247013,-3,0,20,7,-7,-12,-8,-3
59977247013,0,5,22,0,27,2,-2,-2
59977247877,7,-4,2,18,9,21,8,8
59977247877,2,-3,10,0,-12,-31,-18,-4
59977251062,-5,-2,-5,-8,2,21,10,-2
59977251062,7,2,-26,-9,-31,-13,0,6
59977257742,-7,-2,-2,-13,8,-2,-4,-5
59977257742,3,-2,-38,-16,-22,18,8,2
59977266042,0,-8,24,28,29,-10,-9,-3
59977266042,1,7,-1,-13,-22,-17,-9,-5
59977272969,-1,-2,-1,3,9,7,4,2
59977272969,4,5,25,-3,-9,-13,-10,-2
59977288640,-15,-12,-34,1,-9,-5,0,-8
59977288640,-1,-9,-29,12,27,34,14,6
59977295364,19,9,2,12,8,-18,-4,14
59977295364,3,1,-14,-1,-13,9,4,4
59977302809,-11,-2,-8,-23,3,1,0,-15
59977302809,-23,-17,-25,-4,-11,-15,-15,-25
59977319294,-12,-6,-31,-6,-3,-10,-6,-8
59977319294,5,-4,-44,-10,15,1,0,4
59977326105,17,7,-33,2,-11,-2,-2,9
59977326105,0,-17,-11,1,-2,-4,-1,7
59977332864,8,2,-15,-5,2,9,10,16
59977332864,4,-8,1,14,-2,-2,2,0
59977348582,-25,-9,0,-22,-9,1,-1,-19
59977348582,-2,7,5,-4,-2,1,-4,-8
59977355473,-11,-9,-4,-2,-11,-12,-9,-13
59977355473,-5,0,2,13,11,1,1,-1
59977362916,20,4,4,3,-6,-2,5,22
59977362916,1,14,21,-3,-2,0,-5,-4
59977377798,1,-2,15,4,-1,-4,-2,8
59977377798,2,8,19,-1,0,-3,1,-8
59977386064,-2,0,28,5,-7,-5,-6,-4
59977386064,2,-8,-5,-15,-10,-4,-2,0
59977392794,-15,0,19,9,3,-1,-1,-19
59977392794,-11,-2,18,-3,7,-2,-3,-4
59977409329,1,-5,8,-2,-3,-2,-3,1
59977409329,17,24,76,30,24,0,8,17
59977415362,1,0,-14,-18,-13,6,1,1
59977415362,-4,-4,15,1,-11,-11,-7,-11
59977430370,-16,-8,-15,-11,-4,-9,-12,-18
59977430370,18,5,-3,8,-5,0,6,16
59977437785,-12,-3,12,3,7,2,-1,-10
59977437785,0,-1,3,7,-1,6,2,7
59977446768,-13,4,-12,-22,-4,-6,-1,-10
59977446768,0,-6,4,18,13,1,0,1
59977452836,-2,-2,19,-20,-8,-7,-4,4
59977452836,2,3,17,-2,4,2,2,4
59977469285,3,5,30,14,2,6,4,-2
59977469285,-16,-9,-21,-15,-15,-7,-8,-13
59977475330,2,2,-9,7,3,-1,6,0
59977475330,-2,0,3,-3,3,-1,-6,-3
59977490262,14,2,-2,-8,-6,5,6,18
59977490262,-5,-2,-1,-3,3,1,1,-6
59977497731,-6,-2,6,3,-1,-5,-13,-18
59977497731,-4,-6,-4,-6,-3,5,5,-1
59977506756,9,3,-11,1,7,4,8,15
59977506756,-6,-1,4,3,-4,-4,-4,-12
59977512837,2,-1,-14,-7,-4,-2,-1,-1
59977512837,-2,2,2,-1,9,4,3,-2
59977529314,7,-2,-4,-1,-10,-2,-1,8
59977529314,-6,0,3,-3,-16,-7,-6,-2
59977535406,-7,-3,5,11,15,0,-8,-14
59977535406,-6,-4,-10,-17,1,-6,-6,-4
59977550346,-2,-1,-6,9,-7,8,3,3
59977550346,1,-6,2,-6,-8,-5,2,6
59977557748,5,3,2,3,4,1,3,7
59977557748,-1,-5,-7,11,3,-2,-3,-3
59977566778,0,0,3,-1,1,-13,-9,-6
59977566778,-3,-2,-17,-2,8,10,6,0
59977572914,2,-2,5,-6,0,-5,0,3
59977572914,-8,-9,-6,-2,-6,4,0,-5
59977589359,4,0,-7,0,7,1,-2,0
59977589359,-2,3,3,12,-10,-4,-3,-2
59977595341,3,1,12,-3,14,4,1,5
59977595341,1,-1,-13,-13,-7,7,3,3
59977610262,4,-10,-9,-2,4,-2,2,4
59977610262,-6,3,10,-1,-3,2,-2,-11
59977617814,-1,-2,-6,6,-3,-4,0,-2
59977617814,-2,1,10,2,-4,-5,-4,-2
59977626797,-2,3,2,0,-3,4,2,-1
59977626797,3,-3,-10,0,15,6,6,5
59977632865,-2,-4,-7,-2,-2,-2,0,-1
59977632865,-1,1,6,0,-10,-3,0,-1
59977649351,0,4,3,3,-2,-7,-4,-1
59977649351,-1,-6,-6,-3,3,-1,-1,0
59977655266,-2,0,-3,1,0,9,3,2
59977655266,-1,-1,-7,-2,-3,-3,-2,-1
59977670351,1,1,6,3,8,-2,-2,-4
59977670351,-7,-3,-8,-13,-21,-14,-5,-5
59977677913,-1,-3,-5,4,7,10,2,2
59977677913,2,0,3,3,8,-4,0,4
59977686787,2,-2,-2,4,0,4,3,1
59977686787,-3,0,0,-6,-3,-3,-6,-6
59977692900,-1,3,7,2,-3,-9,-6,-4
59977692900,-4,1,-6,-3,-6,2,0,-2
59977709226,-4,-1,-1,4,6,0,-1,-2
59977709226,1,0,0,-5,2,4,0,2
59977715455,0,-2,4,-1,-10,-7,0,-1
59977715455,1,0,-2,4,5,1,0,-1
59977730489,-4,-3,-7,-11,-7,-8,0,-4
59977730489,-1,1,0,4,6,6,2,2
59977737941,2,5,-2,-3,-14,-8,-6,1
59977737941,-2,-13,9,11,9,2,6,4
59977746752,-7,-4,1,5,3,3,-4,-5
59977746752,-1,-5,-11,-8,-2,-1,-2,-1
59977752865,-2,-4,-8,-11,0,-2,-1,-1
59977752865,3,11,-14,8,-10,-6,-3,-2
59977769354,-2,-3,-9,-17,-1,1,-1,1
59977769354,-2,1,7,4,2,1,-1,-2
59977775214,-3,-3,-5,-1,2,4,1,-2
59977775214,0,-1,-4,-4,3,-5,0,1
59977790370,-3,2,-4,7,-1,1,-2,-4
59977790370,8,2,0,-5,0,-3,-4,-1
59977797781,5,3,3,-2,-4,-5,-2,4
59977797781,-5,-5,-5,-8,-9,6,4,-1
59977806792,-10,-2,-1,-1,-2,-7,-7,-6
59977806792,-6,-5,-1,-2,2,3,-1,-2
59977812875,1,6,3,7,-9,-7,-4,-2
59977812875,0,1,7,-4,2,-5,-5,-3
59977829322,3,0,-2,-13,-7,-2,-4,0
59977829322,-5,-4,-4,4,5,5,6,1
59977835318,-2,-1,1,1,-7,1,2,-1
59977835318,0,2,-2,-1,0,-6,-1,0
59977850356,0,0,4,-1,-11,-8,-5,-4
59977850356,4,3,-9,-14,4,-2,0,4
59977857728,0,-6,-3,7,-3,6,4,-1
59977857728,-8,6,-5,-11,1,0,-5,-6
59977866790,1,-1,5,11,-2,-1,-2,-2
59977866790,-2,-2,-7,5,-1,-2,-1,-3
59977872903,-1,-2,-2,-9,-8,-6,-3,-1
59977872903,2,1,7,-1,-1,-1,-1,0
59977889343,-1,1,-2,5,8,7,4,-1
59977889343,3,0,-1,-1,-4,-6,0,2
59977903552,-6,-1,2,-3,4,5,1,-2
59977903552,2,2,0,7,9,12,3,-1
59977910306,0,-1,-6,-5,-6,-5,-3,-1
59977910306,-3,-1,5,6,-2,-3,-5,-1
59977917819,0,-2,-21,-8,-1,-4,-2,-2
59977917819,1,4,21,5,-6,1,0,3
59977926816,2,-7,-7,-10,8,-1,-4,0
59977926816,-3,-1,-10,-3,-5,3,3,-2
59977932895,-6,-1,8,6,5,0,-5,-3
59977932895,-3,-5,-8,-6,-2,-5,-2,-5
59977957528,2,4,-5,-3,-7,0,3,-2
59977957528,0,2,7,-2,-2,-1,-1,-2
59977958228,-1,-5,-8,-8,1,4,3,4
59977958228,1,-3,2,0,2,-4,-2,-1
59977970364,2,3,8,1,-5,-3,-2,2
59977970364,-1,-1,-7,-2,-2,-1,-2,-3
59977977837,-10,-4,-11,1,1,5,0,-9
59977977837,0,4,4,-1,0,-3,-6,-1
59977986714,-1,-14,1,3,6,3,5,7
59977986714,-2,-2,3,4,-3,3,3,0
59977992738,3,8,-7,-3,-7,-12,-12,-5
59977992738,-3,-4,3,2,-2,-4,-1,0
59978009343,2,7,-2,-2,-2,-1,-1,4
59978009343,-3,2,-11,-10,3,-6,-2,-1
59978015391,-1,-5,2,7,-1,0,2,0
59978015391,1,-2,-15,-1,2,-1,0,-3
59978030411,-1,2,2,-5,-5,-1,-2,-3
59978030411,0,-3,-3,0,-16,-11,-7,-4
59978037857,4,-11,1,3,20,12,7,3
59978037857,0,-11,4,0,-7,-8,-5,-3
59978046778,-1,4,-12,-1,2,-2,-1,-2
59978046778,-2,0,7,-10,-5,-4,-5,-4
59978052862,1,-3,-10,1,-3,-1,6,6
59978052862,-1,-12,-2,-7,-3,10,2,-1
59978069343,-1,-5,-7,0,1,6,-2,0
59978069343,2,-9,5,4,0,-5,-2,-1
59978075247,-5,8,7,-3,-3,-1,-4,-7
59978075247,-2,7,-3,-1,6,-5,4,2
59978090291,-9,5,7,3,0,-9,-2,-8
59978090291,1,-7,-7,-3,-3,-11,-2,1
59978097906,2,-1,-1,-13,-6,-16,-2,2
59978097906,0,0,-12,7,1,-3,0,1
59978106775,-3,-4,-3,3,2,-4,-3,-6
59978106775,-1,5,13,12,5,-5,3,5
59978112868,3,-11,-11,-6,-1,-1,4,1
59978112868,-3,10,8,-10,-4,-8,-8,-7
59978129317,0,-3,-2,-3,-6,-9,-5,-3
59978129317,-2,-4,-5,0,3,17,6,5
59978135369,0,8,-1,-2,-8,1,-1,0
59978135369,-1,-2,6,6,-2,-3,-2,4
59978150462,2,-6,-10,-4,7,-2,-4,-1
59978150462,-15,-3,-2,0,4,0,-4,-12
59978157764,0,6,5,-8,-6,-5,-7,-3
59978157764,-8,-6,-7,-1,3,5,5,7
59978167022,2,1,9,4,-3,4,7,-1
59978167022,4,0,0,-9,-2,13,-4,-1
59978180303,-1,1,-4,3,1,5,-6,-5
59978180303,-3,-2,4,3,-2,-2,8,5
59978189203,-2,-3,-10,-6,-1,5,1,2
59978189203,2,4,7,3,1,-4,-1,0
59978195383,-3,-3,0,3,-14,-8,-8,-3
59978195383,6,5,-4,-3,6,-3,-7,-5
59978210201,-3,-13,3,1,3,10,6,1
59978210201,3,-3,-4,3,-2,10,-1,-3
59978217892,-3,11,-11,-5,5,-3,-5,0
59978217892,-4,-14,-17,-2,-7,1,-2,-3
59978232850,-4,1,-5,2,0,-8,4,0
59978232850,0,-1,-19,-8,-8,-15,-6,-3
59978240265,4,2,4,4,2,5,4,7
59978240265,2,4,1,-1,3,-2,2,1
59978249334,-3,2,6,0,1,2,-3,-2
59978249334,-1,-3,-11,2,-1,-5,-9,-4
59978255384,4,1,7,7,0,3,10,7
59978255384,-9,1,-16,-10,-5,2,-1,-12
59978270315,-2,0,17,7,-6,4,-4,-4
59978270315,3,6,-2,-2,-2,-2,3,6
59978277764,1,-2,4,3,8,12,-6,-5
59978277764,5,2,8,-8,-4,3,-4,2
59978292744,-2,-4,-15,-3,-4,-1,-2,-4
59978292744,-5,-4,-8,-2,3,-9,-2,5
59978300434,0,-1,6,3,-2,-15,3,-7
59978300434,0,1,-4,-3,-3,-8,1,2
59978324189,-2,-5,-2,1,1,-4,-3,-3
59978324189,5,0,9,-1,-2,-2,0,4
59978324849,-5,-7,-3,-5,-2,-7,-7,-6
59978324849,-5,-6,-6,12,7,8,3,0
59978330321,2,3,-3,-5,-1,-2,-3,6
59978330321,1,-1,0,-3,0,3,0,0
59978337826,0,-8,-8,-4,-8,-1,-4,2
59978337826,-1,1,-4,-3,1,3,0,-3
59978352926,-3,2,1,0,-5,-4,-6,-3
59978352926,-1,-5,-2,1,2,4,5,-1
59978360377,-2,0,-5,-4,-7,-2,2,-2
59978360377,1,-10,-2,0,-2,-5,-7,-2
59978375909,1,1,-1,-4,0,0,2,2
59978375909,-4,-6,-9,6,5,7,8,3
59978376684,3,1,-1,-5,-1,3,-1,1
59978376684,0,-2,3,0,-2,0,-4,-7
59978390266,1,5,-7,5,-1,-2,1,-1
59978390266,-4,5,1,-7,-4,-3,-3,-5
59978397840,0,-8,-3,11,5,1,3,4
59978397840,-4,-17,-6,-5,-4,0,-3,-1
59978412730,0,-2,-3,-2,6,-1,-1,-3
59978412730,-2,3,-5,1,-5,-1,-1,1
59978420227,-2,-1,3,-4,0,-1,-3,-3
59978420227,3,3,-13,-4,-11,-6,-6,1
59978435904,-2,-3,-4,5,8,4,2,-6
59978435904,0,-4,2,-9,-7,1,0,-5
59978436668,-4,-2,-1,0,-2,-6,-3,1
59978436668,0,2,-6,-2,-7,-5,-3,-10
59978450328,-1,-2,-2,-5,-4,-3,-2,5
59978450328,-1,2,-2,1,5,0,-4,-3
59978457772,-3,0,-9,-1,-3,2,6,4
59978457772,1,5,6,-1,-3,-3,1,0
59978472873,-1,-8,-3,7,3,4,0,-1
59978472873,-1,-3,-1,0,0,-1,-9,-7
59978481064,-1,-1,5,-4,-3,-2,8,1
59978481064,-1,-1,0,3,4,2,1,0
59978496044,0,0,-5,-8,-3,0,0,1
59978496044,-2,-1,0,-1,-2,-2,-1,-3
59978496754,-3,2,-1,-1,1,1,-5,-8
59978496754,-1,2,0,-3,-4,-1,1,3
59978510332,1,6,-12,-3,-8,-6,-4,-6
59978510332,2,4,29,4,-1,0,0,2
59978517943,-1,-5,-13,-8,-1,3,1,4
59978517943,-2,3,2,4,10,1,-4,-10
59978532762,-2,-1,-1,-4,-5,-2,0,3
59978532762,-1,1,9,3,3,2,1,-4
59978540982,-2,-4,-15,1,1,1,-1,0
59978540982,5,8,9,-3,-1,-3,-5,0
59978555991,2,-4,5,-5,-1,0,0,6
59978555991,-1,-4,-10,2,2,-1,3,0
59978556686,0,-1,11,9,5,9,-4,-3
59978556686,0,-7,-14,-12,-4,0,0,3
59978570340,0,0,1,4,3,-1,-2,-2
59978570340,-1,2,-13,-7,-6,-9,-10,-9
59978577725,-1,-2,6,7,1,-4,4,7
59978577725,-3,-2,-4,1,1,-1,-2,-1
59978592761,1,1,3,-2,1,4,8,2
59978592761,-2,-1,5,-1,-1,-3,2,4
59978601032,0,-2,-6,-7,-4,-5,-7,-7
59978601032,0,-2,0,5,2,2,0,-1
59978615917,1,3,8,-2,-3,-3,-5,-3
59978615917,-5,-12,-16,-2,4,0,0,-1
59978616684,1,14,1,4,-1,0,0,-2
59978616684,-4,-21,-3,2,6,-1,-1,1
59978630350,-1,1,1,2,-6,-2,-2,2
59978630350,5,1,-6,0,1,-1,0,1
59978637941,-2,4,15,-12,-10,-4,-4,-1
59978637941,-1,0,-4,5,13,6,4,1
59978652866,-1,-4,-2,2,-1,-4,-5,1
59978652866,0,-2,-3,0,-1,-1,4,-1
59978660889,-2,-6,2,1,-3,-4,-2,3
59978660889,3,6,-5,-6,-7,-4,-4,-5
59978675880,-6,-16,1,-4,0,2,3,-3
59978675880,-1,-2,0,5,0,1,2,4
59978676671,-2,-1,-24,-2,4,2,3,2
59978676671,-2,1,9,0,-3,0,1,2
59978690214,-1,3,-8,-1,0,-4,-6,-5
59978690214,-2,3,2,-2,-3,-3,-6,-3
59978697777,0,-5,-4,-7,-3,0,7,3
59978697777,0,0,8,12,3,0,3,0
59978712841,-12,-5,-17,-4,-2,-1,-2,-9
59978712841,6,-4,-2,-2,0,3,1,-2
59978721115,10,1,-21,-2,2,0,-4,3
59978721115,-13,2,15,12,8,4,-1,-15
59978736067,15,10,15,-9,-14,-9,-3,12
59978736067,-12,-14,-16,-3,-4,0,0,2
59978736711,-2,-1,-1,-1,-1,-5,3,-7
59978736711,4,-4,-15,-5,7,5,1,12
59978750327,-10,2,-4,12,2,0,-6,-18
59978750327,4,2,9,-4,-4,-5,4,5
59978757875,-1,-1,5,-5,10,1,-6,-10
59978757875,11,2,-13,-25,-32,-16,2,8
59978772966,-4,6,8,-8,-2,-2,4,-1
59978772966,6,1,-4,6,5,4,2,8
59978781082,3,-4,-1,10,4,-1,-7,-18
59978781082,-16,1,3,3,5,1,-4,3
59978795951,5,-3,-18,-4,1,-2,4,6
59978795951,-3,2,-5,24,17,8,-1,-3
59978796663,-15,-11,-6,-56,-44,-21,-4,-2
59978796663,-2,3,3,11,6,4,6,-3
59978810209,-8,4,14,23,9,0,-1,-7
59978810209,21,-5,-16,-30,-6,2,6,11
59978817898,-11,-4,12,28,15,7,-9,-7
59978817898,10,0,-14,-16,-12,-6,7,6
59978832863,-13,-8,-19,-9,0,0,-4,0
59978832863,-2,4,8,14,9,-1,-14,-23
59978840234,2,6,4,4,-2,-3,1,16
59978840234,-12,-13,-9,-13,-12,0,11,-7
59978856024,-6,-7,-2,5,4,3,1,10
59978856024,2,8,5,-1,-8,-5,-1,5
59978856705,4,1,-3,-2,-2,-1,1,-3
59978856705,8,3,14,14,7,4,3,1
59978870374,12,0,-7,-17,-7,-2,-2,-11
59978870374,-16,-1,2,-17,-25,-12,-8,-2
59978877831,0,-3,0,19,12,9,-1,3
59978877831,-4,1,-3,-10,5,2,-2,-3
59978892782,5,-3,-1,2,1,2,-2,-1
59978892782,-4,0,0,-5,-2,-5,-2,-3
59978901042,-5,0,0,9,4,-1,0,-7
59978901042,3,-13,-5,2,-1,-5,-5,4
59978915891,3,3,5,-3,-3,-5,-7,-4
59978915891,-10,-4,-12,4,3,2,7,5
59978916703,0,0,-5,4,-1,-4,5,-1
59978916703,7,3,-4,-18,-7,-1,-7,-3
59978930339,-9,-7,12,3,-2,0,-3,1
59978930339,4,-4,-8,8,10,2,0,-5
59978937762,-18,-7,2,-14,-15,-3,6,2
59978937762,7,8,-10,4,-3,-6,-11,-1
59978954340,10,0,-4,-3,-4,2,11,6
59978954340,-8,-3,-1,-1,-1,-2,-4,-15
59978961056,21,4,3,4,5,3,0,16
59978961056,-15,-4,2,3,-2,-3,-5,-2
59978975945,5,7,5,1,-4,-1,-7,-5
59978975945,-7,4,0,-16,-4,-2,-5,-2
59978976741,2,0,14,7,3,1,11,0
59978976741,-12,-7,7,3,4,1,-3,-6
59978990373,5,-2,-3,0,-2,-4,-4,3
59978990373,2,1,0,-2,-2,1,0,1
59978997878,-5,-1,-3,-6,-3,-3,-6,-5
59978997878,4,3,-11,-4,-2,1,-2,-1
59979012842,-5,0,-1,-3,-3,0,-3,-3
59979012842,-3,-4,-1,-8,-10,-1,3,2
59979021044,17,0,9,3,8,3,-2,3
59979021044,-20,-3,-1,-4,-5,-3,-13,-12
59979036018,2,2,3,19,6,4,14,7
59979036018,-3,-8,-8,-7,3,0,-2,2
59979036707,-1,-5,-15,-20,-6,-5,-10,-4
59979036707,5,-2,-5,17,10,9,12,4
59979050366,-2,-1,-11,-12,-8,-7,-10,-1
59979050366,2,3,8,2,-2,-3,1,1
59979057791,-4,0,-1,7,1,-5,-4,-7
59979057791,4,0,-1,-10,-3,0,3,3
59979072907,-5,-2,9,-5,-2,2,6,-1
59979072907,1,1,-7,3,0,-3,-1,-1
59979080951,-5,-9,-8,-2,3,0,-4,-2
59979080951,0,1,1,2,-6,-5,-3,-1
59979112364,1,-4,-3,-2,-1,1,0,2
59979112364,-2,-1,-2,3,-3,-7,-7,-1
59979113845,-3,2,-6,7,4,8,6,-1
59979113845,4,0,-4,-12,-2,-3,-5,0
59979132763,0,-5,-3,12,7,-4,-2,0
59979132763,0,-3,-7,-14,-4,0,-4,-2
59979142363,-3,-4,-4,-3,-7,4,10,0
59979142363,5,3,7,19,16,4,-1,4
59979143167,-7,-11,-21,-23,-18,-14,-12,-7
59979143167,0,2,15,13,-1,2,7,1
59979157465,0,-9,-5,-6,1,-2,-5,1
59979157465,1,2,-4,1,-6,-7,-4,-1
59979158243,-1,-1,-2,7,14,9,4,0
59979158243,-1,-9,2,-9,1,3,3,0
59979163490,-5,5,6,3,-4,-3,-5,-4
59979163490,-1,1,-2,5,3,0,3,0
59979170254,-1,-2,-6,-14,-10,1,0,1
59979170254,-1,0,-12,-3,-1,-2,-1,-1
59979177746,-4,3,-1,-1,-6,-15,-12,-5
59979177746,0,1,-2,0,-2,16,11,0
59979192671,0,9,-4,2,5,1,0,0
59979192671,-1,-8,4,8,3,-1,0,1
59979200887,-1,0,-7,-10,-4,2,-1,0
59979200887,-4,-7,-7,-1,-3,-6,-7,-4
59979215226,-2,1,-3,-5,-3,-1,3,-1
59979215226,0,2,-5,4,1,1,1,1
59979223502,-2,-1,6,8,6,0,-2,-3
59979223502,0,2,6,1,-6,-1,-1,0
59979230243,-2,-9,-17,-24,-6,0,1,-2
59979230243,-1,2,12,7,2,-6,-6,-2
59979237816,-3,2,2,-6,-1,-3,-5,-3
59979237816,-2,1,1,-9,-10,-5,0,-2
59979252749,0,-2,11,8,9,7,-1,-1
59979252749,4,-3,2,11,8,3,5,3
59979260962,0,-3,-6,-15,-23,-20,-6,0
59979260962,-1,-6,-7,-1,2,19,3,-1
59979275187,-2,4,2,9,17,0,-2,-2
59979275187,2,2,-10,-1,-3,-6,-5,-2
59979283623,-1,3,-2,1,5,6,6,4
59979283623,1,1,-3,0,-13,-24,-9,-4
59979298578,-2,1,3,2,2,15,6,-1
59979298578,-1,-1,-4,-19,0,7,5,2
59979299214,-1,-6,5,3,-1,0,-3,-1
59979299214,1,3,0,1,1,-5,-2,-1
59979312787,1,-2,-1,5,-4,-2,-1,-2
59979312787,-6,-3,0,0,3,-3,-7,-4
59979321085,-1,4,-5,-6,-3,2,8,-2
59979321085,-2,-7,-7,1,-2,1,-2,-1
59979335391,1,1,-5,0,7,6,4,2
59979335391,-3,2,-5,-11,-13,-11,-6,-4
59979343593,-2,-9,-8,1,0,0,-2,-3
59979343593,11,4,10,9,8,1,-1,2
59979358462,-14,1,0,6,-4,-9,-3,-4
59979358462,-4,-5,-1,-5,-7,-7,-2,-1
59979359206,0,2,-3,-1,-13,2,-1,0
59979359206,-4,0,4,11,41,25,7,-1
59979372867,5,-7,-11,-23,-25,-17,-4,2
59979372867,0,3,3,10,2,2,-1,-1
59979380904,1,3,3,2,3,-9,-2,1
59979380904,-3,1,2,-10,-16,-7,-7,-5
59979395336,0,-4,-4,2,5,9,5,-2
59979395336,-5,-1,-9,2,4,7,0,-2
59979403517,1,0,1,3,-1,-5,-2,1
59979403517,-3,-3,-2,4,-4,-10,-6,0
59979418630,-1,2,3,3,4,-2,-3,-2
59979418630,2,1,6,-8,-15,-3,2,0
59979419214,12,-15,-4,13,16,11,4,5
59979419214,-17,-1,10,16,14,1,2,-5
59979432773,-2,-4,-8,-34,-31,-5,-9,-3
59979432773,4,6,7,2,-2,-2,3,2
59979440887,-2,0,-5,-4,8,6,-4,-5
59979440887,2,-4,-1,8,-2,3,7,2
59979455378,0,-4,0,10,7,-6,-2,1
59979455378,-3,-2,-2,0,-5,-12,-8,-3
59979463574,-4,5,0,-11,-5,7,5,-1
59979463574,4,0,-5,-8,-5,-11,-8,3
59979478515,-1,4,9,15,5,2,1,-2
59979478515,1,-4,-11,-5,4,12,1,-1
59979479195,-3,-1,-2,-2,1,-5,0,-3
59979479195,-2,-3,-10,-13,-12,-4,-2,0
59979492807,1,1,1,-1,-3,-10,-4,1
59979492807,-2,-3,1,7,2,-1,1,-2
59979501056,-3,-1,6,6,2,-2,-1,-1
59979501056,1,-2,-4,-5,-5,0,1,2
59979515351,11,-2,-1,0,3,-4,-4,0
59979515351,-15,-3,1,8,5,-12,-3,-5
59979523530,-4,1,-5,-3,1,27,5,1
59979523530,3,4,-5,-17,-15,-15,-4,1
59979538525,1,4,-3,7,4,-1,0,-1
59979538525,2,-3,-5,2,0,1,-1,0
59979539192,-2,-5,0,2,0,-8,-5,0
59979539192,-2,-1,-5,-8,-7,-9,-6,-6
59979552796,-3,1,3,4,1,10,2,1
59979552796,3,-2,-9,-8,2,2,3,3
59979560877,-2,5,6,0,-1,-4,-2,-2
59979560877,3,-4,-11,-2,-1,0,-3,0
59979575198,-4,-4,0,4,-1,-4,0,1
59979575198,-2,-3,-1,-4,-6,1,-3,-1
59979583433,-1,-1,-4,5,-3,-5,-1,-1
59979583433,-4,-2,1,-4,-1,1,-1,-1
59979598367,-3,-3,-1,1,0,-3,-3,-4
59979598367,1,2,-1,0,0,3,0,-2
59979599140,-2,-3,-5,-11,-1,-3,-1,-2
59979599140,-3,-10,2,-2,3,5,2,0
59979612794,2,0,1,0,-2,-3,-11,-5
59979612794,3,1,4,-2,-1,1,2,4
59979621065,-3,-1,-3,1,-2,-5,-3,-6
59979621065,12,3,3,1,-1,-2,-9,-1
59979635381,-16,-3,-7,0,1,4,13,-4
59979635381,0,-6,-9,-6,-3,1,2,0
59979643580,-1,1,1,-2,-2,-7,-1,1
59979643580,0,-1,-4,0,1,1,-1,1
59979666716,3,-2,-2,-3,-1,1,-4,-4
59979666716,-2,1,-3,-2,-3,-1,-5,-2
59979667365,-2,-2,-3,1,0,3,-2,-1
59979667365,-3,-2,-4,0,-2,1,3,-1
59979672895,0,-2,-5,2,0,-4,-5,0
59979672895,-3,0,-1,-8,0,1,2,-1
59979680909,4,-4,-2,0,-3,-5,-3,0
59979680909,-4,-2,1,1,1,1,3,-3
59979695220,-1,-1,4,-4,-1,-1,0,1
59979695220,-1,0,-1,6,2,1,1,-1
59979703124,-1,3,5,-1,-1,-1,1,-2
59979703124,-4,1,-3,-1,-1,1,2,-1
59979718302,0,0,-7,-11,-5,-6,0,3
59979718302,0,-2,-1,3,0,0,-1,-2
59979719119,0,0,-2,0,-2,-1,-2,-1
59979719119,-3,0,0,-2,-1,-2,1,-1
59979732781,1,-2,-4,2,0,0,0,1
59979732781,-3,-4,0,0,-1,-1,0,0
59979740964,-1,-1,-4,-2,-2,-1,0,0
59979740964,-4,-4,3,5,1,1,2,1
59979755353,-3,-2,0,-5,-2,-2,-1,0
59979755353,4,5,1,-7,-2,-3,0,-2
59979763563,0,0,-2,6,1,-2,-2,-2
59979763563,-2,2,4,0,-2,-3,-4,-3
59979777868,-4,-12,6,3,-1,0,2,-1
59979777868,-3,-1,-3,-2,-6,-7,-4,0
59979786743,0,-1,6,-3,1,6,4,0
59979786743,0,-3,-2,-2,0,-1,-2,-1
59979792718,-2,6,-1,-2,-2,-3,-5,-1
59979792718,1,-1,2,0,0,2,-10,-6
59979801757,-3,-3,-3,-5,0,-3,6,2
59979801757,-1,-1,-7,-6,-2,0,1,1
59979824036,-1,-3,-12,-8,-4,-3,-4,-1
59979825798,-1,2,-1,1,-2,-1,-5,-3
59979825798,0,0,-10,-8,-3,0,2,2
59979837707,2,-2,-5,-2,-1,0,-1,2
59979837707,0,0,4,10,0,-1,-3,-3
59979846713,-1,0,-6,-14,-2,-4,-2,-3
59979846713,-1,-2,1,0,-1,-2,3,0
59979852862,1,-1,0,3,-1,-1,-2,-4
59979852862,0,-2,-2,-1,-2,0,4,4
59979861702,-4,-2,-1,-1,-2,-3,-3,0
59979861702,3,5,-2,-5,-3,-2,-5,-1
59979875276,1,-1,-4,-4,-3,-2,-2,0
59979875276,-2,-2,2,-2,1,0,0,-2
59979884315,-1,-2,-2,3,-2,-2,-2,-2
59979884315,-3,-1,-1,2,1,-3,-5,-3
59979897725,-2,-1,-1,0,-2,-2,-7,-4
59979897725,-2,-2,-1,-2,-3,-5,5,2
59979906774,-1,-1,-6,-7,-3,5,3,2
59979906774,-1,-3,-3,4,0,0,-1,-1
59979912775,1,7,-1,-3,-2,1,0,0
59979912775,-2,-2,1,-1,0,1,0,0
59979921760,1,-1,-1,-4,-3,-7,-4,0
59979921760,0,0,4,1,0,2,2,2
59979935447,-5,-4,-9,1,-1,-1,0,-3
59979935447,2,1,1,-2,-1,0,-1,0
59979944236,-5,-4,-3,8,-2,-3,-2,-6
59979944236,-2,0,-2,-10,-3,-4,-3,-3
59979957724,1,-3,-3,-1,0,-2,2,0
59979957724,-1,-1,-1,5,0,2,2,1
59979966729,0,-3,4,-5,0,-2,-4,-1
59979966729,-2,-3,2,1,-1,-1,-2,-2
59979972867,-2,1,2,0,0,0,-2,-1
59979972867,-3,-3,-7,-2,-1,2,1,-2
59979981757,1,1,0,2,-1,-1,-3,2
59979981757,-3,0,-4,2,-3,-9,-1,-1
59979995309,1,4,3,-2,2,6,4,1
59979995309,-3,-1,-3,0,-1,-2,-1,-4
59980004202,1,0,-9,-8,-1,-1,1,1
59980004202,0,-1,7,2,0,0,-4,0
59980017725,0,0,-1,-1,-6,-6,-2,2
59980017725,-3,-1,0,2,2,-3,-11,-8
59980026765,1,-2,-3,-2,1,2,14,7
59980026765,2,-3,-8,-3,-1,1,5,0
59980032715,-1,0,-1,-5,-3,-2,-2,-1
59980032715,1,-4,1,1,1,4,7,0
59980041776,-2,-3,-1,2,-1,-4,-11,-5
59980041776,-3,1,-8,-4,-1,0,-7,-2
59980055344,0,6,-1,-4,-3,-4,1,-1
59980055344,-1,1,-1,-4,-2,-1,-7,-4
59980064228,-2,-2,-1,2,-2,0,0,-2
59980064228,0,-2,-1,2,0,0,2,0
59980077858,-4,-6,-2,-5,-1,-2,-2,-6
59980077858,-2,1,0,-2,-1,-2,1,1
59980086734,-2,-1,2,2,-1,0,-1,0
59980086734,3,4,-1,-3,-3,-2,-6,-3
59980092740,-4,-4,0,1,-1,-1,-3,-3
59980092740,1,2,-3,-2,-1,-1,0,3
59980101766,2,-3,-1,-2,-1,3,0,-1
59980101766,-1,1,12,5,2,2,1,-1
59980115245,0,-4,2,5,1,1,0,-1
59980115245,0,-1,-4,-4,-3,-2,0,2
59980124266,-1,1,-2,-2,-3,-6,-7,-2
59980124266,-2,-5,-6,-2,0,1,3,0
59980137905,-2,-4,1,1,-1,-1,0,0
59980137905,-2,0,0,1,-2,0,-3,-1
59980146729,0,-2,-2,6,3,0,-4,-3
59980146729,-2,-3,0,0,-1,3,7,2
59980161602,0,-4,-3,0,0,0,-3,1
59980161602,-4,-3,-3,-3,-4,-2,-3,-5
59980163181,2,5,1,-4,-3,-3,7,4
59980163181,0,-1,-7,-1,-2,-2,-6,-3
59980175315,-2,0,1,-1,3,-1,-2,0
59980175315,-2,-2,5,0,0,-3,-1,-2
59980184244,-1,0,1,0,1,-1,-3,0
59980184244,-1,-4,3,-8,-4,-5,-1,0
59980198408,2,1,-3,-1,-1,-3,-6,-3
59980198408,2,0,-2,2,1,2,5,6
59980205347,-2,-4,-3,-6,0,1,1,-4
59980205347,-3,-3,-3,3,-3,0,-1,-1
59980221566,3,-4,10,-2,-3,-2,-4,-2
59980221566,-1,-4,-2,-3,-1,-1,-3,-3
59980223166,-1,-3,-1,0,-3,-2,-4,-1
59980223166,0,-1,-5,4,1,-2,1,1
59980235381,-1,-1,-6,-1,1,-1,0,0
59980235381,-1,1,-3,-2,-2,2,4,0
59980244252,-2,-2,1,0,-2,0,-2,-3
59980244252,-2,-1,-3,-4,-4,-5,-4,-3
59980258561,-1,-2,1,0,-1,3,1,0
59980258561,0,-2,0,0,0,-2,-4,-2
59980265242,-2,0,-3,-2,0,1,3,0
59980265242,-3,-6,-1,-1,0,-1,-6,-4
59980281718,-2,-2,-7,-2,-3,1,10,6
59980281718,0,-1,0,-2,-1,1,1,1
59980283201,0,-1,-2,0,-1,-4,-3,0
59980283201,0,2,0,3,0,-1,-4,0
59980295350,0,-1,-4,-4,0,-1,-1,-2
59980295350,-3,-4,-8,5,-1,-1,-7,-3
59980304210,-3,-2,0,1,0,-1,-1,-5
59980304210,0,-2,-2,-7,-1,1,4,0
59980318519,-1,-1,-3,-2,0,-3,-4,-3
59980318519,3,5,3,-1,-2,-1,1,3
59980325251,0,-1,-5,-2,-1,-2,-5,-2
59980325251,-3,-1,0,-4,-2,-3,-3,-2
59980341601,0,0,2,3,-1,-2,-2,-1
59980341601,-2,-4,-1,0,-1,0,1,-4
59980343212,-1,6,6,-3,-5,-2,4,2
59980343212,0,1,-1,-4,-2,1,4,3
59980355314,-4,1,-6,-3,-2,-2,-5,-4
59980355314,-1,-1,-2,-4,0,-3,-1,0
59980364185,-3,-5,-6,1,-1,-2,-7,-1
59980364185,1,-2,0,1,0,0,1,-2
59980378548,0,0,7,5,0,-1,-1,-1
59980378548,2,0,-5,-5,-2,-3,4,1
59980385251,-1,-3,-1,-4,-2,0,2,-1
59980385251,0,1,-1,-2,-3,-4,-6,-2
59980401691,0,-2,0,2,-1,-2,-4,-4
59980401691,-5,-8,-5,3,2,6,1,-2
59980403200,2,-2,-2,0,2,2,4,3
59980403200,0,1,-3,1,-1,-1,-6,-2
59980415288,-1,0,-1,-5,-3,-4,0,-1
59980415288,0,0,2,-3,-2,-4,1,-1
59980424233,-1,0,-3,0,1,1,1,2
59980424233,-2,-3,-4,2,1,0,1,-4
59980438519,-1,-1,-4,-1,-1,-5,-3,-1
59980438519,1,1,2,0,-2,-1,5,2
59980445316,-3,-3,-6,0,0,-1,-4,-6
59980445316,-4,-1,2,-3,1,-1,2,-1
