59818892088,0.201110839844,0.531188964844,-0.548706054688,-0.613403320312
59818906982,0.200805664062,0.53076171875,-0.549011230469,-0.613647460938
59818928350,0.195251464844,0.532897949219,-0.546142578125,-0.616149902344
59818952136,0.197631835938,0.533386230469,-0.546630859375,-0.614562988281
59818967017,0.199645996094,0.534301757812,-0.546691894531,-0.613037109375
59818988486,0.201965332031,0.537963867188,-0.545043945312,-0.610534667969
59819012146,0.195922851562,0.537536621094,-0.543151855469,-0.614562988281
59819027164,0.193908691406,0.536437988281,-0.543151855469,-0.616149902344
59819088597,0.193481445312,0.535461425781,-0.543579101562,-0.616760253906
59819089333,0.200012207031,0.535705566406,-0.545715332031,-0.612548828125
59819097344,0.207946777344,0.539916992188,-0.545776367188,-0.606140136719
59819108512,0.210876464844,0.542236328125,-0.545349121094,-0.603393554688
59819132453,0.2099609375,0.54150390625,-0.544372558594,-0.605285644531
59819149823,0.208923339844,0.541625976562,-0.544677734375,-0.605285644531
59819168378,0.208374023438,0.541564941406,-0.544738769531,-0.60546875
59819205586,0.207824707031,0.541381835938,-0.544921875,-0.605651855469
59819223312,0.207336425781,0.541015625,-0.545288085938,-0.605773925781
59819231026,0.21044921875,0.538391113281,-0.546691894531,-0.605834960938
59819258993,0.204528808594,0.540161132812,-0.543579101562,-0.609008789062
59819267131,0.2021484375,0.5419921875,-0.541381835938,-0.610168457031
59819289562,0.194763183594,0.540283203125,-0.53955078125,-0.61572265625
59819310789,0.18798828125,0.535461425781,-0.539794921875,-0.621765136719
59819327118,0.188293457031,0.534790039062,-0.540283203125,-0.621826171875
59819349600,0.196655273438,0.536865234375,-0.5419921875,-0.615966796875
59819370753,0.198120117188,0.537963867188,-0.541809082031,-0.614685058594
59819387091,0.197143554688,0.538208007812,-0.541320800781,-0.615173339844
59819409566,0.194946289062,0.537292480469,-0.541137695312,-0.616882324219
59819430648,0.19677734375,0.535217285156,-0.542541503906,-0.616821289062
59819447062,0.196594238281,0.535278320312,-0.543029785156,-0.616455078125
59819469546,0.196594238281,0.535217285156,-0.543029785156,-0.616455078125
59819490703,0.196594238281,0.53515625,-0.543090820312,-0.616455078125
59819507065,0.196655273438,0.53515625,-0.543090820312,-0.616455078125
59819529616,0.196716308594,0.53515625,-0.543151855469,-0.616394042969
59819550632,0.196716308594,0.535095214844,-0.543151855469,-0.616394042969
59819567055,0.196716308594,0.535095214844,-0.543151855469,-0.616394042969
59819596444,0.196716308594,0.535095214844,-0.543151855469,-0.616394042969
59819610742,0.196716308594,0.535095214844,-0.543151855469,-0.616394042969
59819627000,0.19677734375,0.535034179688,-0.543212890625,-0.616394042969
59819649746,0.19677734375,0.535034179688,-0.543212890625,-0.616394042969
59819670747,0.19677734375,0.535034179688,-0.543212890625,-0.616394042969
59819687093,0.197082519531,0.534851074219,-0.543273925781,-0.616394042969
59819708956,0.197448730469,0.534729003906,-0.543273925781,-0.616455078125
59819731367,0.197875976562,0.53466796875,-0.543212890625,-0.616394042969
59819746520,0.198303222656,0.534484863281,-0.543151855469,-0.616394042969
59819768891,0.198791503906,0.534362792969,-0.543151855469,-0.616394042969
59819791396,0.19921875,0.534240722656,-0.543151855469,-0.616394042969
59819806405,0.199584960938,0.533996582031,-0.543212890625,-0.616394042969
59819828928,0.199584960938,0.533935546875,-0.543273925781,-0.616394042969
59819851408,0.199584960938,0.533935546875,-0.543273925781,-0.616394042969
59819873862,0.199768066406,0.533813476562,-0.543273925781,-0.616455078125
59819888774,0.200134277344,0.533813476562,-0.543273925781,-0.616333007812
59819911331,0.200439453125,0.533813476562,-0.543395996094,-0.616088867188
59819926261,0.200561523438,0.533874511719,-0.543579101562,-0.615905761719
59819948764,0.200561523438,0.533752441406,-0.543884277344,-0.61572265625
59819971503,0.200378417969,0.533569335938,-0.544189453125,-0.615661621094
59819986505,0.2001953125,0.533386230469,-0.544555664062,-0.615539550781
59820008815,0.200134277344,0.533264160156,-0.544860839844,-0.615417480469
59820031344,0.2001953125,0.533081054688,-0.545288085938,-0.615173339844
59820046480,0.200866699219,0.533630371094,-0.545532226562,-0.6142578125
59820068921,0.201782226562,0.535034179688,-0.544555664062,-0.613586425781
59820091413,0.203247070312,0.537414550781,-0.542358398438,-0.612976074219
59820106475,0.205871582031,0.539489746094,-0.540161132812,-0.612243652344
59820128926,0.209655761719,0.541137695312,-0.538696289062,-0.610778808594
59820151407,0.213073730469,0.542785644531,-0.536437988281,-0.610107421875
59820166304,0.216491699219,0.54345703125,-0.533935546875,-0.610473632812
59820188904,0.222106933594,0.543823242188,-0.532348632812,-0.609497070312
59820211416,0.228332519531,0.542297363281,-0.532897949219,-0.608093261719
59820227715,0.234558105469,0.537414550781,-0.535888671875,-0.607482910156
59820248843,0.242553710938,0.529968261719,-0.540100097656,-0.607116699219
59820271342,0.253234863281,0.523132324219,-0.54345703125,-0.605651855469
59820287696,0.267395019531,0.517333984375,-0.54638671875,-0.601928710938
59820308916,0.284057617188,0.510437011719,-0.550598144531,-0.596313476562
59820331360,0.302124023438,0.501220703125,-0.556091308594,-0.590148925781
59820347714,0.321411132812,0.489929199219,-0.562683105469,-0.583190917969
59820368906,0.340515136719,0.476379394531,-0.570617675781,-0.575805664062
59820391519,0.358703613281,0.460876464844,-0.579650878906,-0.568298339844
59820429595,0.37646484375,0.444396972656,-0.589111328125,-0.560119628906
59820436482,0.394287109375,0.427307128906,-0.598449707031,-0.551208496094
59820452736,0.412170410156,0.409912109375,-0.607055664062,-0.541870117188
59820467692,0.429016113281,0.391906738281,-0.615417480469,-0.532592773438
59820491728,0.445434570312,0.372924804688,-0.622863769531,-0.524047851562
59820511061,0.459350585938,0.3544921875,-0.630615234375,-0.515380859375
59820527755,0.473205566406,0.336120605469,-0.636962890625,-0.50732421875
59820548829,0.486633300781,0.318298339844,-0.641906738281,-0.499877929688
59820571381,0.498901367188,0.300170898438,-0.646301269531,-0.493286132812
59820587712,0.509887695312,0.282165527344,-0.650268554688,-0.4873046875
59820608944,0.520141601562,0.265319824219,-0.653747558594,-0.481323242188
59820631366,0.529357910156,0.249267578125,-0.65673828125,-0.475769042969
59820647739,0.537475585938,0.23388671875,-0.659362792969,-0.470825195312
59820670222,0.545104980469,0.219360351562,-0.661254882812,-0.466369628906
59820684549,0.552307128906,0.205749511719,-0.662902832031,-0.461730957031
59820707786,0.558654785156,0.192626953125,-0.664611816406,-0.457336425781
59820728958,0.564208984375,0.180114746094,-0.666137695312,-0.453308105469
59820744564,0.569152832031,0.168334960938,-0.667541503906,-0.449523925781
59820767103,0.57373046875,0.158020019531,-0.66845703125,-0.446105957031
59820788939,0.57763671875,0.148559570312,-0.669006347656,-0.443542480469
59820804566,0.580871582031,0.139770507812,-0.669189453125,-0.44189453125
59820827069,0.58349609375,0.131591796875,-0.669372558594,-0.440612792969
59820848784,0.586059570312,0.124389648438,-0.669311523438,-0.439453125
59820864569,0.58837890625,0.118041992188,-0.669128417969,-0.438354492188
59820887040,0.590637207031,0.11279296875,-0.669067382812,-0.436828613281
59820908990,0.592712402344,0.108337402344,-0.668884277344,-0.435363769531
59820924563,0.594787597656,0.104125976562,-0.66845703125,-0.434265136719
59820947090,0.596374511719,0.0997314453125,-0.668151855469,-0.43359375
59820970240,0.597717285156,0.0953979492188,-0.667785644531,-0.433288574219
59820984566,0.598754882812,0.0918579101562,-0.667602539062,-0.432861328125
59821007011,0.600036621094,0.0891723632812,-0.667236328125,-0.432189941406
59821030223,0.601318359375,0.086669921875,-0.6669921875,-0.431274414062
59821044584,0.602416992188,0.083984375,-0.666931152344,-0.430358886719
59821067039,0.603271484375,0.0809936523438,-0.6669921875,-0.429748535156
59821090242,0.604431152344,0.0781860351562,-0.666625976562,-0.42919921875
59821104592,0.60546875,0.0759887695312,-0.666259765625,-0.428588867188
59821127108,0.606506347656,0.073974609375,-0.665954589844,-0.427978515625
59821150220,0.607177734375,0.0718383789062,-0.665832519531,-0.427551269531
59821164565,0.608093261719,0.0700073242188,-0.66552734375,-0.427062988281
59821187096,0.608947753906,0.0682983398438,-0.665222167969,-0.426635742188
59821210192,0.609741210938,0.0667724609375,-0.664916992188,-0.426208496094
59821224576,0.610534667969,0.0653076171875,-0.66455078125,-0.425903320312
59821247081,0.611083984375,0.0640258789062,-0.664245605469,-0.42578125
59821270225,0.611389160156,0.06298828125,-0.664001464844,-0.425842285156
59821284560,0.611633300781,0.06201171875,-0.663818359375,-0.425964355469
59821307049,0.611633300781,0.0609741210938,-0.663635253906,-0.426330566406
59821330191,0.611633300781,0.0604858398438,-0.663330078125,-0.426940917969
59821344585,0.611694335938,0.0606689453125,-0.662780761719,-0.427673339844
59821367074,0.611511230469,0.060791015625,-0.662292480469,-0.428649902344
59821390247,0.611206054688,0.0609741210938,-0.661987304688,-0.429504394531
59821404563,0.610961914062,0.0617065429688,-0.66162109375,-0.430358886719
59821427071,0.610778808594,0.062744140625,-0.660949707031,-0.431457519531
59821450274,0.610656738281,0.0640258789062,-0.660095214844,-0.432739257812
59821471227,0.610534667969,0.0650634765625,-0.659240722656,-0.43408203125
59821487055,0.610717773438,0.066162109375,-0.658142089844,-0.435363769531
59821510212,0.611083984375,0.067626953125,-0.656921386719,-0.436401367188
59821539040,0.611572265625,0.0690307617188,-0.655883789062,-0.437133789062
59821547065,0.611938476562,0.0699462890625,-0.655029296875,-0.437683105469
59821570192,0.612426757812,0.0704345703125,-0.654235839844,-0.438110351562
59821591308,0.61279296875,0.0708618164062,-0.653625488281,-0.438415527344
59821607108,0.612915039062,0.0708618164062,-0.6533203125,-0.438842773438
59821630241,0.612976074219,0.0707397460938,-0.653137207031,-0.439025878906
59821651325,0.612976074219,0.0703735351562,-0.652954101562,-0.439208984375
59821667063,0.613159179688,0.0700073242188,-0.652770996094,-0.439392089844
59821690186,0.613159179688,0.0696411132812,-0.652526855469,-0.439758300781
59821711219,0.613159179688,0.0691528320312,-0.65234375,-0.440124511719
59821727025,0.613403320312,0.0689697265625,-0.652099609375,-0.440124511719
59821749641,0.613647460938,0.0689697265625,-0.651916503906,-0.440124511719
59821771335,0.613708496094,0.0689086914062,-0.65185546875,-0.440124511719
59821787059,0.613708496094,0.0689697265625,-0.65185546875,-0.440124511719
59821809512,0.613708496094,0.0689086914062,-0.65185546875,-0.440063476562
59821831398,0.61376953125,0.0689086914062,-0.65185546875,-0.440063476562
59821847095,0.613891601562,0.0693359375,-0.65185546875,-0.439819335938
59821869566,0.614013671875,0.0698852539062,-0.651794433594,-0.439697265625
59821892732,0.613891601562,0.0703735351562,-0.651794433594,-0.439697265625
59821907043,0.613830566406,0.07080078125,-0.651672363281,-0.439880371094
59821929497,0.613830566406,0.0714721679688,-0.651611328125,-0.43994140625
59821952661,0.613830566406,0.072265625,-0.651489257812,-0.43994140625
59821967104,0.613647460938,0.0728149414062,-0.651611328125,-0.440002441406
59821989569,0.613525390625,0.0730590820312,-0.651672363281,-0.440002441406
59822012715,0.613464355469,0.0730590820312,-0.651733398438,-0.440002441406
59822027004,0.613464355469,0.0728759765625,-0.651611328125,-0.440185546875
59822049688,0.613464355469,0.0728759765625,-0.651611328125,-0.440185546875
59822072692,0.613464355469,0.0728759765625,-0.651611328125,-0.440185546875
59822087063,0.613464355469,0.0726928710938,-0.651489257812,-0.4404296875
59822109628,0.613525390625,0.0723876953125,-0.651306152344,-0.440612792969
59822140179,0.613647460938,0.0720825195312,-0.651123046875,-0.440795898438
59822146418,0.613891601562,0.072021484375,-0.650756835938,-0.441040039062
59822160772,0.614074707031,0.0720825195312,-0.650390625,-0.441284179688
59822183128,0.614196777344,0.0720825195312,-0.650024414062,-0.441650390625
59822206295,0.614379882812,0.072265625,-0.649658203125,-0.441955566406
59822220616,0.614440917969,0.0726928710938,-0.649291992188,-0.442260742188
59822243247,0.614440917969,0.0731201171875,-0.649047851562,-0.442565917969
59822266343,0.614318847656,0.0733642578125,-0.648864746094,-0.442993164062
59822290156,0.614074707031,0.0736694335938,-0.648803710938,-0.443298339844
59822303203,0.613891601562,0.0744018554688,-0.648864746094,-0.443420410156
59822326362,0.61376953125,0.0753784179688,-0.648742675781,-0.443603515625
59822340615,0.613464355469,0.0762329101562,-0.648681640625,-0.444030761719
59822363120,0.613159179688,0.0772094726562,-0.648559570312,-0.444396972656
59822386370,0.612487792969,0.0784301757812,-0.648681640625,-0.444885253906
59822400613,0.611450195312,0.0803833007812,-0.648864746094,-0.445678710938
59822423150,0.609802246094,0.08349609375,-0.649291992188,-0.44677734375
59822446231,0.607421875,0.0877685546875,-0.649719238281,-0.448608398438
59822460690,0.604370117188,0.0933227539062,-0.650146484375,-0.450988769531
59822483012,0.600341796875,0.1005859375,-0.650939941406,-0.45361328125
59822506171,0.595520019531,0.110168457031,-0.652160644531,-0.4560546875
59822520589,0.589721679688,0.121704101562,-0.653564453125,-0.458679199219
59822543056,0.582885742188,0.134704589844,-0.654846191406,-0.461791992188
59822566353,0.575317382812,0.149475097656,-0.655700683594,-0.465515136719
59822580631,0.566833496094,0.165588378906,-0.656127929688,-0.469848632812
59822604479,0.557495117188,0.183166503906,-0.656005859375,-0.474670410156
59822626237,0.547424316406,0.202453613281,-0.655395507812,-0.479431152344
59822640690,0.537231445312,0.222412109375,-0.654052734375,-0.483947753906
59822663158,0.526733398438,0.241821289062,-0.652221679688,-0.488525390625
59822686352,0.515625,0.260864257812,-0.649475097656,-0.494262695312
59822700659,0.503845214844,0.279541015625,-0.645690917969,-0.501098632812
59822723218,0.491577148438,0.296508789062,-0.641235351562,-0.509155273438
59822746213,0.480041503906,0.311767578125,-0.637023925781,-0.516296386719
59822760662,0.469543457031,0.325744628906,-0.632629394531,-0.522705078125
59822783129,0.458679199219,0.33935546875,-0.627136230469,-0.5302734375
59822806334,0.447692871094,0.3515625,-0.621398925781,-0.538330078125
59822820714,0.437316894531,0.362060546875,-0.616394042969,-0.545593261719
59822843206,0.42822265625,0.372497558594,-0.611328125,-0.551513671875
59822865724,0.419189453125,0.382690429688,-0.606079101562,-0.557250976562
59822880700,0.4091796875,0.392883300781,-0.600891113281,-0.563171386719
59822903152,0.398620605469,0.402465820312,-0.59619140625,-0.568969726562
59822925667,0.388671875,0.411865234375,-0.592041015625,-0.573425292969
59822940751,0.378723144531,0.421264648438,-0.588317871094,-0.5771484375
59822963120,0.368530273438,0.431213378906,-0.583984375,-0.580749511719
59822985597,0.358154296875,0.440551757812,-0.57958984375,-0.584594726562
59823000552,0.346923828125,0.448181152344,-0.575988769531,-0.589111328125
59823023064,0.334899902344,0.454406738281,-0.573608398438,-0.593627929688
59823045667,0.323364257812,0.460815429688,-0.571105957031,-0.597412109375
59823060726,0.31298828125,0.468017578125,-0.568176269531,-0.600158691406
59823083184,0.303283691406,0.47509765625,-0.565307617188,-0.602233886719
59823105725,0.294494628906,0.481140136719,-0.563293457031,-0.603759765625
59823120726,0.286804199219,0.486450195312,-0.561645507812,-0.604736328125
59823143059,0.279968261719,0.491943359375,-0.5595703125,-0.605407714844
59823165737,0.273742675781,0.497375488281,-0.557067871094,-0.606079101562
59823180693,0.268005371094,0.501953125,-0.554992675781,-0.606811523438
59823203083,0.262817382812,0.505310058594,-0.554077148438,-0.607116699219
59823225669,0.257995605469,0.508666992188,-0.55322265625,-0.607177734375
59823240672,0.253784179688,0.512329101562,-0.551879882812,-0.607116699219
59823263193,0.250244140625,0.515991210938,-0.550170898438,-0.607055664062
59823285648,0.247497558594,0.519165039062,-0.548522949219,-0.606872558594
59823300748,0.2451171875,0.522216796875,-0.546875,-0.606750488281
59823323075,0.242553710938,0.524841308594,-0.545349121094,-0.606872558594
59823345618,0.239990234375,0.527160644531,-0.544067382812,-0.607055664062
59823360685,0.236938476562,0.528991699219,-0.543212890625,-0.607421875
59823383278,0.233032226562,0.53076171875,-0.542541503906,-0.607971191406
59823405699,0.227355957031,0.532348632812,-0.541931152344,-0.609313964844
59823420686,0.221374511719,0.534606933594,-0.540344238281,-0.610900878906
59823442988,0.216918945312,0.536315917969,-0.538879394531,-0.6123046875
59823465566,0.214233398438,0.536376953125,-0.5380859375,-0.613891601562
59823480510,0.212707519531,0.534057617188,-0.5390625,-0.615600585938
59823503175,0.212768554688,0.532043457031,-0.540405273438,-0.616149902344
59823525567,0.21337890625,0.531799316406,-0.540283203125,-0.616271972656
59823540777,0.213439941406,0.532348632812,-0.539184570312,-0.616760253906
59823563173,0.212829589844,0.532958984375,-0.538024902344,-0.617431640625
59823579522,0.211975097656,0.533203125,-0.537414550781,-0.618103027344
59823600581,0.2109375,0.53271484375,-0.53759765625,-0.61865234375
59823623170,0.209655761719,0.531616210938,-0.538208007812,-0.619506835938
59823639544,0.208374023438,0.530395507812,-0.538635253906,-0.62060546875
59823662010,0.207458496094,0.529541015625,-0.538757324219,-0.621520996094
59823683270,0.207092285156,0.529113769531,-0.538757324219,-0.622009277344
59823699492,0.207092285156,0.529113769531,-0.538757324219,-0.622009277344
59823722049,0.207397460938,0.529357910156,-0.538452148438,-0.621948242188
59823743197,0.207580566406,0.529479980469,-0.538208007812,-0.622009277344
59823759540,0.207580566406,0.529479980469,-0.538208007812,-0.622009277344
59823782001,0.207275390625,0.529235839844,-0.538391113281,-0.622192382812
