59601277463,-0.242431640625,-0.393005371094,0.470153808594,0.752136230469
59601298687,-0.242553710938,-0.39306640625,0.470031738281,0.752136230469
59601314010,-0.240661621094,-0.393920898438,0.469299316406,0.752746582031
59601337486,-0.244323730469,-0.39013671875,0.472106933594,0.751770019531
59601358897,-0.243896484375,-0.389404296875,0.472351074219,0.752136230469
59601373875,-0.247741699219,-0.386901855469,0.474365234375,0.750915527344
59601397354,-0.256652832031,-0.387023925781,0.476318359375,0.746643066406
59601418885,-0.262329101562,-0.389770507812,0.476318359375,0.743225097656
59601474482,-0.261474609375,-0.390441894531,0.475769042969,0.743530273438
59601476610,-0.258972167969,-0.390380859375,0.475280761719,0.744750976562
59601477828,-0.25732421875,-0.389709472656,0.475219726562,0.745666503906
59601495748,-0.260314941406,-0.38720703125,0.477111816406,0.744750976562
59601510111,-0.257263183594,-0.39013671875,0.475524902344,0.745300292969
59601524457,-0.256408691406,-0.390441894531,0.475402832031,0.745483398438
59601549445,-0.255859375,-0.390441894531,0.475219726562,0.745788574219
59601576095,-0.255737304688,-0.390441894531,0.475219726562,0.745849609375
59601591813,-0.255676269531,-0.390441894531,0.475219726562,0.745910644531
59601606757,-0.255798339844,-0.390075683594,0.475769042969,0.745727539062
59601629151,-0.259094238281,-0.385681152344,0.478576660156,0.744995117188
59601643649,-0.249816894531,-0.38525390625,0.476867675781,0.74951171875
59601666083,-0.248107910156,-0.384704589844,0.476745605469,0.750427246094
59601688585,-0.249572753906,-0.382080078125,0.478332519531,0.750244140625
59601703568,-0.251831054688,-0.382080078125,0.478820800781,0.749206542969
59601726088,-0.258239746094,-0.385192871094,0.478637695312,0.745483398438
59601748657,-0.254516601562,-0.387878417969,0.476440429688,0.746826171875
59601764942,-0.244750976562,-0.387084960938,0.474548339844,0.751647949219
59601786112,-0.240356445312,-0.383728027344,0.475219726562,0.75439453125
59601808623,-0.236999511719,-0.384643554688,0.474304199219,0.755554199219
59601823589,-0.237548828125,-0.384094238281,0.473693847656,0.756042480469
59601846187,-0.237854003906,-0.384460449219,0.4736328125,0.755798339844
59601868616,-0.237915039062,-0.384521484375,0.4736328125,0.755798339844
59601883660,-0.237915039062,-0.384521484375,0.473571777344,0.755737304688
59601906149,-0.237976074219,-0.384582519531,0.473571777344,0.755737304688
59601928650,-0.237976074219,-0.384582519531,0.473571777344,0.755737304688
59601943624,-0.238037109375,-0.384643554688,0.473571777344,0.755676269531
59601966192,-0.238037109375,-0.384704589844,0.473571777344,0.755676269531
59601988619,-0.238037109375,-0.384704589844,0.473571777344,0.755676269531
59602003553,-0.23828125,-0.385009765625,0.473388671875,0.755554199219
59602026251,-0.238708496094,-0.385314941406,0.47314453125,0.75537109375
59602048592,-0.239135742188,-0.385498046875,0.473022460938,0.755249023438
59602063586,-0.239501953125,-0.3857421875,0.472778320312,0.755126953125
59602086099,-0.23974609375,-0.385925292969,0.472595214844,0.755126953125
59602108562,-0.240173339844,-0.386108398438,0.472290039062,0.755065917969
59602123594,-0.24072265625,-0.386413574219,0.471984863281,0.754943847656
59602146116,-0.241333007812,-0.386779785156,0.471557617188,0.754821777344
59602168620,-0.241943359375,-0.387145996094,0.471252441406,0.754638671875
59602183586,-0.242248535156,-0.387329101562,0.471008300781,0.754577636719
59602206040,-0.242248535156,-0.387329101562,0.471008300781,0.754577636719
59602228479,-0.242248535156,-0.387329101562,0.471008300781,0.754577636719
59602243469,-0.242309570312,-0.387390136719,0.471008300781,0.754577636719
59602266091,-0.2421875,-0.387329101562,0.471130371094,0.754516601562
59602288626,-0.242126464844,-0.387512207031,0.471252441406,0.75439453125
59602303524,-0.242431640625,-0.388854980469,0.470825195312,0.753845214844
59602326062,-0.243530273438,-0.391418457031,0.469909667969,0.752746582031
59602348559,-0.245422363281,-0.394348144531,0.468688964844,0.751342773438
59602363492,-0.248168945312,-0.396240234375,0.467346191406,0.750305175781
59602386086,-0.253234863281,-0.399230957031,0.463928222656,0.749145507812
59602408760,-0.258911132812,-0.403076171875,0.458557128906,0.748474121094
59602423558,-0.266845703125,-0.405700683594,0.453857421875,0.747131347656
59602446173,-0.274658203125,-0.403015136719,0.454528808594,0.745361328125
59602468523,-0.282592773438,-0.39501953125,0.459350585938,0.74365234375
59602483544,-0.291687011719,-0.382568359375,0.465026855469,0.743103027344
59602506121,-0.302856445312,-0.366577148438,0.470520019531,0.743286132812
59602528648,-0.316833496094,-0.349853515625,0.475708007812,0.742248535156
59602543654,-0.332824707031,-0.333374023438,0.481140136719,0.739318847656
59602567438,-0.348571777344,-0.315979003906,0.486755371094,0.736022949219
59602588612,-0.363464355469,-0.297912597656,0.492309570312,0.732604980469
59602606414,-0.376953125,-0.279174804688,0.497924804688,0.729431152344
59602627419,-0.388671875,-0.259216308594,0.504211425781,0.726257324219
59602648482,-0.399719238281,-0.23974609375,0.5107421875,0.722412109375
59602666372,-0.410705566406,-0.221740722656,0.516540527344,0.717834472656
59602687462,-0.420166015625,-0.204345703125,0.522216796875,0.713439941406
59602708532,-0.428833007812,-0.186645507812,0.528198242188,0.708679199219
59602726926,-0.437133789062,-0.169616699219,0.53369140625,0.703735351562
59602747366,-0.445434570312,-0.1533203125,0.538330078125,0.69873046875
59602768537,-0.453491210938,-0.138000488281,0.542358398438,0.693664550781
59602786370,-0.460571289062,-0.123168945312,0.546203613281,0.688720703125
59602807421,-0.466613769531,-0.108581542969,0.549682617188,0.684326171875
59602828564,-0.472473144531,-0.094482421875,0.552368164062,0.68017578125
59602846408,-0.479125976562,-0.0809936523438,0.554321289062,0.675659179688
59602874912,-0.485290527344,-0.0674438476562,0.556030273438,0.67138671875
59602889208,-0.490295410156,-0.0538940429688,0.5576171875,0.667602539062
59602905568,-0.494750976562,-0.0423583984375,0.558410644531,0.664489746094
59602928099,-0.498718261719,-0.03173828125,0.558532714844,0.662048339844
59602949321,-0.502624511719,-0.02197265625,0.558471679688,0.659545898438
59602965621,-0.50634765625,-0.01318359375,0.558471679688,0.656860351562
59602995580,-0.509765625,-0.00555419921875,0.558654785156,0.654174804688
59603002425,-0.51220703125,0.00164794921875,0.558959960938,0.652038574219
59603025586,-0.514526367188,0.0072021484375,0.558898925781,0.650207519531
59603048050,-0.516967773438,0.0117797851562,0.558166503906,0.648864746094
59603062461,-0.519592285156,0.015869140625,0.557250976562,0.6474609375
59603085611,-0.521545410156,0.02001953125,0.556579589844,0.646362304688
59603108067,-0.52294921875,0.0237426757812,0.556091308594,0.6455078125
59603122483,-0.524353027344,0.0271606445312,0.555725097656,0.644592285156
59603145353,-0.525817871094,0.030517578125,0.555236816406,0.643615722656
59603168111,-0.527709960938,0.033203125,0.554565429688,0.642517089844
59603189201,-0.529907226562,0.0353393554688,0.553649902344,0.641357421875
59603205589,-0.531921386719,0.03759765625,0.552917480469,0.640197753906
59603228042,-0.533264160156,0.0396118164062,0.552551269531,0.639282226562
59603249118,-0.53466796875,0.041015625,0.552185058594,0.638366699219
59603265555,-0.535949707031,0.0426025390625,0.551635742188,0.637634277344
59603288067,-0.537109375,0.0438842773438,0.551330566406,0.636840820312
59603302389,-0.538269042969,0.044677734375,0.550964355469,0.636108398438
59603325604,-0.5390625,0.04541015625,0.550842285156,0.635498046875
59603348087,-0.539978027344,0.046142578125,0.550720214844,0.634765625
59603362419,-0.540954589844,0.0468139648438,0.550598144531,0.634033203125
59603393116,-0.541870117188,0.0477294921875,0.550598144531,0.633178710938
59603408089,-0.542663574219,0.0487670898438,0.550415039062,0.632507324219
59603430596,-0.543640136719,0.0498046875,0.550354003906,0.631713867188
59603445641,-0.544555664062,0.0509033203125,0.550170898438,0.630981445312
59603468089,-0.545288085938,0.0521240234375,0.550109863281,0.630310058594
59603489120,-0.546020507812,0.0531616210938,0.550170898438,0.629577636719
59603505559,-0.546936035156,0.0537719726562,0.550048828125,0.628784179688
59603528085,-0.547668457031,0.0548095703125,0.5498046875,0.628234863281
59603550568,-0.548156738281,0.0562133789062,0.549560546875,0.6279296875
59603565543,-0.548767089844,0.057373046875,0.549499511719,0.627380371094
59603588098,-0.54931640625,0.0581665039062,0.549499511719,0.626770019531
59603609241,-0.549743652344,0.058837890625,0.549377441406,0.62646484375
59603625558,-0.549987792969,0.0596923828125,0.549133300781,0.626342773438
59603648086,-0.550170898438,0.0604248046875,0.549011230469,0.626281738281
59603669239,-0.550354003906,0.0608520507812,0.548828125,0.626220703125
59603685561,-0.550598144531,0.06103515625,0.548522949219,0.626220703125
59603708521,-0.550842285156,0.0610961914062,0.548217773438,0.626281738281
59603729255,-0.550964355469,0.061279296875,0.547973632812,0.626403808594
59603745549,-0.551208496094,0.0614624023438,0.5478515625,0.626281738281
59603768015,-0.55126953125,0.06201171875,0.547790527344,0.626220703125
59603789168,-0.551391601562,0.0623779296875,0.547607421875,0.626220703125
59603805592,-0.551635742188,0.0625,0.547424316406,0.626220703125
59603828081,-0.5517578125,0.0628662109375,0.547180175781,0.626281738281
59603850590,-0.552001953125,0.0631103515625,0.546936035156,0.626159667969
59603865568,-0.55224609375,0.0631103515625,0.546569824219,0.626342773438
59603888105,-0.552307128906,0.0631713867188,0.546325683594,0.62646484375
59603910616,-0.552307128906,0.063232421875,0.546325683594,0.62646484375
59603925589,-0.552307128906,0.063232421875,0.546325683594,0.62646484375
59603948033,-0.552185058594,0.0633544921875,0.546325683594,0.626586914062
59603970657,-0.552062988281,0.0634155273438,0.546325683594,0.626647949219
59603991719,-0.552001953125,0.063232421875,0.546264648438,0.626770019531
59604008028,-0.552001953125,0.0628051757812,0.546142578125,0.626892089844
59604030577,-0.552062988281,0.0623168945312,0.546020507812,0.627014160156
59604044939,-0.552124023438,0.0619506835938,0.5458984375,0.627075195312
59604068058,-0.552124023438,0.0615844726562,0.545715332031,0.627258300781
59604090541,-0.551940917969,0.0614013671875,0.545593261719,0.627563476562
59604104888,-0.552062988281,0.0609741210938,0.545471191406,0.627624511719
59604128048,-0.55224609375,0.0606079101562,0.545349121094,0.627624511719
59604150557,-0.55224609375,0.0601806640625,0.545288085938,0.627685546875
59604164885,-0.552368164062,0.0599365234375,0.545104980469,0.627746582031
59604188096,-0.552368164062,0.0599365234375,0.545104980469,0.627746582031
59604218499,-0.552490234375,0.059814453125,0.545104980469,0.627746582031
59604231625,-0.552612304688,0.0596313476562,0.544982910156,0.627685546875
59604248448,-0.552551269531,0.0596313476562,0.544982910156,0.627746582031
59604271177,-0.552551269531,0.0596923828125,0.544982910156,0.627685546875
59604293509,-0.552551269531,0.0596923828125,0.545043945312,0.627685546875
59604308044,-0.552612304688,0.0596923828125,0.545043945312,0.627685546875
59604330564,-0.552612304688,0.0596923828125,0.545043945312,0.627685546875
59604359149,-0.552612304688,0.0596923828125,0.545043945312,0.627685546875
59604368028,-0.552612304688,0.0596923828125,0.544982910156,0.627685546875
59604390536,-0.552551269531,0.0595092773438,0.544982910156,0.627807617188
59604411767,-0.552551269531,0.0595092773438,0.544982910156,0.627807617188
59604428094,-0.552551269531,0.0595092773438,0.544982910156,0.627746582031
59604450622,-0.552551269531,0.0595092773438,0.544982910156,0.627807617188
59604471597,-0.552551269531,0.0595092773438,0.544982910156,0.627807617188
59604487998,-0.552429199219,0.0596313476562,0.545104980469,0.627746582031
59604510585,-0.552429199219,0.0596313476562,0.545104980469,0.627746582031
59604539164,-0.552429199219,0.0596313476562,0.545104980469,0.627746582031
59604548042,-0.552429199219,0.0596313476562,0.545104980469,0.627746582031
59604570566,-0.552429199219,0.0596313476562,0.545104980469,0.627746582031
59604591807,-0.552490234375,0.0595703125,0.544982910156,0.627807617188
59604608052,-0.552490234375,0.0595703125,0.544982910156,0.627807617188
59604630546,-0.552490234375,0.0595703125,0.544982910156,0.627807617188
59604651459,-0.552490234375,0.0595703125,0.544982910156,0.627807617188
59604668068,-0.552612304688,0.0592651367188,0.544860839844,0.627868652344
59604690558,-0.552673339844,0.05908203125,0.544738769531,0.6279296875
59604711605,-0.552673339844,0.05908203125,0.544738769531,0.6279296875
59604728043,-0.552673339844,0.05908203125,0.544738769531,0.6279296875
59604751113,-0.552673339844,0.05908203125,0.544738769531,0.6279296875
59604771569,-0.552673339844,0.0586547851562,0.544677734375,0.627990722656
59604788143,-0.552551269531,0.0582275390625,0.544616699219,0.628234863281
59604818055,-0.552368164062,0.0577392578125,0.544616699219,0.628356933594
59604833066,-0.552185058594,0.0571899414062,0.544738769531,0.628540039062
59604848069,-0.551879882812,0.056396484375,0.544982910156,0.628601074219
59604870596,-0.551330566406,0.0556030273438,0.545593261719,0.628723144531
59604893069,-0.55029296875,0.0548095703125,0.546447753906,0.62890625
59604908045,-0.549255371094,0.0536499023438,0.547546386719,0.628967285156
59604938070,-0.54833984375,0.0520629882812,0.548522949219,0.629089355469
59604953044,-0.547241210938,0.0501708984375,0.54931640625,0.629455566406
59604975589,-0.546569824219,0.0474853515625,0.550048828125,0.629638671875
59604990534,-0.545532226562,0.0444946289062,0.551025390625,0.6298828125
59605013031,-0.544494628906,0.04052734375,0.552124023438,0.630126953125
59605027369,-0.542724609375,0.0359497070312,0.552917480469,0.631164550781
59605050588,-0.540771484375,0.030517578125,0.554260253906,0.631958007812
59605073036,-0.5390625,0.0236206054688,0.555908203125,0.632263183594
59605094298,-0.53662109375,0.015869140625,0.557678222656,0.633056640625
59605110537,-0.533203125,0.0069580078125,0.559631347656,0.634399414062
59605133031,-0.528930664062,-0.00286865234375,0.561340332031,0.636413574219
59605154246,-0.524108886719,-0.0136108398438,0.562927246094,0.638916015625
59605170544,-0.519287109375,-0.0259399414062,0.564514160156,0.640991210938
59605193046,-0.514465332031,-0.0399780273438,0.566101074219,0.642822265625
59605214241,-0.509155273438,-0.055419921875,0.567321777344,0.644836425781
59605230537,-0.503479003906,-0.072265625,0.567993164062,0.647033691406
59605253003,-0.49755859375,-0.0899047851562,0.567932128906,0.6494140625
59605274194,-0.490112304688,-0.107543945312,0.56787109375,0.652465820312
59605290558,-0.481323242188,-0.125549316406,0.567504882812,0.656066894531
59605313040,-0.472839355469,-0.144775390625,0.566467285156,0.6591796875
59605334307,-0.464477539062,-0.164184570312,0.564575195312,0.662231445312
59605350565,-0.455139160156,-0.182434082031,0.562438964844,0.665771484375
59605373038,-0.445617675781,-0.200500488281,0.559753417969,0.669250488281
59605394218,-0.435546875,-0.217895507812,0.555908203125,0.673583984375
59605410611,-0.424377441406,-0.23388671875,0.551818847656,0.6787109375
59605433038,-0.413146972656,-0.250305175781,0.546752929688,0.683837890625
59605454161,-0.401184082031,-0.26708984375,0.54052734375,0.689575195312
59605470540,-0.388549804688,-0.280822753906,0.535217285156,0.695495605469
59605493076,-0.375366210938,-0.292663574219,0.529968261719,0.701843261719
59605514240,-0.362609863281,-0.3046875,0.524108886719,0.707763671875
59605529909,-0.350402832031,-0.316955566406,0.517944335938,0.713012695312
59605553037,-0.339111328125,-0.32861328125,0.511657714844,0.7177734375
59605574207,-0.327941894531,-0.338684082031,0.505676269531,0.722473144531
59605590503,-0.317504882812,-0.347778320312,0.499816894531,0.726928710938
59605613060,-0.308715820312,-0.357299804688,0.493530273438,0.730346679688
59605634259,-0.299987792969,-0.365356445312,0.488403320312,0.733459472656
59605650527,-0.29150390625,-0.371704101562,0.484985351562,0.735961914062
59605673134,-0.284118652344,-0.378234863281,0.481689453125,0.737670898438
59605694259,-0.278503417969,-0.385009765625,0.477844238281,0.738830566406
59605709867,-0.274475097656,-0.391357421875,0.474426269531,0.739196777344
59605733040,-0.271118164062,-0.396362304688,0.472778320312,0.738830566406
59605755566,-0.267272949219,-0.400024414062,0.47265625,0.738342285156
59605769836,-0.2626953125,-0.402770996094,0.473327636719,0.738037109375
59605793042,-0.257141113281,-0.405151367188,0.473510742188,0.738586425781
59605815501,-0.250427246094,-0.406066894531,0.472778320312,0.740844726562
59605829898,-0.247802734375,-0.405456542969,0.4716796875,0.742736816406
59605853040,-0.248291015625,-0.403015136719,0.472473144531,0.743408203125
59605875614,-0.249267578125,-0.401123046875,0.473754882812,0.743286132812
59605889869,-0.249450683594,-0.401245117188,0.473510742188,0.743347167969
59605913014,-0.247863769531,-0.402404785156,0.472290039062,0.743957519531
59605935518,-0.24560546875,-0.404113769531,0.470336914062,0.745056152344
59605949879,-0.243347167969,-0.405700683594,0.468383789062,0.746154785156
59605973018,-0.241638183594,-0.406677246094,0.467102050781,0.747009277344
59605995597,-0.240173339844,-0.407165527344,0.466003417969,0.747924804688
59606009915,-0.239318847656,-0.40771484375,0.464660644531,0.748718261719
59606033069,-0.239379882812,-0.408508300781,0.463073730469,0.749206542969
59606055532,-0.239440917969,-0.408996582031,0.461669921875,0.749816894531
59606069861,-0.239074707031,-0.408935546875,0.46044921875,0.750671386719
59606084909,-0.238708496094,-0.408508300781,0.459533691406,0.751586914062
59606098496,-0.238464355469,-0.407958984375,0.458862304688,0.752380371094
59606120918,-0.238586425781,-0.407470703125,0.45849609375,0.752868652344
59606137366,-0.238952636719,-0.4072265625,0.4580078125,0.753173828125
59606158503,-0.2392578125,-0.406921386719,0.457397460938,0.753601074219
59606181042,-0.239318847656,-0.406494140625,0.456970214844,0.754028320312
59606203558,-0.239501953125,-0.406311035156,0.456726074219,0.754272460938
59606218514,-0.239501953125,-0.406311035156,0.456726074219,0.754272460938
59606241018,-0.239440917969,-0.406311035156,0.456726074219,0.754272460938
59606257388,-0.2392578125,-0.405822753906,0.456970214844,0.754455566406
59606278434,-0.239379882812,-0.405639648438,0.457153320312,0.75439453125
59606301065,-0.239501953125,-0.405822753906,0.457092285156,0.754333496094
59606317343,-0.2392578125,-0.405883789062,0.457092285156,0.754333496094
59606338617,-0.238952636719,-0.405944824219,0.457214355469,0.754333496094
59606360989,-0.23876953125,-0.405883789062,0.457397460938,0.754333496094
59606377336,-0.23876953125,-0.405639648438,0.457641601562,0.754333496094
59606398827,-0.239074707031,-0.405639648438,0.457641601562,0.754211425781
59606421000,-0.239379882812,-0.405822753906,0.457458496094,0.754150390625
59606437386,-0.239501953125,-0.405822753906,0.457336425781,0.754211425781
59606458443,-0.239562988281,-0.405639648438,0.457275390625,0.754272460938
59606482386,-0.239440917969,-0.4052734375,0.457397460938,0.754455566406
59606497384,-0.239379882812,-0.405029296875,0.45751953125,0.754516601562
59606518524,-0.239318847656,-0.405029296875,0.45751953125,0.754577636719
59606541019,-0.239318847656,-0.405029296875,0.457458496094,0.754577636719
59606558828,-0.239379882812,-0.404907226562,0.45751953125,0.754577636719
59606578389,-0.239501953125,-0.40478515625,0.457641601562,0.754516601562
59606601061,-0.23974609375,-0.404663085938,0.457824707031,0.75439453125
59606617366,-0.240112304688,-0.404663085938,0.457885742188,0.754211425781
59606638424,-0.240295410156,-0.404602050781,0.457946777344,0.754150390625
59606660941,-0.240539550781,-0.404418945312,0.458068847656,0.754150390625
59606677377,-0.240844726562,-0.404052734375,0.458251953125,0.754150390625
59606698530,-0.241333007812,-0.40380859375,0.458374023438,0.754028320312
59606721089,-0.242065429688,-0.403625488281,0.45849609375,0.753784179688
59606738844,-0.242736816406,-0.403564453125,0.45849609375,0.753662109375
59606761300,-0.243408203125,-0.403564453125,0.458374023438,0.753479003906
59606780885,-0.243896484375,-0.403625488281,0.458251953125,0.753356933594
59606798894,-0.244262695312,-0.403503417969,0.458435058594,0.753234863281
59606818552,-0.244445800781,-0.4033203125,0.458557128906,0.753173828125
59606840949,-0.244262695312,-0.402893066406,0.458679199219,0.753356933594
59606858863,-0.243713378906,-0.402526855469,0.458923339844,0.753662109375
59606878490,-0.243225097656,-0.402465820312,0.458984375,0.753784179688
59606901039,-0.242858886719,-0.402526855469,0.459167480469,0.753784179688
59606918875,-0.242614746094,-0.402587890625,0.459350585938,0.753662109375
