61299035381,-0.570861816406,0.787109375,-0.0183715820312,-0.232971191406
61299058828,-0.570861816406,0.787109375,-0.0183715820312,-0.232971191406
61299080183,-0.571228027344,0.786926269531,-0.0186767578125,-0.232543945312
61299095508,-0.572937011719,0.788024902344,-0.015869140625,-0.224731445312
61299119041,-0.573364257812,0.788269042969,-0.0156860351562,-0.222717285156
61299140330,-0.574645996094,0.789184570312,-0.013916015625,-0.216247558594
61299155261,-0.576049804688,0.790283203125,-0.0114135742188,-0.208618164062
61299178948,-0.576293945312,0.790344238281,-0.0106811523438,-0.207641601562
61299232997,-0.575012207031,0.789306640625,-0.0127563476562,-0.21484375
61299233652,-0.573547363281,0.788024902344,-0.0156860351562,-0.223205566406
61299241963,-0.573303222656,0.787902832031,-0.0166625976562,-0.224304199219
61299260958,-0.573608398438,0.788146972656,-0.0161743164062,-0.222473144531
61299276583,-0.572570800781,0.788146972656,-0.017333984375,-0.225219726562
61299307398,-0.572143554688,0.788208007812,-0.0179443359375,-0.225952148438
61299342552,-0.572082519531,0.788146972656,-0.0181884765625,-0.226318359375
61299352742,-0.572082519531,0.788146972656,-0.0181884765625,-0.226318359375
61299358927,-0.572021484375,0.7880859375,-0.0180053710938,-0.226684570312
61299380775,-0.571899414062,0.787902832031,-0.0179443359375,-0.227661132812
61299396438,-0.571228027344,0.787109375,-0.0189208984375,-0.23193359375
61299427141,-0.572814941406,0.788330078125,-0.015380859375,-0.224060058594
61299449618,-0.574279785156,0.789428710938,-0.0123901367188,-0.216613769531
61299464585,-0.574340820312,0.789428710938,-0.01220703125,-0.21630859375
61299487116,-0.574035644531,0.789184570312,-0.0126953125,-0.218017578125
61299501460,-0.572509765625,0.788024902344,-0.015380859375,-0.225952148438
61299524608,-0.572387695312,0.7880859375,-0.0155029296875,-0.226013183594
61299547140,-0.573913574219,0.789184570312,-0.0127563476562,-0.218322753906
61299561479,-0.574951171875,0.789978027344,-0.0101928710938,-0.212890625
61299584560,-0.574890136719,0.789855957031,-0.0101318359375,-0.213256835938
61299607054,-0.575073242188,0.78955078125,-0.0107421875,-0.213989257812
61299621488,-0.575134277344,0.78955078125,-0.0105590820312,-0.213806152344
61299644640,-0.575134277344,0.789367675781,-0.0101928710938,-0.214477539062
61299667110,-0.575134277344,0.789123535156,-0.009521484375,-0.215393066406
61299681446,-0.575012207031,0.789001464844,-0.0089111328125,-0.216247558594
61299704671,-0.574890136719,0.788940429688,-0.0086669921875,-0.216857910156
61299727123,-0.574890136719,0.788940429688,-0.00872802734375,-0.216857910156
61299748130,-0.574890136719,0.788879394531,-0.00872802734375,-0.216918945312
61299764588,-0.574890136719,0.788757324219,-0.00830078125,-0.217468261719
61299787069,-0.574768066406,0.788635253906,-0.00738525390625,-0.218200683594
61299808306,-0.57470703125,0.788452148438,-0.00604248046875,-0.219177246094
61299832064,-0.574462890625,0.788330078125,-0.00457763671875,-0.220153808594
61299847105,-0.573974609375,0.788452148438,-0.0029296875,-0.221069335938
61299868304,-0.573486328125,0.788513183594,-0.000732421875,-0.22216796875
61299884617,-0.573364257812,0.788513183594,0.00128173828125,-0.222412109375
61299907086,-0.573669433594,0.788513183594,0.00390625,-0.221740722656
61299928405,-0.57373046875,0.788696289062,0.00738525390625,-0.220825195312
61299943967,-0.57373046875,0.789184570312,0.0112915039062,-0.218933105469
61299967120,-0.574035644531,0.790100097656,0.0162963867188,-0.214294433594
61299988298,-0.574340820312,0.791625976562,0.0226440429688,-0.207214355469
61300003904,-0.574096679688,0.793884277344,0.0294189453125,-0.198059082031
61300027092,-0.574035644531,0.796081542969,0.0386962890625,-0.187683105469
61300048292,-0.574401855469,0.798156738281,0.0496215820312,-0.174621582031
61300063972,-0.575134277344,0.799682617188,0.0635375976562,-0.160217285156
61300087084,-0.576416015625,0.800659179688,0.0792236328125,-0.142944335938
61300108108,-0.578369140625,0.800964355469,0.0948486328125,-0.122192382812
61300132090,-0.58056640625,0.800415039062,0.111389160156,-0.099365234375
61300146887,-0.582458496094,0.799133300781,0.128784179688,-0.07470703125
61300169669,-0.584045410156,0.797241210938,0.145080566406,-0.0476684570312
61300183958,-0.585510253906,0.794372558594,0.160461425781,-0.0185546875
61300207118,-0.586303710938,0.790893554688,0.174743652344,0.0127563476562
61300229681,-0.586364746094,0.786499023438,0.188842773438,0.0441284179688
61300243969,-0.585693359375,0.781066894531,0.202880859375,0.07568359375
61300257562,-0.58447265625,0.774291992188,0.217346191406,0.107604980469
61300280089,-0.582824707031,0.766357421875,0.231811523438,0.138610839844
61300295113,-0.580505371094,0.757995605469,0.24560546875,0.167602539062
61300317591,-0.577453613281,0.749633789062,0.258178710938,0.194641113281
61300340067,-0.57373046875,0.741394042969,0.268981933594,0.220947265625
61300355089,-0.569946289062,0.732666015625,0.278625488281,0.246459960938
61300377686,-0.566162109375,0.723693847656,0.288024902344,0.269653320312
61300400115,-0.56298828125,0.714904785156,0.296997070312,0.289306640625
61300415110,-0.560485839844,0.706237792969,0.305419921875,0.30615234375
61300437402,-0.558044433594,0.697937011719,0.3125,0.322082519531
61300459983,-0.555480957031,0.69140625,0.318115234375,0.334899902344
61300474913,-0.553161621094,0.685485839844,0.322998046875,0.346069335938
61300497614,-0.551025390625,0.680114746094,0.327087402344,0.356079101562
61300520205,-0.549255371094,0.675415039062,0.330993652344,0.364013671875
61300535118,-0.547607421875,0.671142578125,0.334533691406,0.37109375
61300557598,-0.545959472656,0.66796875,0.337219238281,0.376831054688
61300580157,-0.544372558594,0.665405273438,0.339721679688,0.381286621094
61300594993,-0.543579101562,0.662902832031,0.342224121094,0.384582519531
61300617445,-0.543273925781,0.660949707031,0.344055175781,0.386779785156
61300640088,-0.543273925781,0.659423828125,0.345581054688,0.387939453125
61300655127,-0.543090820312,0.658874511719,0.346252441406,0.388610839844
61300677467,-0.542663574219,0.659606933594,0.346069335938,0.388061523438
61300700160,-0.542297363281,0.661254882812,0.346130371094,0.3857421875
61300714991,-0.541870117188,0.6630859375,0.346008300781,0.38330078125
61300737686,-0.54150390625,0.664794921875,0.345581054688,0.38134765625
61300755404,-0.541015625,0.666137695312,0.345458984375,0.379760742188
61300775060,-0.540649414062,0.667602539062,0.345153808594,0.377868652344
61300797669,-0.540710449219,0.668640136719,0.344970703125,0.376159667969
61300815417,-0.541076660156,0.66943359375,0.344604492188,0.374572753906
61300835158,-0.541564941406,0.669860839844,0.34423828125,0.373352050781
61300857636,-0.541809082031,0.670166015625,0.344177246094,0.37255859375
61300875371,-0.5419921875,0.670654296875,0.343811035156,0.371704101562
61300895035,-0.541748046875,0.671081542969,0.343872070312,0.371337890625
61300917685,-0.54150390625,0.671691894531,0.343688964844,0.370666503906
61300935375,-0.541381835938,0.672058105469,0.343505859375,0.370422363281
61300955154,-0.541259765625,0.67236328125,0.343383789062,0.370178222656
61300977629,-0.541198730469,0.672668457031,0.343200683594,0.369812011719
61300995393,-0.541259765625,0.672668457031,0.343139648438,0.369812011719
61301015091,-0.541259765625,0.673156738281,0.342590332031,0.369323730469
61301037522,-0.541687011719,0.673583984375,0.342163085938,0.368347167969
61301055380,-0.541931152344,0.674011230469,0.341796875,0.367614746094
61301075118,-0.5419921875,0.674377441406,0.341491699219,0.367126464844
61301097689,-0.541870117188,0.674926757812,0.341186523438,0.366638183594
61301122848,-0.541687011719,0.67529296875,0.341186523438,0.366149902344
61301134952,-0.541687011719,0.675354003906,0.341186523438,0.366149902344
61301157538,-0.541687011719,0.675354003906,0.341186523438,0.366149902344
61301175386,-0.54150390625,0.675415039062,0.341247558594,0.366088867188
61301194977,-0.541259765625,0.675720214844,0.341369628906,0.365905761719
61301217476,-0.540893554688,0.675903320312,0.341369628906,0.366027832031
61301242871,-0.540588378906,0.676086425781,0.341369628906,0.3662109375
61301256444,-0.540283203125,0.67626953125,0.341430664062,0.366149902344
61301277562,-0.540100097656,0.676513671875,0.341430664062,0.366088867188
61301295390,-0.539978027344,0.676818847656,0.34130859375,0.365783691406
61301316414,-0.539855957031,0.677062988281,0.34130859375,0.365478515625
61301337609,-0.539794921875,0.677307128906,0.341125488281,0.365295410156
61301355404,-0.539794921875,0.677307128906,0.341125488281,0.365295410156
61301377885,-0.539855957031,0.677612304688,0.340881347656,0.364868164062
61301400421,-0.539916992188,0.677856445312,0.3408203125,0.364440917969
61301415401,-0.540222167969,0.677856445312,0.3408203125,0.363952636719
61301436406,-0.540466308594,0.677856445312,0.340698242188,0.363647460938
61301457603,-0.540771484375,0.677856445312,0.340637207031,0.363220214844
61301475384,-0.540771484375,0.677856445312,0.340637207031,0.363220214844
61301496472,-0.540893554688,0.677978515625,0.340454101562,0.363037109375
61301518961,-0.540771484375,0.678039550781,0.340515136719,0.363037109375
61301535451,-0.540771484375,0.678039550781,0.340515136719,0.363037109375
61301556439,-0.540771484375,0.67822265625,0.340393066406,0.362854003906
61301577596,-0.540893554688,0.678283691406,0.340576171875,0.362426757812
61301595368,-0.540832519531,0.678405761719,0.340637207031,0.362121582031
61301617880,-0.540893554688,0.678588867188,0.340759277344,0.361633300781
61301637445,-0.541076660156,0.678588867188,0.340881347656,0.361267089844
61301655354,-0.541564941406,0.678283691406,0.340881347656,0.361145019531
61301678312,-0.541870117188,0.678039550781,0.340881347656,0.361083984375
61301697670,-0.542114257812,0.677917480469,0.340759277344,0.361022949219
61301715408,-0.542419433594,0.677795410156,0.340698242188,0.360961914062
61301737884,-0.542663574219,0.677673339844,0.340637207031,0.36083984375
61301757516,-0.542724609375,0.677673339844,0.340576171875,0.36083984375
61301775345,-0.542724609375,0.677673339844,0.340576171875,0.36083984375
61301797883,-0.542541503906,0.677978515625,0.340454101562,0.360656738281
61301817563,-0.542419433594,0.677978515625,0.340576171875,0.360595703125
61301834565,-0.542419433594,0.677978515625,0.340576171875,0.360595703125
61301857086,-0.542419433594,0.677978515625,0.340576171875,0.360595703125
61301878360,-0.542724609375,0.678039550781,0.34033203125,0.360290527344
61301894590,-0.542907714844,0.678161621094,0.340148925781,0.359924316406
61301917034,-0.543090820312,0.678283691406,0.340148925781,0.359558105469
61301931461,-0.543090820312,0.678283691406,0.340148925781,0.359497070312
61301955071,-0.543395996094,0.678100585938,0.340148925781,0.359375
61301977098,-0.543395996094,0.678100585938,0.340209960938,0.359375
61301991387,-0.543395996094,0.678100585938,0.340209960938,0.359375
61302014618,-0.543273925781,0.678161621094,0.340393066406,0.359130859375
61302037056,-0.543273925781,0.67822265625,0.340515136719,0.358947753906
61302051475,-0.543273925781,0.67822265625,0.340515136719,0.358947753906
61302074572,-0.543273925781,0.67822265625,0.340515136719,0.358947753906
61302097096,-0.543395996094,0.67822265625,0.340454101562,0.358825683594
61302118108,-0.543518066406,0.678039550781,0.340637207031,0.358764648438
61302134622,-0.5439453125,0.677734375,0.340698242188,0.358703613281
61302157147,-0.544189453125,0.677673339844,0.340698242188,0.358520507812
61302178338,-0.544372558594,0.677612304688,0.340759277344,0.358215332031
61302194588,-0.544372558594,0.677612304688,0.340759277344,0.358215332031
61302217037,-0.544555664062,0.677612304688,0.340698242188,0.358093261719
61302238242,-0.544555664062,0.677612304688,0.340698242188,0.358093261719
61302254613,-0.544616699219,0.677490234375,0.340576171875,0.358215332031
61302277071,-0.544555664062,0.677490234375,0.340515136719,0.358459472656
61302298216,-0.544494628906,0.677490234375,0.340576171875,0.358459472656
61302314591,-0.544494628906,0.677490234375,0.340576171875,0.358459472656
61302337087,-0.544555664062,0.677612304688,0.340576171875,0.358154296875
61302358227,-0.544738769531,0.677551269531,0.340759277344,0.357788085938
61302374589,-0.544738769531,0.677551269531,0.340759277344,0.357788085938
61302397086,-0.545104980469,0.677307128906,0.340515136719,0.35791015625
61302418239,-0.545288085938,0.677185058594,0.340393066406,0.357971191406
61302434601,-0.545532226562,0.677185058594,0.340393066406,0.357666015625
61302457039,-0.545837402344,0.677124023438,0.34033203125,0.357360839844
61302478268,-0.5458984375,0.677124023438,0.34033203125,0.357238769531
61302494647,-0.546020507812,0.67724609375,0.340270996094,0.356872558594
61302517038,-0.546264648438,0.677429199219,0.340148925781,0.356323242188
61302538189,-0.546630859375,0.677551269531,0.340026855469,0.355590820312
61302554581,-0.547119140625,0.677795410156,0.33984375,0.354614257812
61302577085,-0.547912597656,0.678100585938,0.339477539062,0.353088378906
61302599590,-0.549194335938,0.678649902344,0.338745117188,0.350769042969
61302613920,-0.551025390625,0.679626464844,0.33740234375,0.347290039062
61302637063,-0.553405761719,0.680908203125,0.33544921875,0.3427734375
61302659511,-0.556518554688,0.682556152344,0.332946777344,0.3369140625
61302680845,-0.560546875,0.6845703125,0.329772949219,0.329223632812
61302697072,-0.565734863281,0.68701171875,0.32568359375,0.319091796875
61302719558,-0.572204589844,0.68994140625,0.320251464844,0.306579589844
61302740668,-0.579772949219,0.693115234375,0.313537597656,0.291687011719
61302757037,-0.587829589844,0.69677734375,0.3056640625,0.274780273438
61302779629,-0.595520019531,0.700805664062,0.297180175781,0.256652832031
61302800712,-0.602661132812,0.705688476562,0.286865234375,0.237670898438
61302817056,-0.60986328125,0.710876464844,0.275146484375,0.216796875
61302839590,-0.616760253906,0.715942382812,0.262878417969,0.194519042969
61302860714,-0.622680664062,0.721130371094,0.250549316406,0.171569824219
61302883286,-0.627075195312,0.726623535156,0.237915039062,0.148742675781
61302899564,-0.630737304688,0.731994628906,0.224487304688,0.126159667969
61302920688,-0.633728027344,0.737121582031,0.210327148438,0.103576660156
61302937060,-0.636291503906,0.741821289062,0.196044921875,0.079833984375
61302959551,-0.638305664062,0.746032714844,0.181335449219,0.0556640625
61302980658,-0.639770507812,0.749633789062,0.166442871094,0.032470703125
61302997110,-0.640563964844,0.752380371094,0.153137207031,0.0108032226562
61303019583,-0.641052246094,0.7548828125,0.138244628906,-0.00750732421875
61303040719,-0.641235351562,0.757141113281,0.121948242188,-0.0249633789062
61303057065,-0.641418457031,0.758544921875,0.106079101562,-0.0433959960938
61303079592,-0.641357421875,0.759094238281,0.09228515625,-0.0624389648438
61303100769,-0.640869140625,0.759399414062,0.0791015625,-0.0797729492188
61303117121,-0.640197753906,0.759521484375,0.0654296875,-0.0949096679688
61303139561,-0.639038085938,0.759338378906,0.0530395507812,-0.110412597656
61303160693,-0.637756347656,0.7587890625,0.0405883789062,-0.126098632812
61303177089,-0.636108398438,0.758117675781,0.0278930664062,-0.140625
61303199562,-0.634094238281,0.757751464844,0.0150756835938,-0.153137207031
61303220721,-0.632080078125,0.757629394531,0.00250244140625,-0.162902832031
61303237038,-0.630065917969,0.756958007812,-0.00885009765625,-0.173095703125
61303259554,-0.628479003906,0.755737304688,-0.0195922851562,-0.183166503906
61303280788,-0.626770019531,0.754516601562,-0.0289916992188,-0.192443847656
61303296377,-0.624633789062,0.753723144531,-0.0369262695312,-0.200927734375
61303319537,-0.622009277344,0.753234863281,-0.0443725585938,-0.209350585938
61303340701,-0.619445800781,0.752502441406,-0.0511474609375,-0.217834472656
61303356415,-0.618041992188,0.751281738281,-0.0575561523438,-0.224182128906
61303379527,-0.618103027344,0.7509765625,-0.0609741210938,-0.224304199219
61303400873,-0.618896484375,0.7529296875,-0.0612182617188,-0.215209960938
61303416385,-0.618041992188,0.755859375,-0.0560913085938,-0.208679199219
61303440013,-0.614868164062,0.758117675781,-0.0491333007812,-0.211730957031
61303460693,-0.611450195312,0.759216308594,-0.0423583984375,-0.219055175781
61303476408,-0.6083984375,0.759826660156,-0.038330078125,-0.225952148438
61303499559,-0.605834960938,0.760803222656,-0.0383911132812,-0.229370117188
61303522043,-0.604736328125,0.761779785156,-0.041748046875,-0.228515625
61303536362,-0.605407714844,0.76220703125,-0.047119140625,-0.224304199219
61303559517,-0.606628417969,0.762145996094,-0.0521240234375,-0.219970703125
61303582069,-0.607543945312,0.761901855469,-0.0547485351562,-0.2177734375
61303596424,-0.607727050781,0.761657714844,-0.0549926757812,-0.217956542969
61303619534,-0.607360839844,0.761596679688,-0.0538330078125,-0.219604492188
61303642029,-0.606689453125,0.76171875,-0.0521240234375,-0.221374511719
61303663073,-0.606018066406,0.762084960938,-0.0503540039062,-0.222412109375
61303679568,-0.605651855469,0.762451171875,-0.0490112304688,-0.222351074219
61303702005,-0.605590820312,0.7626953125,-0.0484008789062,-0.221984863281
61303716413,-0.60546875,0.762878417969,-0.04833984375,-0.221618652344
61303740037,-0.605163574219,0.763122558594,-0.0485229492188,-0.221374511719
61303762040,-0.60498046875,0.763488769531,-0.0486450195312,-0.220825195312
61303776358,-0.604736328125,0.763793945312,-0.0482788085938,-0.220275878906
61303799510,-0.604431152344,0.76416015625,-0.04736328125,-0.220092773438
