61501201611,-0.756469726562,0.608947753906,-0.109558105469,-0.212097167969
61501216649,-0.756469726562,0.608947753906,-0.109558105469,-0.212097167969
61501240541,-0.756469726562,0.608947753906,-0.109497070312,-0.212036132812
61501261655,-0.756591796875,0.60888671875,-0.10986328125,-0.211669921875
61501276721,-0.757080078125,0.609130859375,-0.108520507812,-0.209899902344
61501300441,-0.757507324219,0.609436035156,-0.107299804688,-0.208190917969
61501321761,-0.757873535156,0.609619140625,-0.106140136719,-0.206665039062
61501336786,-0.757934570312,0.609619140625,-0.106018066406,-0.206726074219
61501359344,-0.757507324219,0.609313964844,-0.107116699219,-0.208435058594
61501407487,-0.757141113281,0.609130859375,-0.108093261719,-0.209777832031
61501409586,-0.757690429688,0.609619140625,-0.106994628906,-0.207092285156
61501414546,-0.758117675781,0.60986328125,-0.105712890625,-0.205261230469
61501429510,-0.758850097656,0.610412597656,-0.102844238281,-0.202392578125
61501453032,-0.757995605469,0.610900878906,-0.103637695312,-0.203735351562
61501481115,-0.757751464844,0.611267089844,-0.103210449219,-0.203735351562
61501524061,-0.757751464844,0.611267089844,-0.103210449219,-0.203796386719
61501534299,-0.757751464844,0.611267089844,-0.103271484375,-0.203857421875
61501534970,-0.757751464844,0.611267089844,-0.103210449219,-0.203857421875
61501547911,-0.757507324219,0.611083984375,-0.104125976562,-0.204711914062
61501570420,-0.755798339844,0.610595703125,-0.1083984375,-0.210327148438
61501591544,-0.755615234375,0.610473632812,-0.108703613281,-0.210998535156
61501609344,-0.754028320312,0.609558105469,-0.112426757812,-0.217346191406
61501629068,-0.753601074219,0.609313964844,-0.113647460938,-0.218994140625
61501651537,-0.753723144531,0.609313964844,-0.114074707031,-0.218322753906
61501669396,-0.755676269531,0.6103515625,-0.109680175781,-0.2109375
61501689033,-0.756958007812,0.61083984375,-0.106079101562,-0.20654296875
61501711474,-0.756042480469,0.610107421875,-0.108215332031,-0.210998535156
61501729420,-0.754150390625,0.608642578125,-0.11328125,-0.218933105469
61501748895,-0.7529296875,0.607788085938,-0.116821289062,-0.223754882812
61501771532,-0.752624511719,0.607604980469,-0.118225097656,-0.224548339844
61501789400,-0.7529296875,0.607238769531,-0.118957519531,-0.224182128906
61501808962,-0.753295898438,0.606811523438,-0.119445800781,-0.223693847656
61501831535,-0.753662109375,0.606506347656,-0.119750976562,-0.223266601562
61501849377,-0.753967285156,0.606140136719,-0.120361328125,-0.222778320312
61501869108,-0.754272460938,0.605834960938,-0.121276855469,-0.222229003906
61501886836,-0.754516601562,0.605590820312,-0.122131347656,-0.221557617188
61501909387,-0.754699707031,0.605529785156,-0.12255859375,-0.220886230469
61501930460,-0.754638671875,0.605834960938,-0.122253417969,-0.220336914062
61501946869,-0.754516601562,0.606262207031,-0.121154785156,-0.220275878906
61501969395,-0.754516601562,0.606872558594,-0.119812011719,-0.219421386719
61501990437,-0.7548828125,0.607543945312,-0.118591308594,-0.216735839844
61502014367,-0.755554199219,0.608764648438,-0.117553710938,-0.211669921875
61502029343,-0.756652832031,0.610229492188,-0.117126464844,-0.20361328125
61502050426,-0.7578125,0.611999511719,-0.117065429688,-0.193786621094
61502071621,-0.758666992188,0.614318847656,-0.115905761719,-0.183227539062
61502095487,-0.759765625,0.616882324219,-0.112243652344,-0.172302246094
61502110414,-0.760803222656,0.619689941406,-0.106567382812,-0.160705566406
61502131499,-0.762145996094,0.622497558594,-0.098876953125,-0.147888183594
61502149837,-0.763427734375,0.625671386719,-0.0895385742188,-0.132995605469
61502170359,-0.765014648438,0.628540039062,-0.0795288085938,-0.115600585938
61502191448,-0.766357421875,0.631530761719,-0.0699462890625,-0.0947265625
61502209379,-0.767639160156,0.633972167969,-0.0603637695312,-0.071533203125
61502230429,-0.768188476562,0.636596679688,-0.050537109375,-0.0462036132812
61502251443,-0.767944335938,0.638854980469,-0.0409545898438,-0.0206298828125
61502268598,-0.767395019531,0.640319824219,-0.0322265625,0.005859375
61502289725,-0.766052246094,0.641418457031,-0.0244140625,0.0343017578125
61502312146,-0.763061523438,0.64306640625,-0.0166015625,0.0631103515625
61502328539,-0.758361816406,0.645141601562,-0.0100708007812,0.0928344726562
61502351065,-0.752990722656,0.646423339844,-0.00469970703125,0.122802734375
61502372293,-0.747863769531,0.646057128906,-6.103515625e-05,0.152770996094
61502388543,-0.742248535156,0.644714355469,0.00396728515625,0.182678222656
61502411090,-0.735168457031,0.643737792969,0.00848388671875,0.212341308594
61502432145,-0.726684570312,0.643310546875,0.01318359375,0.240661621094
61502448541,-0.717468261719,0.642944335938,0.0167846679688,0.267456054688
61502470993,-0.708923339844,0.641296386719,0.0193481445312,0.292907714844
61502492255,-0.700927734375,0.638732910156,0.0211181640625,0.316650390625
61502514710,-0.6923828125,0.636291503906,0.02294921875,0.339294433594
61502531089,-0.683654785156,0.635192871094,0.025634765625,0.3583984375
61502553524,-0.67529296875,0.634338378906,0.0274047851562,0.375244140625
61502574803,-0.667541503906,0.632568359375,0.0286254882812,0.391723632812
61502591084,-0.660766601562,0.630554199219,0.029052734375,0.406127929688
61502613535,-0.654907226562,0.629150390625,0.0294799804688,0.417602539062
61502636043,-0.650146484375,0.627746582031,0.029296875,0.427062988281
61502658481,-0.645629882812,0.626098632812,0.0281982421875,0.436340332031
61502673561,-0.641784667969,0.624816894531,0.027099609375,0.443786621094
61502702096,-0.638610839844,0.624145507812,0.0260009765625,0.449340820312
61502710385,-0.636535644531,0.623107910156,0.0242309570312,0.453796386719
61502733594,-0.6357421875,0.621704101562,0.0224609375,0.45703125
61502754735,-0.635437011719,0.620361328125,0.0205078125,0.459228515625
61502770354,-0.63525390625,0.619018554688,0.0177612304688,0.46142578125
61502793519,-0.635131835938,0.617919921875,0.013916015625,0.463134765625
61502814657,-0.635559082031,0.617004394531,0.0100708007812,0.463928222656
61502830396,-0.636352539062,0.615844726562,0.00689697265625,0.464477539062
61502853581,-0.63720703125,0.615051269531,0.00439453125,0.46435546875
61502876037,-0.638305664062,0.614013671875,0.00286865234375,0.464172363281
61502890370,-0.639221191406,0.612854003906,0.00152587890625,0.464538574219
61502913597,-0.639831542969,0.611938476562,-0.0001220703125,0.46484375
61502936064,-0.64013671875,0.611633300781,-0.0006103515625,0.464904785156
61502951086,-0.640075683594,0.61181640625,0.00018310546875,0.464721679688
61502973569,-0.640197753906,0.611389160156,0.0013427734375,0.465087890625
61503002198,-0.640197753906,0.610778808594,0.00238037109375,0.465881347656
61503010372,-0.64013671875,0.610473632812,0.00335693359375,0.466369628906
61503033561,-0.64013671875,0.610229492188,0.00396728515625,0.466674804688
61503056084,-0.640197753906,0.610046386719,0.00433349609375,0.466857910156
61503070416,-0.640441894531,0.609802246094,0.00482177734375,0.466796875
61503093569,-0.640930175781,0.609558105469,0.00518798828125,0.466430664062
61503116022,-0.641174316406,0.609375,0.00494384765625,0.466430664062
61503130364,-0.641174316406,0.609375,0.0048828125,0.466369628906
61503153560,-0.641662597656,0.609497070312,0.0050048828125,0.465515136719
61503176038,-0.641967773438,0.60986328125,0.0050048828125,0.464660644531
61503190312,-0.642028808594,0.60986328125,0.0050048828125,0.464599609375
61503213522,-0.64208984375,0.609741210938,0.00531005859375,0.464599609375
61503236533,-0.642028808594,0.609741210938,0.00579833984375,0.464721679688
61503250357,-0.641845703125,0.609985351562,0.0062255859375,0.464660644531
61503273503,-0.641723632812,0.6103515625,0.0067138671875,0.46435546875
61503296055,-0.642150878906,0.610534667969,0.00732421875,0.463500976562
61503317089,-0.642517089844,0.6103515625,0.0078125,0.463195800781
61503333537,-0.642944335938,0.609985351562,0.0081787109375,0.463073730469
61503356015,-0.6435546875,0.609619140625,0.0086669921875,0.462707519531
61503377210,-0.644104003906,0.609619140625,0.00921630859375,0.4619140625
61503393560,-0.64501953125,0.610046386719,0.0104370117188,0.460021972656
61503416042,-0.646423339844,0.610961914062,0.0120239257812,0.456787109375
61503437159,-0.649108886719,0.612426757812,0.013916015625,0.450988769531
61503453538,-0.653564453125,0.614379882812,0.0166015625,0.441650390625
61503476040,-0.659423828125,0.616271972656,0.0193481445312,0.430114746094
61503497293,-0.665283203125,0.617614746094,0.0205078125,0.4189453125
61503513561,-0.671325683594,0.619079589844,0.0210571289062,0.406982421875
61503536128,-0.677856445312,0.621520996094,0.0234985351562,0.391967773438
61503557257,-0.684387207031,0.626098632812,0.0272216796875,0.372619628906
61503572890,-0.69091796875,0.630249023438,0.0269775390625,0.353088378906
61503596019,-0.699401855469,0.632507324219,0.0263671875,0.331787109375
61503617116,-0.709228515625,0.633972167969,0.0275268554688,0.30712890625
61503632876,-0.718566894531,0.635925292969,0.0310668945312,0.279846191406
61503656024,-0.726257324219,0.638610839844,0.0343627929688,0.252014160156
61503677256,-0.733337402344,0.640625,0.0343627929688,0.224914550781
61503692885,-0.741394042969,0.640808105469,0.0338745117188,0.196228027344
61503716005,-0.749267578125,0.640319824219,0.0350341796875,0.165283203125
61503737155,-0.754577636719,0.64111328125,0.036865234375,0.135192871094
61503752831,-0.756896972656,0.643493652344,0.03515625,0.108703613281
61503776027,-0.758728027344,0.645385742188,0.0309448242188,0.0823974609375
61503798556,-0.760498046875,0.646606445312,0.0269775390625,0.0527954101562
61503812909,-0.761291503906,0.647644042969,0.0234375,0.0213012695312
61503836018,-0.760314941406,0.649291992188,0.0173950195312,-0.00604248046875
61503858525,-0.758544921875,0.65087890625,0.0096435546875,-0.0294799804688
61503872885,-0.756652832031,0.651733398438,0.0013427734375,-0.0523071289062
61503896017,-0.754333496094,0.652160644531,-0.00677490234375,-0.0745239257812
61503918555,-0.751281738281,0.652770996094,-0.0144653320312,-0.0963745117188
61503939655,-0.747680664062,0.6533203125,-0.022705078125,-0.116943359375
61503956041,-0.744201660156,0.653381347656,-0.032470703125,-0.134887695312
61503978492,-0.742065429688,0.652038574219,-0.043701171875,-0.149169921875
61503999652,-0.741088867188,0.650085449219,-0.0563354492188,-0.158142089844
61504016035,-0.740356445312,0.648010253906,-0.0677490234375,-0.165405273438
61504038520,-0.739379882812,0.646179199219,-0.0770874023438,-0.1728515625
61504059393,-0.738220214844,0.644287109375,-0.0847778320312,-0.181030273438
61504076013,-0.737060546875,0.642395019531,-0.0912475585938,-0.189086914062
61504098560,-0.736389160156,0.640258789062,-0.0963134765625,-0.1962890625
61504119851,-0.736022949219,0.63818359375,-0.100646972656,-0.202270507812
61504143521,-0.736022949219,0.635925292969,-0.105102539062,-0.20703125
61504158550,-0.736572265625,0.63330078125,-0.109130859375,-0.210998535156
61504179751,-0.738342285156,0.631042480469,-0.111572265625,-0.210327148438
61504196039,-0.739685058594,0.631286621094,-0.111328125,-0.204772949219
61504218515,-0.738830566406,0.633666992188,-0.107482910156,-0.202697753906
61504239635,-0.736938476562,0.635375976562,-0.102233886719,-0.206848144531
61504256044,-0.735046386719,0.636352539062,-0.0982666015625,-0.212341308594
61504279261,-0.7333984375,0.637084960938,-0.096435546875,-0.216735839844
61504299710,-0.732360839844,0.637390136719,-0.0977172851562,-0.218688964844
61504316084,-0.732360839844,0.637145996094,-0.101623535156,-0.217712402344
61504338502,-0.733215332031,0.636535644531,-0.106079101562,-0.214416503906
61504359385,-0.734497070312,0.635681152344,-0.109069824219,-0.211059570312
61504376021,-0.735900878906,0.634399414062,-0.110290527344,-0.209228515625
61504398501,-0.7373046875,0.6328125,-0.110412597656,-0.209228515625
