61401354554,-2,-2,-3,0,0,-1,-1,-1
61401354554,0,-1,-1,-1,-2,-1,0,0
61401355388,-2,-3,-1,0,-1,-3,0,-3
61401355388,-2,-2,0,0,-2,-1,-2,-2
61401356826,-1,-3,-1,-1,-3,0,1,-2
61401356826,-2,-1,-3,0,-1,-1,0,-2
61401357501,0,0,-2,-1,-3,0,0,-2
61401357501,-2,0,0,0,-2,-8,-1,-2
61401367454,-1,-1,0,-1,-1,10,1,-1
61401367454,-2,-1,0,-1,1,1,-1,-1
61401370961,0,0,-1,-2,-1,-3,-2,-2
61401370961,0,-2,-1,0,-1,-2,-2,-1
61401382336,-1,0,-2,-1,-1,-5,-1,-1
61401382336,0,-1,-2,-1,-1,0,0,0
61401394686,-1,-2,-2,0,1,1,-1,0
61401394686,-2,0,-3,0,-2,-1,0,-1
61401402369,0,0,-1,-2,0,-2,-2,-1
61401402369,1,-1,-2,0,-1,-1,0,-1
61401425215,-3,-2,-1,-2,-1,-2,0,-1
61401425215,-2,0,-1,-1,0,1,-1,-1
61401427456,-1,0,-1,-1,-2,-2,-2,-4
61401427456,-1,-1,-1,-2,-1,-2,-4,-2
61401463431,-1,-1,-2,-1,-2,0,-2,-1
61401463431,-1,-2,0,-3,-2,-1,2,-1
61401464138,-1,-2,-2,-2,-3,-1,1,-2
61401464138,-1,-2,0,-1,-2,0,0,-1
61401465748,0,0,-1,-1,1,-2,0,-1
61401465748,-1,-1,0,0,-2,-1,-2,-2
61401468301,0,-2,1,-1,-1,0,-1,0
61401468301,-1,-2,-2,1,-3,-2,-3,-2
61401475651,0,0,-3,-1,1,-1,-1,-2
61401475651,-1,0,-3,0,-2,-2,0,0
61401484686,-2,0,-1,0,-1,1,-1,-1
61401484686,-2,-2,-1,-2,-2,-1,1,-1
61401490763,-1,-2,0,-1,-4,-2,-1,-2
61401490763,-1,-1,-1,-1,0,3,-1,-2
61401505854,0,-1,-2,-2,0,4,0,-1
61401505854,0,-1,-1,0,-2,-2,-2,-2
61401513271,-1,-2,-1,-1,-4,-2,-2,-2
61401513271,2,-2,-2,0,-2,-1,-3,0
61401536466,-1,-2,-2,-2,-2,-1,-1,-2
61401536466,0,-1,-3,-1,0,3,0,-4
61401537120,-3,-3,-2,-2,-3,-1,0,0
61401537120,-1,0,0,-1,-1,-2,-2,-3
61401551461,-3,-1,-1,1,-1,0,-3,-1
61401551461,0,0,-1,0,-3,-5,-1,-1
61401552115,-1,0,0,-1,-2,-1,0,1
61401552115,-1,0,0,-1,-1,-1,2,0
61401573888,-2,-1,-2,-1,0,7,-2,0
61401573888,-1,-1,1,0,1,1,0,0
61401574587,2,1,1,1,3,2,-1,-1
61401574587,0,0,2,1,0,3,-1,-1
61401596424,0,1,1,-2,-1,-5,-1,-2
61401596424,-1,0,-2,-2,-1,-1,-1,0
61401597120,-1,-3,-2,0,0,2,0,1
61401597120,-2,0,-2,-1,-1,-3,0,0
61401611322,2,0,-1,-1,-1,-4,-1,0
61401611322,-1,0,0,-2,1,6,-1,-1
61401612071,-2,-1,1,0,-1,-2,-2,0
61401612071,-2,-2,-1,-1,0,-2,-2,-1
61401633848,-1,-2,-2,0,-1,-3,1,1
61401633848,-1,-1,-2,-1,-1,-1,-2,0
61401634560,1,1,1,-1,-1,-2,-2,-2
61401634560,-2,-1,-1,-1,-2,2,-2,0
61401656465,0,0,-1,0,1,-4,-1,-2
61401656465,-1,-2,0,0,-1,-2,0,0
61401657115,-3,-2,-1,0,-1,-3,-3,-2
61401657115,-1,-2,0,-1,-1,-1,-1,-2
61401671476,-1,1,1,-2,-1,-2,1,-1
61401671476,-3,1,0,-2,-1,-1,0,-1
61401672141,1,-1,0,0,-1,0,0,1
61401672141,-2,-3,-2,-2,-2,-2,-1,0
61401693896,-3,-3,-1,-3,-2,-8,-1,0
61401693896,-1,-3,-2,0,0,8,2,1
61401694615,0,1,-3,-2,0,3,-1,-1
61401694615,0,-3,-2,-1,-1,-1,1,-1
61401716572,-1,-3,0,0,-1,1,-2,-2
61401716572,0,1,1,-1,0,-4,-2,1
61401717166,-2,-2,-4,-2,0,-2,3,0
61401717166,-2,0,1,-1,-1,-4,1,-1
61401731461,-1,0,-1,-2,-1,5,0,-2
61401731461,-1,0,-1,-1,-2,-4,0,-1
61401732083,-1,0,0,-1,-2,-3,-19,-3
61401732083,-1,1,-2,-2,0,0,-2,-2
61401753935,0,-1,-1,-1,-2,-3,1,-2
61401753935,-1,-1,-2,0,0,-1,-7,1
61401754584,-1,-3,-2,-1,-3,0,6,-2
61401754584,0,-1,0,0,-1,-3,-1,0
61401776460,-2,0,-1,-1,0,0,-3,0
61401776460,-1,-1,-1,-2,0,-8,0,-1
61401777136,-3,-2,-1,-1,1,9,3,-2
61401777136,-1,-2,2,0,-1,-2,-2,0
61401791434,-2,-1,0,1,0,7,4,-1
61401791434,2,0,0,-1,-3,-23,-7,-5
61401792126,-2,-2,0,-1,0,-11,0,-1
61401792126,-2,-3,-4,-2,-1,7,14,-2
61401813927,-5,-2,-3,-2,-3,2,-6,0
61401813927,-8,1,2,0,0,2,3,-7
61401814717,4,2,1,0,1,-7,-9,7
61401814717,-2,3,2,1,2,-7,8,-4
61401836459,7,0,-2,0,-4,-4,11,3
61401836459,-2,-6,-2,-1,-1,6,-12,1
61401837128,-8,-5,-1,-1,1,9,-3,-8
61401837128,2,1,-3,-2,-4,11,9,11
61401850656,2,0,-1,0,2,5,5,-1
61401850656,2,6,1,2,0,-1,10,2
61401858884,-1,2,2,2,5,28,-7,-5
61401858884,-6,-6,-3,-3,-4,-13,5,4
61401873849,0,0,-1,-1,2,-4,20,-7
61401873849,1,4,-1,-1,0,7,-34,-1
61401874621,2,-4,-3,-3,-2,51,10,-4
61401874621,-8,-2,-3,0,1,-51,-9,6
61401896554,-3,-2,1,0,0,17,28,0
61401896554,6,0,-1,-2,1,-6,-25,4
61401897096,3,3,-1,2,-1,-14,-26,-1
61401897096,-9,-2,-2,-2,0,11,-8,-16
61401910693,-3,0,-3,-1,-1,2,49,13
61401910693,-2,-4,-3,-1,-1,1,-8,-9
61401918559,4,-1,0,-2,-3,-26,34,6
61401918559,0,0,-1,-1,-3,20,-4,-7
61401933799,10,0,1,1,1,-14,-48,5
61401933799,-7,2,0,1,-2,5,26,-1
61401934622,2,-3,-1,-2,-2,-6,-1,-13
61401934622,-3,-5,1,1,1,1,27,7
61401956319,-6,6,-1,-1,0,13,-28,-8
61401956319,-5,-9,-3,-1,-1,-20,10,0
61401957112,-20,-7,-4,-3,-8,-24,-21,-9
61401957112,33,7,1,0,-1,-1,1,9
61401979351,-8,-1,0,-1,0,42,-17,-7
61401979351,-2,-3,0,-2,-1,-8,9,2
61401980002,-2,-1,1,0,2,-13,-4,7
61401980002,2,5,1,1,0,-6,-22,1
61401993961,1,-1,-2,-1,0,-12,28,-6
61401993961,-11,-9,-5,-7,-18,12,-66,-16
61401994624,8,4,0,0,-2,-22,22,8
61401994624,1,0,0,1,3,34,-33,-6
61402016436,5,-3,-2,-3,-4,23,39,3
61402016436,-9,-6,-5,-5,0,-50,15,2
61402017132,-4,-5,-1,3,15,4,-17,-1
61402017132,-2,-2,0,0,-6,17,3,-9
61402030680,2,4,-1,0,-2,-33,-18,7
61402030680,18,7,2,2,1,29,14,6
61402038934,2,3,-3,-4,-4,6,1,2
61402038934,0,1,0,-1,6,-14,10,-2
61402053806,-11,-8,0,-2,2,-8,-6,-8
61402053806,-9,-6,-1,-2,-4,3,-15,-6
61402054596,0,-1,0,-1,-7,-13,9,0
61402054596,-8,-3,-2,-1,0,-12,-7,1
61402076326,-3,-4,-2,-4,-13,-11,-11,0
61402076326,3,1,0,2,9,-9,6,3
61402077107,0,0,0,-2,-5,8,21,-3
61402077107,0,-1,-3,-1,-1,-11,-22,-6
61402090718,-3,-2,-2,0,6,4,-10,-1
61402090718,2,0,-1,0,0,9,18,2
61402098950,3,0,-1,-4,-4,-12,1,3
61402098950,-1,2,-1,-3,1,37,0,-8
61402113873,0,3,2,3,3,-38,-17,3
61402113873,5,0,1,1,-17,23,15,-1
61402114607,-10,-5,-1,0,1,-51,-17,-8
61402114607,-5,-4,-2,-2,2,25,7,3
61402136472,5,1,2,0,-11,-6,-17,0
61402136472,-6,-4,-3,-2,4,5,19,-3
61402137141,4,0,2,1,1,21,-10,5
61402137141,-5,-2,-2,1,3,-4,1,-5
61402150830,-2,-4,-5,-4,0,-15,14,-3
61402150830,6,4,0,1,1,-12,-23,4
61402158945,0,1,-1,-2,-1,10,-1,-1
61402158945,-3,-2,3,1,5,40,2,-4
61402173912,-1,-3,0,-1,-2,-1,-3,-2
61402173912,-1,-2,-3,-4,-3,-18,4,3
61402174577,-5,-1,-2,-3,-5,13,3,-10
61402174577,1,2,4,1,1,-9,-6,9
61402196432,4,1,2,3,-1,27,4,-1
61402196432,0,0,5,-1,9,0,6,1
61402197107,-1,-4,-11,-2,-8,-75,-7,0
61402197107,-5,-8,-4,-4,-7,25,11,0
61402210761,-6,-4,-6,-3,4,18,-8,-5
61402210761,4,3,2,2,1,-3,2,0
61402226543,-5,3,5,3,-3,6,-6,-5
61402226543,5,3,6,0,6,-35,9,4
61402233885,-3,-4,-8,1,0,-26,-23,-5
61402233885,-4,-3,-11,-8,-12,9,0,-5
61402234614,-3,-2,1,-6,0,-39,4,3
61402234614,2,3,2,0,-6,-3,-2,-3
61402256482,1,1,-8,1,0,14,11,-1
61402256482,-7,-5,-10,0,-1,18,-28,-8
61402257108,7,0,12,2,2,4,9,9
61402257108,-3,-2,3,-2,-7,-26,-10,-6
61402279660,-2,1,10,-4,0,-76,4,5
61402279660,0,0,-2,0,-9,56,20,-2
61402280339,3,4,8,-4,-6,20,-4,1
61402280339,-1,4,14,4,4,1,-4,-2
61402293957,0,-2,-3,3,-5,-16,-10,-3
61402293957,-9,-11,-8,-15,4,-19,-2,-6
61402294629,2,2,-18,3,8,31,-2,2
61402294629,2,-6,-1,0,-10,-16,3,3
61402316484,-4,1,14,-3,4,40,0,-1
61402316484,4,3,0,-2,0,-61,0,3
61402317142,-6,-2,0,2,-11,22,-1,-6
61402317142,-4,-2,-3,-5,-3,-25,-2,-3
61402339609,-2,-2,-21,-4,8,37,-5,-2
61402339609,-1,-2,8,2,1,-8,-2,-3
61402340346,4,0,1,-1,-4,-35,3,4
61402340346,-1,4,12,12,2,25,-2,-2
61402353889,4,2,-15,-14,-7,-13,-6,2
61402353889,-2,0,0,5,4,6,4,-2
61402354605,1,-2,2,-2,-1,17,-5,-4
61402354605,-2,-5,-13,-2,-3,-46,-4,2
61402376343,-2,0,11,-2,-14,-4,-5,-2
61402376343,-1,2,15,4,-5,5,3,1
61402377056,-6,-7,-25,-6,2,17,-3,-10
61402377056,1,0,0,-2,10,-8,-1,6
61402399659,-2,-6,13,10,1,19,-3,-5
61402399659,3,4,9,0,-4,-2,0,2
61402400347,-5,-2,-36,-11,-4,10,3,-1
61402400347,-2,2,29,-3,1,-26,1,-3
61402413928,-7,-13,-16,1,-5,38,-4,-4
61402413928,7,10,5,6,3,19,4,7
61402414587,3,2,-7,2,1,-28,-5,0
61402414587,-3,-10,-15,-21,-5,-2,2,-1
61402435793,1,9,12,21,6,-9,-3,6
61402435793,-5,-5,-25,-1,3,-5,-1,-13
61402444621,2,0,24,-3,-7,18,4,8
61402444621,1,0,-17,-3,-8,-46,-2,-1
61402459627,-2,0,8,-1,3,21,3,-2
61402459627,-1,-1,-8,0,8,-1,-3,-1
61402461101,0,-1,5,-3,-3,20,1,-2
61402461101,-6,-8,-33,-1,-7,-73,-11,-6
61402482145,-1,1,19,-6,10,-31,-3,-4
61402482145,-5,-6,-39,-2,-9,-32,7,3
61402483628,0,0,30,-1,6,26,0,1
61402483628,0,0,4,5,-4,41,0,3
61402495785,-2,-2,-10,-2,1,-17,-2,-1
61402495785,-1,-1,-2,-4,0,-20,-7,0
61402504653,-3,-6,1,3,2,-5,-1,-4
61402504653,0,1,-3,-3,1,36,2,-1
61402519462,0,0,-8,-2,-3,-15,-4,-1
61402519462,-5,-2,6,-1,2,32,1,-4
61402521081,-1,-4,-32,-1,1,11,4,3
61402521081,-5,-1,16,1,-3,13,-4,-9
61402542113,0,-1,-9,-5,-6,-17,-2,1
61402542113,0,-1,11,-1,3,21,-1,3
61402543643,-3,5,6,-2,2,57,6,-5
61402543643,0,-9,-35,-2,-6,-21,-8,-2
61402555670,-2,-5,-13,-5,-5,-1,2,-6
61402555670,-1,-1,21,2,1,-29,-1,0
61402564666,6,8,19,3,4,20,2,7
61402564666,-2,-4,-2,-6,-3,-1,0,0
61402578827,1,4,16,0,-4,20,1,2
61402578827,0,-4,-18,-3,8,-21,-1,-3
61402585718,-4,-5,4,-1,-10,-37,-4,-7
61402585718,-4,1,14,3,0,32,2,0
61402602117,3,0,-13,-3,2,5,-7,-3
61402602117,2,1,13,1,-1,0,3,8
61402603626,-2,-6,-11,-1,6,14,0,1
61402603626,2,1,-7,2,-2,1,0,-3
61402615833,0,-2,2,0,-4,-16,-3,-1
61402615833,1,3,-1,-4,0,32,2,-1
61402624626,-3,-1,6,3,-1,1,-3,-4
61402624626,1,0,-19,-7,0,3,1,2
61402639483,-7,-10,1,3,-1,-4,-3,-2
61402639483,2,6,13,5,-5,-4,-5,0
61402641088,-5,-1,1,-2,-2,-33,-1,-3
61402641088,-3,-1,-3,-2,-3,-1,-5,-5
61402662113,1,-1,-4,-5,-1,-13,3,2
61402662113,2,-5,-25,3,-3,32,3,-2
61402663640,-2,0,25,-1,-1,-18,-4,1
61402663640,1,-1,6,1,1,-4,0,1
61402675775,0,1,2,-3,1,27,3,2
61402675775,1,2,17,-3,-8,-23,-10,-5
61402685355,-2,2,7,5,0,7,-2,-2
61402685355,-5,-8,-21,-2,6,-5,3,-8
61402699510,2,0,-13,4,-9,-8,-2,2
61402699510,1,0,12,-11,-5,-21,0,2
61402701243,-2,-7,-17,-3,3,18,-1,-2
61402701243,-1,6,15,0,-2,13,-2,-1
61402722000,0,2,2,-1,0,8,5,3
61402722000,-2,-8,-13,4,1,-5,-3,-5
61402723603,4,5,-7,-4,-1,5,5,3
61402723603,2,4,-4,-1,1,-3,-2,5
61402735708,-2,-6,0,-1,-1,-18,-3,-6
61402735708,-3,-6,-16,-2,-5,4,0,0
61402744658,2,2,17,-12,-3,-12,-1,-5
61402744658,4,0,-1,16,1,-1,-1,4
61402759581,-4,1,-9,-3,3,23,3,-2
61402759581,-4,-6,16,0,-2,-17,-3,-7
61402761113,1,-1,-16,1,-3,-11,-2,4
61402761113,1,-3,-9,-6,0,14,1,1
61402782102,-2,-1,12,0,-4,-28,-4,-6
61402782102,1,3,1,0,1,41,6,0
61402783598,-2,-5,-3,-3,-2,-26,-5,-3
61402783598,-2,-2,12,-1,0,7,-1,0
61402804611,1,4,3,0,2,6,0,-2
61402804611,-3,3,-2,-3,2,22,0,-1
61402806137,2,2,-18,-4,-3,-82,-6,1
61402806137,-4,-2,3,-4,6,37,4,-4
61402819539,3,-1,5,-4,-4,10,2,2
61402819539,-1,-2,-7,-3,-2,-1,-6,-2
61402821102,-6,-5,0,5,1,-15,-5,-3
61402821102,4,0,-2,-3,-5,-53,0,6
61402842141,-6,4,15,1,2,8,0,-4
61402842141,0,-6,-35,-4,1,19,2,1
61402843571,-5,-4,20,5,-1,16,-5,-6
61402843571,0,1,9,-1,1,15,2,0
61402864651,2,1,2,-3,-7,-16,-2,2
61402864651,0,0,2,-2,-2,7,1,0
61402866094,-2,-5,-14,4,1,40,-2,-4
61402866094,-1,-2,-1,-3,-6,16,-5,-6
61402879653,0,-9,-14,-2,5,-3,-2,0
61402879653,-3,5,13,0,-1,9,4,-2
61402881102,2,0,-15,-2,-1,-4,1,1
61402881102,-2,-2,9,-1,-1,9,0,-3
61402902161,0,-1,-8,-2,-2,1,-5,-1
61402902161,0,2,2,1,-3,-28,-2,0
61402903658,-5,-4,-1,-3,1,2,2,1
61402903658,5,3,-1,-3,-8,-35,-4,1
61402924611,-3,-1,-3,-3,0,-1,0,-1
61402924611,-4,-1,11,0,2,-15,-1,-1
61402926115,1,-1,-27,-3,0,44,-1,3
61402926115,4,-2,30,-1,-2,-30,-3,2
61402938905,-1,6,-19,0,0,-1,0,0
61402938905,-1,-1,20,0,-1,-12,-3,-2
61402945745,-4,-2,1,1,-3,-17,-2,-5
61402945745,-6,0,-11,0,1,-6,-5,-3
61402962058,0,-2,10,-5,-6,-4,-4,-2
61402962058,-5,-7,-12,1,-3,-9,2,1
61402963615,-2,3,-10,-2,0,-15,2,-3
61402963615,-2,-4,-5,-1,-2,-13,-5,0
61402984557,-2,-1,1,-3,1,13,3,2
61402984557,6,5,-6,-3,1,40,0,-1
61402986096,-2,-2,8,0,-2,-41,-3,-3
61402986096,1,0,-20,-19,-4,20,3,0
61402998809,-4,-7,14,17,1,46,-1,-8
61402998809,3,1,-5,-3,-2,-4,-1,7
61403005609,1,-1,14,0,-3,4,-3,-3
61403005609,-4,-2,-7,4,1,8,1,0
61403029464,-2,-2,-12,-8,-5,-46,-3,-4
61403029464,-2,-3,2,-1,-1,-9,2,-3
61403031066,-2,1,7,2,2,21,2,2
61403031066,-1,0,2,1,0,15,2,0
61403044573,-3,-4,-5,-3,-2,-54,-6,2
61403044573,-2,-4,2,1,2,3,-4,-1
61403046087,3,0,-5,-5,-3,1,-1,1
61403046087,-7,-6,14,2,2,55,1,-4
61403058896,7,7,15,2,0,-22,5,5
61403058896,-1,-3,-9,-7,0,-3,-2,-4
61403065799,-4,-4,-21,-2,0,18,1,-3
61403065799,0,3,15,3,-4,-17,-2,-1
61403081952,-4,1,0,-2,3,20,-1,-2
61403081952,0,-2,6,0,-2,-18,-3,-2
61403083598,-1,-2,-11,0,0,1,0,0
61403083598,-2,-1,-7,1,-1,-17,-7,-4
61403104467,-2,-3,-1,-1,-1,-30,-1,0
61403104467,-1,-2,-7,-5,-5,7,-2,2
61403106069,-5,-3,4,1,-2,-9,-2,-4
61403106069,2,-2,-16,0,1,11,7,3
61403127072,3,1,7,-7,0,7,-5,0
61403127072,-1,3,11,7,1,0,0,-3
61403128574,3,0,8,-3,-2,-39,-5,3
61403128574,-1,-1,-14,0,1,8,4,1
61403142137,-3,-6,8,-2,0,2,3,-1
61403142137,0,4,10,2,-2,20,1,-4
61403143623,3,2,5,-2,-2,-17,-2,4
61403143623,1,-3,-4,3,-3,-12,-5,1
61403164507,-2,-6,-25,-6,-1,5,2,-5
61403164507,-2,-3,2,-1,0,-28,-7,-4
61403166077,1,6,12,5,1,9,3,2
61403166077,-5,-5,-16,-5,0,15,3,0
61403178878,3,1,-13,0,0,11,-1,1
61403178878,-2,-2,18,-1,-4,-26,-4,-1
61403185613,-3,-3,-16,-4,-1,38,-2,-1
61403185613,0,0,4,2,0,24,1,0
61403201984,-1,1,6,1,0,-20,-3,0
61403201984,0,-3,-23,-2,-3,5,3,3
61403203594,0,-2,0,0,-3,6,-6,-5
61403203594,-4,-3,4,0,0,-24,-3,-4
61403224582,3,-1,2,0,2,28,-3,-2
61403224582,-6,-9,-26,-4,-6,-18,0,-1
61403226064,1,2,16,-1,-2,-14,0,-1
61403226064,0,2,5,2,-2,-3,-5,-3
61403238956,2,-4,-79,-17,-1,-9,-1,2
61403238956,-3,4,60,9,6,0,1,-4
61403245867,-1,-5,-4,0,-1,-8,-3,-3
61403245867,-2,2,7,-1,-1,-2,-2,-4
61403262001,-3,1,-4,0,-3,-10,-2,2
61403262001,0,-3,-16,-7,-1,50,-1,0
61403263591,-2,-6,1,0,2,18,3,-1
61403263591,0,3,7,0,1,-13,-2,0
61403284649,-2,0,18,2,-4,-14,1,-2
61403284649,-2,-2,-11,-3,1,1,1,-1
61403286140,2,-2,-4,-1,3,16,0,-1
61403286140,-4,-3,3,1,-1,-9,-5,-5
61403298234,-2,1,12,3,-1,-3,2,-3
61403298234,0,2,4,0,-2,-7,-1,0
61403307134,-2,-5,-16,-3,0,-12,0,-2
61403307134,2,0,-12,-3,-1,-5,1,1
61403322131,-4,-5,28,3,2,25,-1,-2
61403322131,-1,0,-11,-1,-1,-10,-3,1
61403323612,-3,1,4,-3,-3,17,-3,-1
61403323612,3,0,1,1,-3,-12,0,1
61403344575,-1,-2,0,1,-2,-15,-4,-4
61403344575,2,1,-25,0,2,10,5,1
61403346026,-3,-5,-2,-8,-4,-7,-1,-2
61403346026,-1,0,16,2,-3,-12,1,1
61403358343,-2,-2,-5,-9,-2,4,0,-3
61403358343,1,1,11,15,1,-9,-3,0
61403367157,-6,-2,-4,3,-1,-7,-3,-3
61403367157,0,-4,-34,-7,0,42,5,2
61403382134,1,4,29,2,-3,-10,1,3
61403382134,0,-3,-4,-4,3,3,0,-1
61403383592,1,1,7,0,-3,3,-3,-2
61403383592,-1,-2,-2,11,0,10,1,-3
61403404566,-1,-1,-10,-9,-5,11,-2,-2
61403404566,-1,-3,-26,-6,-2,-6,-2,2
61403406070,-1,0,14,1,1,3,2,0
61403406070,-1,1,-3,-5,-3,-23,-7,-3
61403418167,-1,-2,-6,9,1,9,-1,1
61403418167,0,-2,12,-4,-3,-6,0,-1
61403433136,2,3,-5,5,-1,-7,0,0
61403433136,-2,-1,4,-5,-3,-2,-3,-2
61403442053,-3,-2,-5,-7,0,8,-1,0
61403442053,-2,0,-2,0,-3,-8,-2,-2
61403443590,-1,-3,0,1,-1,-3,2,2
61403443590,0,-1,4,2,0,-8,-1,-1
61403464682,-1,-1,-7,-30,-1,5,-4,-2
61403464682,-2,-2,2,17,0,-12,-4,-1
61403466196,-1,0,2,1,-1,12,1,-1
61403466196,0,0,-2,-4,-1,-10,1,-2
61403478237,0,-2,-1,5,0,0,-1,0
61403478237,-3,-2,0,-10,-3,7,2,-3
61403487135,0,1,-2,-1,-2,-7,-1,-1
61403487135,-1,-2,-3,-2,-2,-2,0,0
61403501995,4,1,4,11,2,30,2,1
61403501995,2,3,1,-4,-3,-22,-3,2
61403503631,-4,-4,-3,8,-4,17,-3,-3
61403503631,-3,-3,-4,-19,-5,-8,-5,-1
61403524620,2,-1,2,7,0,16,4,1
61403524620,-1,-1,-2,-4,1,20,7,-2
61403526012,0,0,-2,-6,-3,-20,-21,-1
61403526012,-1,0,2,5,1,1,15,-1
61403538232,0,1,2,6,0,-2,2,-2
61403538232,0,-3,-4,-4,-1,-4,-41,2
61403547161,-2,-3,-3,-7,-2,-14,-10,-1
61403547161,-1,-2,1,0,0,6,12,1
61403561457,2,2,0,4,0,-2,-1,2
61403561457,2,0,-1,-1,0,-8,8,0
61403568298,2,-1,0,0,1,3,4,-1
61403568298,-1,0,0,3,1,2,10,0
61403584490,-5,-4,-1,-3,-5,-20,-64,-8
61403584490,-1,-1,1,-2,1,16,15,1
61403586101,-2,-1,-1,-1,-2,-7,-5,0
61403586101,-3,0,-2,-1,0,3,36,1
61403598120,-1,-1,0,2,-2,-27,-36,2
61403598120,-3,-1,-1,-3,-5,-18,33,-6
61403613106,0,-1,-2,-2,-3,-24,-16,2
61403613106,-3,-2,-1,0,0,13,7,-2
61403621349,-4,-1,-2,1,0,9,59,2
61403621349,2,-1,2,-2,-3,-10,-66,-4
61403628095,1,3,0,-2,-1,13,39,4
61403628095,0,0,-1,1,-5,-19,-40,-4
61403644470,-2,-4,-1,0,-4,-26,-11,-3
61403644470,-2,-3,-4,-2,1,-5,-19,-2
61403646071,1,0,-1,-3,-2,7,31,2
61403646071,1,-1,2,0,0,4,-16,2
61403658272,3,-2,-1,1,3,5,14,3
61403658272,-3,-2,-2,-2,-1,7,1,0
61403667108,0,-2,-2,0,0,-10,-29,-6
61403667108,1,-1,-2,0,-1,0,-4,1
61403681471,-8,0,-2,-1,-2,5,25,-2
61403681471,-2,0,0,-1,-1,-9,13,-3
61403688274,1,0,-2,-2,0,10,-32,-3
61403688274,-2,-2,-1,-3,-2,-1,35,-1
61403704583,0,0,-2,0,-1,-7,-39,-5
61403704583,-1,-2,-1,-3,-1,-8,41,5
61403705992,-2,-1,0,0,0,4,-54,-6
61403705992,1,-1,0,-1,-1,-12,-11,2
61403727123,-1,-2,-1,-3,-4,16,48,-1
61403727123,-4,-3,-3,-1,0,-9,-7,-3
61403728598,3,0,0,2,1,10,44,6
61403728598,1,3,1,-2,-4,-59,-50,-3
61403741435,3,2,-1,2,2,-21,13,4
61403741435,-2,-1,0,-1,-3,21,2,-2
61403748136,-2,-2,0,2,4,-5,-27,0
61403748136,-3,-2,-2,-2,-2,16,7,-6
61403764728,2,2,0,-1,-3,-8,-7,5
61403764728,2,1,-1,-2,0,5,3,-4
61403766079,-5,-2,-1,-1,-1,2,-21,-4
61403766079,-2,-2,-2,-1,-1,9,31,0
61403786804,-1,-1,1,0,0,16,45,1
61403786804,-1,-1,2,0,-2,-8,-52,-3
61403794627,-3,-3,0,-3,-1,-5,22,3
61403794627,0,0,0,-1,-2,-18,-53,-6
61403801450,-2,-1,-1,1,2,35,17,-5
61403801450,0,0,-2,1,0,4,14,4
61403815608,2,1,-1,-2,-3,-7,48,-1
61403815608,-9,0,-2,0,-2,7,-33,-5
61403824635,0,-1,-1,-1,-2,-8,-21,0
61403824635,-3,-1,-1,-1,-1,-4,3,-3
61403826102,2,1,1,0,-2,2,-22,1
61403826102,3,0,0,1,2,3,-27,-3
61403847057,-7,-3,-2,-2,-3,-2,-37,-9
61403847057,-4,-2,-3,-2,1,45,34,2
61403848577,1,0,0,-1,-4,-27,27,-1
61403848577,-1,-1,-2,2,1,12,17,1
61403860753,-2,-1,-2,0,2,0,16,-2
61403860753,-2,-2,0,0,1,-4,8,-3
61403869610,-3,-1,-2,-2,-4,29,-24,0
61403869610,5,3,1,0,-1,-1,15,6
61403885180,-1,-2,0,0,1,-3,-69,-6
61403885180,0,-2,-2,0,-1,-17,17,0
61403886512,-4,-2,-1,-1,-1,11,10,-4
61403886512,-6,-6,-4,-3,-3,-4,12,-1
61403906958,13,-2,1,-1,0,-22,26,11
61403906958,-9,2,1,2,1,1,-17,-5
61403908581,-1,-2,-2,-1,0,-7,27,-2
61403908581,1,-3,-1,-2,-2,-2,-1,-1
61403920625,1,-1,0,1,0,-6,-8,3
61403920625,4,0,-2,-1,0,-3,-5,1
61403929577,-2,-1,-2,-1,-1,-16,-44,-6
61403929577,-6,-3,-1,-2,-4,21,73,-1
61403944629,-3,2,0,-1,-2,-6,-21,-5
61403944629,2,-1,0,-2,-1,-2,-66,0
61403946000,-2,-1,-4,-2,-2,5,19,0
61403946000,4,0,1,0,2,-11,-62,-8
61403967145,-5,-4,-3,-3,-2,-13,39,-1
61403967145,-2,-5,-3,-3,-1,25,27,2
61403968587,1,-1,0,-3,-3,-10,1,0
61403968587,2,2,1,4,0,5,-9,1
61403980712,-1,3,1,-5,-2,8,51,1
61403980712,-2,0,-1,-2,-4,-34,-11,-5
61403989619,1,-2,-2,-1,2,31,43,2
61403989619,-9,-2,-3,-2,-5,-61,-35,-6
61404004505,1,1,-1,2,2,16,6,-3
61404004505,-2,-2,-2,1,-2,3,23,2
61404006044,-3,0,-3,-19,1,1,-16,-3
61404006044,6,4,8,17,4,21,23,8
61404027038,-2,-1,0,-1,-2,-10,-46,-3
61404027038,2,-2,-1,-1,-5,-16,19,1
61404028626,-12,-2,-1,-1,0,-9,-40,-12
61404028626,2,-1,-1,2,-2,8,4,3
61404040622,-5,-1,-5,-11,-3,-4,-4,-2
61404040622,9,2,1,0,4,13,-2,7
61404049626,-2,0,-1,4,-4,-30,-33,-6
61404049626,-5,-2,1,-2,1,32,33,-1
61404064587,4,-1,-3,1,-1,-3,-12,9
61404064587,-4,0,0,-3,-4,-21,37,-14
61404066175,2,0,1,2,1,-7,-2,3
61404066175,-1,-5,-2,-5,-1,3,-56,-6
61404086924,-6,-4,-5,-12,-4,8,28,-8
61404086924,2,0,0,3,1,-2,-6,4
61404088555,3,2,1,5,-1,-2,16,4
61404088555,0,0,-2,-2,0,-1,-16,-4
61404100593,-5,-5,-5,-4,-3,1,14,-2
61404100593,-3,-1,-3,-2,-2,-5,-5,1
61404109621,2,0,-1,6,2,18,31,5
61404109621,-3,-3,-5,-9,-5,-13,27,-2
61404124472,-2,0,-1,4,0,-10,-48,-6
61404124472,2,2,2,1,1,4,-3,1
61404126151,0,-5,-3,-2,-4,9,24,-1
61404126151,2,1,-2,-2,3,11,12,4
61404146993,-4,-2,1,4,-2,2,-11,-5
61404146993,-6,-8,0,-1,1,1,43,-5
61404148575,-1,-3,-7,0,-2,0,-48,-7
61404148575,5,7,4,-7,-3,-9,21,9
61404160747,-1,-4,2,5,-1,4,-3,-1
61404160747,-2,2,-4,-4,-1,9,-8,1
61404169602,3,-1,3,-3,-2,0,36,2
61404169602,-8,-4,-6,0,-2,-8,-30,-9
61404184494,3,4,1,1,2,0,4,4
61404184494,1,0,-1,-3,-3,-1,-7,-2
61404186001,-4,-2,-3,14,-1,-2,6,-2
61404186001,-2,-1,-4,-7,-3,2,38,3
61404207091,1,-2,2,4,1,2,7,1
61404207091,0,2,0,3,-2,1,-27,-1
61404208612,0,-4,-1,-5,0,-7,-42,-2
61404208612,2,3,-1,-3,-2,5,-11,4
61404229535,0,1,0,3,-1,1,-12,0
61404229535,-1,-4,-4,-7,-3,-5,-6,1
61404231002,1,0,1,-2,0,-3,-8,-1
61404231002,-2,-4,-1,0,0,-5,-7,-3
61404244517,0,-1,-1,-5,-1,2,-5,-2
61404244517,0,-1,-1,2,0,-3,-24,-1
61404246108,0,3,0,-4,0,-3,15,2
61404246108,-1,-4,-1,3,1,1,-1,-2
61404266952,0,4,0,-1,-1,-2,0,-2
61404266952,0,-7,-7,-3,-2,1,5,1
61404268556,0,-3,1,1,0,-2,-14,-3
61404268556,-2,-3,-2,-4,-2,2,24,0
61404289534,-1,-1,-1,-1,-2,-5,-6,0
61404289534,-2,-1,1,0,-1,-6,-9,0
61404291108,-1,2,2,-3,1,-1,5,2
61404291108,-1,-2,-1,1,0,0,-13,-2
61404304493,-3,-3,0,-2,-1,0,6,-1
61404304493,-1,0,1,0,-1,-6,-10,-3
61404306116,-3,1,-2,-4,-2,-3,16,0
61404306116,-1,-1,-1,-2,0,8,-2,-1
61404327460,-2,-2,0,2,-2,-1,1,1
61404327460,-1,-1,-1,-1,-1,2,18,2
61404329067,1,-1,-2,-1,-1,-6,-22,0
61404329067,-1,-2,0,1,0,-4,-8,0
61404340740,1,0,-1,-3,-1,1,6,-1
61404340740,1,1,-1,0,-1,1,-8,-1
61404357111,-1,-1,-1,-3,-1,-2,19,0
61404357111,-1,-1,-1,0,0,-1,5,0
61404364618,0,-2,-2,-3,-2,-1,-7,-1
61404364618,-1,0,2,-1,-1,0,-8,-1
61404366099,1,-2,0,-1,0,-1,3,-1
61404366099,0,0,-3,-1,-3,-2,-5,-3
61404386944,-1,0,-2,-1,0,1,11,-2
61404386944,-2,-2,-2,-1,-3,-5,-27,-4
61404388575,-1,-1,0,-1,-2,3,4,2
61404388575,0,-2,0,0,-1,-1,-1,0
61404400696,-1,-1,-1,-1,-1,-3,-3,0
61404400696,-1,-1,-1,0,0,0,6,-1
61404409597,-3,-2,-2,-2,-1,0,-2,0
61404409597,0,-3,-1,-3,-2,-1,-4,-1
61404424732,-2,0,0,-1,-1,0,0,-2
61404424732,-2,-1,-1,0,-1,0,1,0
61404426004,-1,-1,-1,-1,-1,-1,0,0
61404426004,-1,-1,-1,-1,-1,-1,0,-2
61404447042,0,-1,-2,-2,0,-1,-3,-1
61404447042,-1,0,0,0,-1,-2,-1,1
61404448575,-1,-1,-1,0,-2,1,1,-2
61404448575,-2,1,-2,0,-1,0,-1,0
61404460774,0,-3,-1,1,-2,-2,-4,0
61404460774,-2,-2,-1,-1,-1,-2,-1,-3
61404469596,0,-1,-1,-1,-1,0,-1,-2
61404469596,-1,-1,0,0,-1,-3,-3,0
61404483787,-1,-3,-2,-1,0,-1,-2,2
61404483787,0,-2,-2,-2,-1,1,4,-2
61404490600,-1,0,-2,-1,-1,-2,-3,-2
61404490600,-2,0,0,-3,-2,-1,0,-1
61404507003,-2,-2,-1,-1,0,-5,-1,-3
61404507003,0,0,-2,-1,1,5,0,0
61404508630,-2,-1,-2,-1,0,-1,-2,-1
61404508630,0,-3,-2,0,0,-1,-1,-1
61404520773,-2,-1,-1,-2,-1,-1,0,-1
61404520773,0,-1,0,-1,-1,-2,0,-1
61404529651,-1,-1,-2,0,-1,1,-2,-2
61404529651,1,0,0,-2,-1,-2,-2,0
61404544610,1,0,0,-1,-3,2,-2,-2
61404544610,-2,-1,0,-2,-1,-1,2,-1
61404546101,0,0,1,-1,0,0,-2,0
61404546101,-1,-1,-2,0,-1,-3,-1,0
61404566979,-2,0,0,0,1,-1,-2,0
61404566979,-1,-1,-1,-2,1,0,-2,0
61404568572,-1,-4,-1,0,-2,-1,1,-1
61404568572,-1,-2,-1,0,0,-1,0,-1
61404580644,-2,-1,-2,-1,0,0,-1,-3
61404580644,-2,0,-2,-1,-1,-1,0,0
61404589543,-2,0,0,-1,0,-1,-1,0
61404589543,-1,1,-1,0,-2,0,-1,-1
61404604484,1,-2,-4,-1,-2,-1,1,0
61404604484,0,-2,1,0,-1,-2,0,-2
61404605997,0,-1,-1,-3,-1,-1,1,0
61404605997,-1,-3,0,-2,-3,-1,-2,0
61404627073,-1,0,0,-2,0,-1,-2,2
61404627073,0,0,0,-1,-1,-1,0,-1
61404628574,0,1,-1,0,-1,0,-2,0
61404628574,-1,0,1,0,0,0,1,-1
61404649609,0,-1,-1,-2,-1,-3,-2,-2
61404649609,0,-2,0,-1,-1,4,-1,1
61404651003,-1,-2,1,0,-1,-2,-1,0
61404651003,-1,-1,-4,-2,1,-1,-1,-3
61404664611,-1,-1,-3,-1,-2,-1,0,-3
61404664611,0,0,-1,0,-1,-2,-1,0
61404666099,1,-1,0,-1,-1,-2,-4,-1
61404666099,-1,0,-1,-3,-1,0,1,1
