61643077900,-0.720458984375,0.648315429688,-0.114379882812,-0.218200683594
61643099215,-0.720397949219,0.648315429688,-0.114440917969,-0.21826171875
61643114245,-0.721557617188,0.649108886719,-0.111389160156,-0.213684082031
61643138003,-0.721130371094,0.648803710938,-0.112548828125,-0.21533203125
61643160399,-0.720764160156,0.648559570312,-0.113586425781,-0.216674804688
61643175403,-0.720764160156,0.648620605469,-0.113647460938,-0.216430664062
61643196764,-0.722412109375,0.649841308594,-0.109741210938,-0.209411621094
61643220434,-0.722717285156,0.650085449219,-0.108825683594,-0.208068847656
61643274427,-0.722229003906,0.649658203125,-0.109558105469,-0.210510253906
61643275215,-0.720336914062,0.648376464844,-0.114196777344,-0.218383789062
61643276885,-0.720031738281,0.648193359375,-0.115112304688,-0.219482421875
61643296155,-0.720092773438,0.648254394531,-0.115112304688,-0.219116210938
61643313064,-0.719909667969,0.648620605469,-0.114929199219,-0.21875
61643331677,-0.719848632812,0.6484375,-0.115295410156,-0.21923828125
61643355333,-0.719848632812,0.6484375,-0.115356445312,-0.21923828125
61643384162,-0.719848632812,0.6484375,-0.115356445312,-0.21923828125
61643396530,-0.719787597656,0.648498535156,-0.115356445312,-0.219421386719
61643414734,-0.718811035156,0.648498535156,-0.116516113281,-0.221740722656
61643429096,-0.718688964844,0.649108886719,-0.1162109375,-0.220458984375
61643451578,-0.718078613281,0.64892578125,-0.118225097656,-0.222045898438
61643474135,-0.718994140625,0.649658203125,-0.116455078125,-0.217895507812
61643489060,-0.720764160156,0.651062011719,-0.111633300781,-0.210083007812
61643511461,-0.721496582031,0.651611328125,-0.109008789062,-0.207275390625
61643533972,-0.720336914062,0.650756835938,-0.111389160156,-0.212707519531
61643549094,-0.718444824219,0.649475097656,-0.116149902344,-0.220397949219
61643571473,-0.718322753906,0.6494140625,-0.116516113281,-0.220642089844
61643594074,-0.719970703125,0.650634765625,-0.112731933594,-0.213562011719
61643609161,-0.720153808594,0.650268554688,-0.11279296875,-0.214111328125
61643631562,-0.720153808594,0.650024414062,-0.112915039062,-0.214599609375
61643654127,-0.720092773438,0.650146484375,-0.112731933594,-0.214782714844
61643668945,-0.719909667969,0.650268554688,-0.112609863281,-0.214965820312
61643691592,-0.719787597656,0.650390625,-0.112548828125,-0.215087890625
61643714111,-0.7197265625,0.650390625,-0.112609863281,-0.215148925781
61643729113,-0.7197265625,0.650390625,-0.112609863281,-0.215148925781
61643751559,-0.7197265625,0.650390625,-0.112609863281,-0.215148925781
61643774172,-0.7197265625,0.650390625,-0.112670898438,-0.215209960938
61643790445,-0.719604492188,0.650451660156,-0.112426757812,-0.215454101562
61643811651,-0.719482421875,0.650573730469,-0.112243652344,-0.215637207031
61643833965,-0.719360351562,0.650756835938,-0.112060546875,-0.2158203125
61643850420,-0.719177246094,0.650939941406,-0.111877441406,-0.2158203125
61643871618,-0.719055175781,0.651123046875,-0.111694335938,-0.215881347656
61643894102,-0.718872070312,0.651245117188,-0.111511230469,-0.215942382812
61643910453,-0.71875,0.651428222656,-0.111389160156,-0.215942382812
61643931589,-0.718627929688,0.651550292969,-0.111145019531,-0.216064453125
61643953936,-0.718505859375,0.651672363281,-0.111083984375,-0.216125488281
61643976599,-0.718444824219,0.651794433594,-0.111022949219,-0.216064453125
61643991592,-0.718444824219,0.65185546875,-0.111022949219,-0.215942382812
61644013993,-0.718383789062,0.651916503906,-0.110961914062,-0.216003417969
61644030404,-0.718322753906,0.651977539062,-0.110778808594,-0.216064453125
61644051671,-0.718200683594,0.652099609375,-0.110534667969,-0.216247558594
61644074079,-0.718078613281,0.652221679688,-0.110229492188,-0.216491699219
61644090416,-0.717895507812,0.652404785156,-0.109985351562,-0.216735839844
61644111567,-0.7177734375,0.652526855469,-0.109619140625,-0.216918945312
61644142216,-0.717651367188,0.652648925781,-0.109313964844,-0.216979980469
61644150495,-0.717590332031,0.652770996094,-0.109069824219,-0.217041015625
61644171437,-0.717468261719,0.652954101562,-0.108825683594,-0.217041015625
61644194187,-0.717346191406,0.653076171875,-0.108642578125,-0.217102050781
61644211876,-0.717224121094,0.653198242188,-0.108459472656,-0.21728515625
61644231565,-0.717102050781,0.653259277344,-0.108276367188,-0.217529296875
61644253997,-0.716979980469,0.6533203125,-0.108215332031,-0.2177734375
61644271853,-0.716918945312,0.653381347656,-0.108032226562,-0.217956542969
61644291472,-0.716857910156,0.653442382812,-0.10791015625,-0.218078613281
61644314097,-0.716857910156,0.653381347656,-0.107971191406,-0.218078613281
61644331914,-0.716857910156,0.653381347656,-0.107971191406,-0.218139648438
61644351582,-0.716796875,0.653381347656,-0.107788085938,-0.218383789062
61644374801,-0.716796875,0.653381347656,-0.107421875,-0.218688964844
61644391108,-0.716735839844,0.6533203125,-0.106994628906,-0.219177246094
61644413595,-0.716674804688,0.6533203125,-0.106567382812,-0.219665527344
61644434676,-0.716674804688,0.653259277344,-0.106262207031,-0.220031738281
61644451089,-0.716735839844,0.653076171875,-0.105895996094,-0.220458984375
61644473662,-0.716857910156,0.65283203125,-0.105590820312,-0.220825195312
61644494789,-0.716918945312,0.652770996094,-0.105285644531,-0.221069335938
61644511104,-0.716857910156,0.65283203125,-0.104858398438,-0.221313476562
61644533522,-0.716735839844,0.652954101562,-0.104309082031,-0.221496582031
61644554781,-0.716796875,0.653015136719,-0.103759765625,-0.221374511719
61644571097,-0.716918945312,0.653198242188,-0.102600097656,-0.221130371094
61644593554,-0.716857910156,0.653564453125,-0.100952148438,-0.220886230469
61644614738,-0.716735839844,0.653991699219,-0.0991821289062,-0.220886230469
61644630394,-0.716674804688,0.654479980469,-0.097412109375,-0.220581054688
61644653597,-0.716369628906,0.655212402344,-0.0950317382812,-0.220153808594
61644676072,-0.716125488281,0.656311035156,-0.0919799804688,-0.218933105469
61644690411,-0.715942382812,0.657836914062,-0.0892333984375,-0.216125488281
61644713562,-0.715942382812,0.659423828125,-0.0865478515625,-0.21240234375
61644736087,-0.716369628906,0.660888671875,-0.083251953125,-0.207641601562
61644750418,-0.716369628906,0.663208007812,-0.078369140625,-0.2021484375
61644773317,-0.715454101562,0.666625976562,-0.0717163085938,-0.196350097656
61644796058,-0.714294433594,0.670959472656,-0.0637817382812,-0.188598632812
61644817185,-0.713562011719,0.67529296875,-0.0541381835938,-0.178649902344
61644833620,-0.713134765625,0.679870605469,-0.0419921875,-0.165832519531
61644856065,-0.71240234375,0.684509277344,-0.0276489257812,-0.152465820312
61644877239,-0.711181640625,0.689270019531,-0.010498046875,-0.138000488281
61644893583,-0.710205078125,0.693481445312,0.0081787109375,-0.121154785156
61644916093,-0.70947265625,0.696838378906,0.027587890625,-0.101257324219
61644937573,-0.708984375,0.699157714844,0.0477294921875,-0.0786743164062
61644953582,-0.708190917969,0.700500488281,0.0689086914062,-0.0543823242188
61644976085,-0.706970214844,0.700744628906,0.0912475585938,-0.02880859375
61644997125,-0.705078125,0.699951171875,0.113586425781,-0.00103759765625
61645013619,-0.702453613281,0.698059082031,0.136291503906,0.0266723632812
61645036040,-0.699035644531,0.695007324219,0.159362792969,0.0540771484375
61645057239,-0.694885253906,0.690856933594,0.182250976562,0.0813598632812
61645073538,-0.690002441406,0.685852050781,0.204284667969,0.108337402344
61645096077,-0.683715820312,0.6806640625,0.225219726562,0.135803222656
61645117225,-0.676452636719,0.675476074219,0.243041992188,0.164672851562
61645133559,-0.668579101562,0.670166015625,0.258972167969,0.191650390625
61645156066,-0.660705566406,0.6640625,0.274719238281,0.216857910156
61645177270,-0.653564453125,0.656616210938,0.290283203125,0.239685058594
61645193565,-0.647216796875,0.648620605469,0.304504394531,0.260131835938
61645216039,-0.641540527344,0.640380859375,0.316528320312,0.279357910156
61645237301,-0.636169433594,0.632995605469,0.326599121094,0.296508789062
61645253586,-0.63134765625,0.626708984375,0.334411621094,0.31103515625
61645276033,-0.627624511719,0.621765136719,0.340209960938,0.322021484375
61645297199,-0.625061035156,0.616760253906,0.345642089844,0.330810546875
61645313541,-0.623352050781,0.6123046875,0.349792480469,0.337829589844
61645336089,-0.6220703125,0.608947753906,0.352233886719,0.343688964844
61645357205,-0.621398925781,0.606323242188,0.353393554688,0.348327636719
61645373597,-0.620971679688,0.604858398438,0.35400390625,0.35107421875
61645396090,-0.620727539062,0.604370117188,0.35400390625,0.352172851562
61645417349,-0.621032714844,0.604187011719,0.353881835938,0.352111816406
61645432908,-0.621643066406,0.604309082031,0.353332519531,0.351379394531
61645456019,-0.622375488281,0.604370117188,0.352661132812,0.350646972656
61645477186,-0.622985839844,0.604614257812,0.351806640625,0.349975585938
61645493559,-0.62353515625,0.604797363281,0.3515625,0.348999023438
61645516067,-0.624084472656,0.604919433594,0.351745605469,0.347717285156
61645537112,-0.624755859375,0.6044921875,0.351867675781,0.346923828125
61645553539,-0.625549316406,0.604125976562,0.3515625,0.346496582031
61645576054,-0.626098632812,0.604064941406,0.351013183594,0.346252441406
61645598507,-0.626708984375,0.604125976562,0.3505859375,0.345397949219
61645613491,-0.627319335938,0.604248046875,0.350524902344,0.344177246094
61645636117,-0.627990722656,0.604125976562,0.350463867188,0.343200683594
61645658541,-0.628540039062,0.603942871094,0.350280761719,0.3427734375
61645673614,-0.629333496094,0.603637695312,0.350036621094,0.342041015625
61645696062,-0.629943847656,0.603515625,0.349914550781,0.341247558594
61645718527,-0.63037109375,0.603332519531,0.349853515625,0.340881347656
61645733610,-0.630737304688,0.603088378906,0.349792480469,0.340637207031
61645756086,-0.631042480469,0.60302734375,0.349670410156,0.340270996094
61645778618,-0.631408691406,0.603149414062,0.349487304688,0.339599609375
61645792905,-0.631896972656,0.603271484375,0.349304199219,0.338684082031
61645816066,-0.632202148438,0.603393554688,0.34912109375,0.338134765625
61645838554,-0.632202148438,0.603454589844,0.349060058594,0.338073730469
61645852868,-0.632507324219,0.603332519531,0.348693847656,0.338073730469
61645876093,-0.632690429688,0.603149414062,0.348510742188,0.338195800781
61645898538,-0.6328125,0.603088378906,0.348510742188,0.338073730469
61645913354,-0.632934570312,0.603088378906,0.3486328125,0.337829589844
61645936026,-0.632995605469,0.603271484375,0.348510742188,0.337524414062
61645958585,-0.632995605469,0.603271484375,0.348449707031,0.337463378906
61645972891,-0.63330078125,0.603515625,0.348083496094,0.336975097656
61645996046,-0.633483886719,0.603759765625,0.34765625,0.336547851562
61646018585,-0.633483886719,0.603820800781,0.347595214844,0.336486816406
61646032909,-0.633544921875,0.603942871094,0.34765625,0.336059570312
61646056043,-0.633544921875,0.604125976562,0.347473144531,0.335998535156
61646078603,-0.633422851562,0.604370117188,0.347412109375,0.335876464844
61646099691,-0.633422851562,0.604431152344,0.347351074219,0.335815429688
61646116093,-0.633666992188,0.604675292969,0.346740722656,0.335571289062
61646144710,-0.634399414062,0.605102539062,0.345336914062,0.334777832031
61646159719,-0.635864257812,0.605712890625,0.343017578125,0.333312988281
61646175424,-0.638244628906,0.606567382812,0.339721679688,0.330444335938
61646198562,-0.64208984375,0.607604980469,0.335571289062,0.325317382812
61646219670,-0.646789550781,0.609313964844,0.330261230469,0.318359375
61646236059,-0.65234375,0.611389160156,0.323791503906,0.309509277344
61646258569,-0.658386230469,0.614196777344,0.316284179688,0.298645019531
61646279715,-0.664855957031,0.617370605469,0.3076171875,0.28662109375
61646296037,-0.672058105469,0.620666503906,0.298278808594,0.272155761719
61646318582,-0.679870605469,0.624938964844,0.287536621094,0.254028320312
61646339594,-0.688171386719,0.629760742188,0.275085449219,0.232666015625
61646356036,-0.697082519531,0.634582519531,0.26025390625,0.208923339844
61646378557,-0.706481933594,0.638732910156,0.24365234375,0.18310546875
61646399714,-0.715087890625,0.642761230469,0.225830078125,0.156494140625
61646415437,-0.72216796875,0.647277832031,0.206481933594,0.129760742188
61646438519,-0.727905273438,0.652221679688,0.184936523438,0.102783203125
61646459551,-0.73291015625,0.656555175781,0.161865234375,0.0743408203125
61646475791,-0.736755371094,0.660278320312,0.138610839844,0.045166015625
61646498513,-0.738647460938,0.663757324219,0.116394042969,0.0160522460938
61646519706,-0.739318847656,0.66650390625,0.09521484375,-0.0123291015625
61646535452,-0.739074707031,0.668395996094,0.0740356445312,-0.03955078125
61646558575,-0.73779296875,0.669616699219,0.053955078125,-0.0660400390625
61646581018,-0.735107421875,0.671020507812,0.0346069335938,-0.0903930664062
61646595425,-0.731689453125,0.672302246094,0.0155029296875,-0.111328125
61646618565,-0.728271484375,0.672912597656,-0.00250244140625,-0.129760742188
61646641037,-0.725036621094,0.672729492188,-0.02001953125,-0.14599609375
61646655362,-0.721801757812,0.672241210938,-0.0361938476562,-0.160766601562
61646678513,-0.718505859375,0.671630859375,-0.0510864257812,-0.173400878906
61646701039,-0.715698242188,0.671081542969,-0.0637817382812,-0.182495117188
61646723516,-0.713684082031,0.669982910156,-0.0740966796875,-0.190490722656
61646738565,-0.712097167969,0.668212890625,-0.08251953125,-0.19921875
61646767159,-0.710388183594,0.666137695312,-0.0892333984375,-0.208801269531
61646782235,-0.708923339844,0.6640625,-0.0948486328125,-0.2177734375
61646798533,-0.7080078125,0.662109375,-0.0997314453125,-0.224609375
61646821051,-0.707946777344,0.660705566406,-0.1015625,-0.22802734375
61646842214,-0.708618164062,0.661987304688,-0.100952148438,-0.222412109375
61646858549,-0.706359863281,0.666442871094,-0.0956420898438,-0.218566894531
61646880994,-0.702758789062,0.669799804688,-0.09033203125,-0.22216796875
61646902119,-0.701293945312,0.670654296875,-0.088623046875,-0.225036621094
61646918538,-0.700500488281,0.670654296875,-0.0889892578125,-0.227294921875
61646941013,-0.699829101562,0.670471191406,-0.0921020507812,-0.228698730469
61646962035,-0.700378417969,0.669311523438,-0.0972900390625,-0.22802734375
61646978468,-0.701843261719,0.667846679688,-0.102966308594,-0.225524902344
61647000988,-0.703186035156,0.66650390625,-0.107604980469,-0.223022460938
61647022071,-0.704223632812,0.665466308594,-0.111145019531,-0.22119140625
61647038482,-0.704956054688,0.664672851562,-0.113342285156,-0.220031738281
61647061018,-0.705139160156,0.664367675781,-0.113891601562,-0.220092773438
61647082061,-0.704772949219,0.664489746094,-0.113220214844,-0.221313476562
61647098488,-0.704162597656,0.664794921875,-0.111877441406,-0.223083496094
61647121017,-0.70361328125,0.665100097656,-0.110534667969,-0.224548339844
61647142058,-0.703125,0.665466308594,-0.10986328125,-0.225219726562
61647158524,-0.702819824219,0.665832519531,-0.109924316406,-0.225158691406
