61608265011,0,-2,-2,-1,0,-1,0,0
61608265011,0,-1,0,-2,0,-2,-1,0
61608265751,-1,0,-2,-1,-1,0,-1,-1
61608265751,-1,0,0,-2,0,-1,-3,0
61608266510,-2,0,0,-2,0,-1,-2,0
61608266510,-1,-2,-1,-1,0,-1,0,-1
61608267314,0,-2,2,0,-1,-2,-1,0
61608267314,0,0,0,2,-1,-6,-3,0
61608272559,-1,1,1,0,-1,1,-1,0
61608272559,-2,-1,0,0,-1,-3,-1,-1
61608286738,-1,-2,-2,-1,-1,0,-2,0
61608286738,0,0,-3,-2,-2,-1,0,-2
61608292367,1,0,-1,-3,-1,-2,-2,0
61608292367,-2,0,0,0,-2,0,0,-1
61608308094,-1,0,0,-2,0,-4,-1,-2
61608308094,-1,-1,0,0,0,0,-2,-2
61608316058,-1,0,0,-1,0,0,-2,-1
61608316058,0,-1,0,0,-2,1,0,2
61608331081,-2,0,-1,-2,-1,0,-1,-1
61608331081,-3,-1,0,-1,-1,0,0,1
61608338828,0,-2,-1,-1,0,-3,0,-2
61608338828,-2,-1,-2,-2,-1,0,-1,0
61608352218,-1,-1,0,-1,0,-15,-1,-2
61608352218,1,-1,0,-1,1,2,0,-2
61608393819,-2,0,-2,-1,0,-7,-4,-2
61608393819,-2,0,-2,-2,-1,4,0,1
61608394675,-1,-1,1,-2,0,-2,-1,0
61608394675,0,-1,-2,-2,-1,-3,-2,-2
61608397798,1,-1,1,-1,0,4,3,-1
61608397798,-1,-1,-2,-2,-1,-2,-1,0
61608398502,1,0,-1,0,0,-2,-1,-1
61608398502,-2,-1,0,0,-1,5,-1,1
61608405346,-1,-2,1,-1,1,-2,1,0
61608405346,-1,0,0,-1,0,-1,0,0
61608412129,-3,0,-2,1,-1,2,1,2
61608412129,0,-1,-1,-2,0,-3,0,2
61608419632,-1,0,0,-1,-1,0,-2,0
61608419632,-1,-1,1,-1,0,-2,-1,-1
61608434479,-1,-2,-2,1,0,-4,-3,-2
61608434479,-1,0,-1,0,-1,-1,-1,0
61608442904,-1,-2,-1,-2,-2,0,-2,-2
61608442904,-1,0,-1,-1,-1,-3,-1,-1
61608466000,0,-1,-1,-3,-1,0,1,-1
61608466000,-1,0,-2,1,-1,-3,-1,2
61608466656,-1,1,-2,-1,0,0,-2,1
61608466656,-1,1,-2,-1,-1,-3,-1,1
61608480312,-1,1,-1,0,-1,1,-1,0
61608480312,-2,-1,0,-1,-1,3,-1,0
61608480938,-1,-2,-1,-1,0,-16,0,0
61608480938,1,0,0,-1,-2,-1,0,-1
61608503505,0,-1,-1,-2,1,-1,0,0
61608503505,-2,-1,-2,0,1,-4,-1,-2
61608504220,-2,0,-1,0,1,6,-2,-1
61608504220,-1,-1,0,1,-1,-3,-2,0
61608525955,-2,0,-2,-2,1,1,-1,0
61608525955,-1,0,-1,-1,-1,-4,-2,0
61608526636,-1,0,-1,-1,-1,-1,0,-1
61608526636,-1,0,-1,-1,-2,1,1,-1
61608540296,-1,0,1,2,0,-1,-4,-2
61608540296,-2,-1,-2,-6,-2,-2,-1,-4
61608540993,1,-1,-2,-3,-2,0,-1,-2
61608540993,-2,-5,-3,0,-1,-2,-1,-1
61608563412,-3,-3,-4,-1,-3,-4,-2,-3
61608563412,0,-1,-1,0,-1,-1,-1,-2
61608564235,-1,-3,-1,1,-1,-2,-4,0
61608564235,-2,-1,-3,-3,-1,-2,-1,-1
61608586353,-1,-3,-1,0,-2,-2,-1,-2
61608586353,-2,-2,-3,-1,-2,2,-1,-2
61608587084,-1,0,-1,-3,-2,0,2,-1
61608587084,-2,-1,-1,1,-2,0,-4,-2
61608600239,-1,0,-2,-2,-1,-1,-1,-4
61608600239,-1,0,0,-2,0,-3,0,-1
61608600960,0,-3,-2,0,-1,-3,-4,-2
61608600960,-2,-1,-1,-2,2,11,0,-1
61608623439,-1,-1,0,-2,-3,-22,-4,-3
61608623439,0,0,-1,0,1,1,0,-1
61608624185,-1,-2,-2,0,-2,3,0,-1
61608624185,1,-1,-1,1,-2,-5,-1,0
61608645977,0,-3,-1,-1,-2,4,-1,-3
61608645977,-1,-1,0,-1,-1,-2,0,0
61608646717,0,0,-2,-1,-1,-4,0,0
61608646717,0,0,-1,-1,-2,-1,-2,-1
61608660291,-2,0,-1,-2,-1,4,0,-1
61608660291,0,-3,0,-1,-1,-2,-1,-3
61608660983,-1,0,-2,-1,-2,1,-1,-2
61608660983,0,-2,0,-3,0,-4,-1,0
61608683430,0,-1,1,-1,-1,0,0,1
61608683430,-1,-1,-2,-2,-1,7,-1,-2
61608684195,-2,-3,-1,1,-1,-2,-1,-2
61608684195,1,-2,-1,-1,-2,-3,0,1
61608705990,0,0,-1,0,-1,1,0,0
61608705990,0,-2,-3,-2,-2,-2,-1,0
61608706690,-1,0,-1,-2,-1,2,-1,-2
61608706690,-2,0,0,-3,0,-4,-2,-5
61608720308,0,-2,-1,-1,-1,4,-1,0
61608720308,0,-3,0,1,-1,-3,0,-1
61608720988,-2,-3,-2,0,-1,0,0,-1
61608720988,-3,-1,0,0,0,-5,0,-1
61608743465,-2,-1,0,-3,0,0,-2,-2
61608743465,1,1,0,0,-1,-2,0,1
61608744184,1,1,0,-2,-2,4,0,2
61608744184,-1,-2,0,-2,0,-21,-4,-2
61608765985,-2,-3,-2,-1,0,7,2,0
61608765985,-4,1,-2,1,-1,1,-1,-1
61608766678,-1,-1,-1,-1,-2,-3,-2,-1
61608766678,-1,-2,0,0,-1,7,2,2
61608780309,-1,-1,-1,0,-2,-5,-1,-1
61608780309,0,-2,-3,-1,0,-1,-1,-1
61608781007,-2,-1,-1,-2,-1,0,2,-1
61608781007,-1,-1,-1,2,-2,1,-2,-1
61608803455,-1,-1,0,1,-2,-1,4,0
61608803455,-1,-1,-1,-1,-1,-7,-2,-3
61608804165,-2,-1,0,1,-1,1,-4,-2
61608804165,1,0,-1,-2,0,6,3,-2
61608825978,0,1,-2,-1,-1,-5,-1,1
61608825978,0,0,0,-1,-2,-3,-4,-1
61608826717,-2,-2,-1,-1,0,-1,0,-1
61608826717,-4,-1,-2,-2,-1,-1,-3,-1
61608840261,-2,-2,0,-1,-3,1,-4,-1
61608840261,-1,-2,0,0,-1,1,-2,0
61608840957,0,-1,-1,-1,0,-1,2,-2
61608840957,1,1,0,-2,-2,2,2,0
61608863490,1,-2,-3,-2,-2,-17,-6,0
61608863490,-3,-1,-3,-2,-2,13,2,-3
61608864166,0,-1,0,-1,0,-2,-6,0
61608864166,-2,-2,-2,2,-2,-1,1,-3
61608886012,1,0,-1,0,2,-12,0,0
61608886012,0,-1,-1,0,-1,0,7,-1
61608886688,-4,-2,-2,-1,0,-5,-16,-3
61608886688,-2,0,-2,-2,0,5,3,1
61608899636,-1,-1,-2,-1,-1,1,-2,-1
61608899636,-1,-1,0,-2,0,-6,6,0
61608907988,0,-2,-1,-2,-1,-2,1,-1
61608907988,-3,-1,-1,0,0,4,28,1
61608923549,-1,-1,-1,-2,-4,-3,-20,-12
61608923549,3,2,0,-1,1,-1,-6,6
61608924161,-2,-1,-1,-2,-2,0,-9,-2
61608924161,-1,-2,0,-2,0,-3,-2,0
61608945958,-1,-3,-2,-2,1,-2,13,2
61608945958,1,1,1,-1,0,22,-24,-5
61608946641,4,0,1,1,-2,-4,-19,3
61608946641,2,-2,-1,1,2,-1,-10,3
61608960110,-2,-1,-1,-1,1,-7,16,0
61608960110,-2,-4,-1,0,-3,-15,-23,-2
61608968544,-10,0,-1,-2,1,22,12,-5
61608968544,-2,0,-1,-1,-2,6,15,-1
61608982245,10,3,0,1,-1,-1,-47,1
61608982245,-4,-1,-3,-1,0,0,-8,1
61608991026,3,-1,0,1,-1,-21,-23,-4
61608991026,-8,-4,-5,-2,-1,-2,-18,-6
61609006004,-10,-5,-2,-2,-1,-9,15,-4
61609006004,1,-3,1,-1,1,1,26,8
61609007490,-2,-1,0,0,-5,-10,18,8
61609007490,0,0,1,1,-1,-8,-81,-19
61609019576,-1,-3,0,1,1,9,36,8
61609019576,-4,-3,-2,-2,1,-15,-25,-14
61609028518,8,2,-2,-2,1,9,45,7
61609028518,0,2,0,0,-1,17,-1,9
61609042209,5,-1,-2,0,0,4,23,-2
61609042209,-15,-2,-4,-2,-4,-8,-39,-16
61609051000,-3,-2,-1,0,0,5,5,-4
61609051000,7,0,0,-2,5,-11,13,7
61609065938,0,-4,1,-1,-11,14,-17,-2
61609065938,8,5,-2,0,0,2,42,11
61609067480,-5,-1,-1,0,-1,-8,-2,-7
61609067480,-3,-4,-3,-5,-8,-2,10,2
61609079536,-2,5,0,0,11,7,7,-6
61609079536,-3,-7,0,1,2,-7,-33,-1
61609088552,2,2,-1,0,13,5,19,1
61609088552,2,0,2,3,7,-2,-13,9
61609102849,-1,-2,0,-4,-8,5,-27,-3
61609102849,-7,3,-1,-2,-18,-64,25,-3
61609109680,7,1,0,-2,-11,34,1,4
61609109680,-3,-2,-3,-1,5,23,31,-18
61609125887,0,-2,-3,-3,5,-17,-18,23
61609125887,-1,-1,0,1,5,9,-17,-16
61609127497,-3,-4,-2,0,-5,-26,-13,4
61609127497,-4,-4,-2,-2,2,-21,45,3
61609139556,-4,3,0,2,-1,18,-34,-9
61609139556,9,1,2,-1,1,18,-42,10
61609148528,0,-3,-1,-1,13,-17,10,3
61609148528,0,2,2,2,-6,10,-24,-9
61609162821,-5,-1,-3,-4,-4,-10,7,-4
61609162821,-1,-2,0,-5,-8,14,38,2
61609169607,3,-2,-1,-4,0,-2,8,3
61609169607,-2,-1,-1,0,-4,-13,-31,-1
61609185961,-6,-7,-3,3,11,26,18,-5
61609185961,-7,1,-1,1,10,-7,9,-7
61609187485,9,6,4,0,6,14,-6,8
61609187485,5,6,2,3,5,-3,30,-15
61609199648,0,-3,-2,-9,-58,-37,-39,3
61609199648,-5,-7,-6,-6,6,29,9,1
61609208555,-5,-2,-4,1,3,13,2,-2
61609208555,-2,-3,-2,-4,-2,20,23,10
61609222849,4,5,3,3,8,18,-22,-12
61609222849,-6,-5,-3,5,12,-15,16,2
61609229767,-4,0,-3,-5,-15,0,-7,-7
61609229767,6,1,-1,-4,4,-7,-13,18
61609246061,-6,-4,-2,4,9,-2,43,4
61609246061,2,1,-1,-6,-11,14,-9,-11
61609247497,2,-1,0,2,3,-7,53,2
61609247497,4,3,1,1,-11,-3,-57,-9
61609268483,-6,-3,-4,-1,19,-31,-16,1
61609268483,-4,-1,2,0,-31,17,-13,2
61609269987,-1,-3,-3,0,22,-4,10,-2
61609269987,-2,-4,-4,-9,-17,-4,8,4
61609282835,-4,-3,0,4,-1,-15,21,-9
61609282835,13,1,4,10,27,-22,-6,23
61609289663,-7,-3,-1,-10,-35,19,-25,-8
61609289663,-3,-2,-2,3,4,-10,42,8
61609305963,4,3,4,-1,17,25,-36,-13
61609305963,-5,-2,-2,-3,-6,-4,27,-7
61609307449,-3,-1,0,1,3,-9,-22,2
61609307449,-6,-3,-6,-6,-12,-15,-15,-4
61609328486,2,-2,-1,-1,-20,4,36,20
61609328486,3,1,1,-6,-6,-2,5,2
61609329965,-6,0,3,3,13,-8,-40,-19
61609329965,0,-1,-2,-5,0,-4,-61,0
61609342088,2,-1,-3,-5,-4,-3,15,-5
61609342088,-1,1,1,8,16,4,11,-3
61609351002,0,0,-1,-1,-14,-1,-32,6
61609351002,-5,-3,-1,0,23,4,65,0
61609364664,0,3,0,-3,0,6,-6,2
61609364664,5,1,3,-1,-12,-7,3,7
61609373497,-6,-4,-3,9,10,-2,19,-4
61609373497,5,2,1,2,-21,7,-4,-5
61609387716,-3,-4,-2,-6,5,-15,1,11
61609387716,5,1,-4,-10,-15,28,57,0
61609394553,-4,-4,-3,0,2,-19,-92,-16
61609394553,-9,-4,-1,5,7,-57,12,-6
61609411011,5,2,1,3,13,24,-2,6
61609411011,-3,-4,-1,1,8,-23,17,1
61609412494,-1,-4,-5,-20,-50,22,31,-3
61609412494,4,1,3,5,5,-11,-35,0
61609424613,-7,-2,-3,0,14,11,33,-10
61609424613,-13,-6,-5,-3,-3,-36,-86,-19
61609433527,8,4,2,5,-1,-8,37,5
61609433527,4,1,0,-7,5,19,-6,9
61609448553,0,2,-1,-11,-44,12,35,6
61609448553,-8,-2,-1,-3,-2,12,-32,-27
61609449956,2,0,-3,-6,7,-27,20,22
61609449956,-3,-2,-3,8,26,23,17,-2
61609470967,-6,-4,-4,-8,-20,-18,-14,-9
61609470967,4,1,-2,-3,6,18,1,-4
61609472449,5,3,6,5,3,-44,-22,24
61609472449,1,-1,-4,-5,2,41,41,-9
61609484681,-9,-6,-2,19,56,-12,-27,-9
61609484681,0,-1,-3,-19,-63,-2,13,3
61609493520,-3,2,3,2,3,3,-8,7
61609493520,1,2,0,1,-7,10,-97,3
61609508536,-2,0,-6,-12,1,3,35,-16
61609508536,2,3,7,23,31,3,-42,4
61609510005,-5,-6,-9,-11,-7,16,10,11
61609510005,-5,-6,-4,-9,-31,-43,20,-20
61609530829,9,1,4,6,3,19,-31,1
61609530829,0,1,-4,-4,17,-10,37,7
61609532453,-11,-3,2,17,22,26,11,1
61609532453,1,0,-2,-6,-14,-12,15,5
61609544659,3,0,3,0,-4,-23,10,6
61609544659,-6,-5,-4,0,7,16,8,-10
61609553498,1,1,0,1,-13,-11,7,-9
61609553498,-3,1,-1,-7,-24,6,-18,-20
61609567870,5,-2,-4,-5,7,2,10,-7
61609567870,-4,-5,0,2,6,-14,-11,10
61609574634,3,-3,-3,-2,15,36,13,-25
61609574634,-5,-1,3,11,15,-6,13,1
61609591107,6,2,-5,-19,-21,-21,-25,8
61609591107,-3,1,2,10,9,21,-23,-24
61609592490,1,-1,1,2,16,-15,26,17
61609592490,-2,-3,0,-3,-25,0,18,-3
61609604586,-8,-4,-1,7,8,2,-23,-12
61609604586,0,-1,-4,-12,-17,15,46,8
61609613521,-6,-2,-2,-3,-12,-11,-36,-13
61609613521,5,0,-3,1,22,26,22,12
61609627760,1,3,0,1,-5,-22,-44,5
61609627760,2,-3,0,2,7,-6,-4,4
61609634630,-6,-4,-4,-3,-13,-8,9,1
61609634630,1,-1,-1,-1,-1,-7,55,7
61609650964,-7,-4,-6,-10,-23,-24,-70,-23
61609650964,2,3,-1,5,16,-52,22,16
61609652480,11,5,0,1,23,26,9,8
61609652480,-9,-5,-2,2,-15,19,-8,-5
61609664611,2,2,6,3,13,-13,31,4
61609664611,2,2,2,0,-19,-3,1,4
61609673488,-4,-3,-3,-10,-4,-9,4,-15
61609673488,0,2,2,1,-10,-20,-20,-3
61609688432,-2,0,-3,0,11,41,27,8
61609688432,-7,-5,-8,-11,-29,-23,-51,-8
61609696109,-4,-2,-2,0,13,1,-1,-17
61609696109,9,2,-1,0,24,18,-10,10
61609710940,-4,-1,-1,1,-23,-26,13,-5
61609710940,3,-2,-3,-8,1,4,8,5
61609712441,-1,-3,-2,5,7,2,-17,8
61609712441,-3,-4,-3,-8,-14,-23,-10,-10
61609724612,0,3,5,12,25,-18,-2,1
61609724612,5,1,-1,-4,-14,8,51,9
61609733528,-6,-2,-5,-5,-1,-20,-25,-6
61609733528,-3,-3,-1,-5,-26,-8,-17,-4
61609747965,0,-3,-1,1,11,27,11,2
61609747965,3,3,2,6,9,11,-13,2
61609754608,-4,-1,0,1,-10,-15,-10,-14
61609754608,-6,-2,-5,-5,21,29,18,6
61609771083,-1,0,0,0,5,12,35,-9
61609771083,-1,-3,-2,-7,-13,-11,-50,-20
61609772473,6,3,2,1,3,20,26,6
61609772473,-3,-1,-3,-1,-6,-27,-30,1
61609793462,-11,-5,-4,-1,0,-6,27,5
61609793462,-6,-3,0,-3,-5,27,7,-11
61609794933,6,-1,0,-2,2,-1,6,8
61609794933,4,1,2,0,4,1,34,-1
61609807856,-3,-2,-1,-6,-14,-14,-21,-1
61609807856,1,0,4,8,16,-8,2,-3
61609814638,-4,-4,-3,-4,-7,8,44,0
61609814638,-5,-2,-2,-1,-2,2,-44,-2
61609830995,6,0,-3,1,-13,2,3,0
61609830995,-4,-1,-5,-2,10,26,0,11
61609832492,-6,-2,-1,-2,-5,-11,-9,-6
61609832492,5,1,0,3,6,-11,15,11
61609853509,3,3,4,2,8,34,6,3
61609853509,-5,-3,-2,1,-12,-27,-19,-7
61609854967,5,2,1,-2,-4,3,-9,-7
61609854967,0,-2,-2,-3,-17,-40,-1,-5
61609867756,2,0,2,-5,-4,5,-35,-4
61609867756,-1,1,0,4,21,39,22,6
61609874607,-3,1,0,1,3,-8,-19,-2
61609874607,-6,-3,-4,0,3,-10,5,3
61609891059,0,-1,-2,-4,-8,-2,-35,0
61609891059,3,0,0,3,17,-3,14,1
61609892452,-2,-1,-1,-9,-41,0,-33,3
61609892452,-5,-2,-2,1,7,11,-5,-12
61609913609,-2,0,-1,1,6,-3,31,7
61609913609,4,2,-1,-8,-26,-24,11,-4
61609914968,-1,-2,0,2,-1,10,-4,-15
61609914968,-7,-3,-2,-5,4,2,11,-1
61609927826,-1,-1,-3,-3,0,-14,-18,2
61609927826,0,0,1,1,1,2,20,-1
61609934597,2,2,0,1,-3,-15,9,4
61609934597,-8,-3,0,-1,1,7,4,-8
61609950934,1,-4,-4,-2,-4,0,6,10
61609950934,-1,-1,-2,-2,-14,-17,-9,5
61609952448,1,-2,-4,-4,-12,34,16,4
61609952448,-1,0,0,1,6,-28,-5,4
61609974033,3,4,3,5,12,73,-4,2
61609974033,-4,-4,-6,-6,-1,-37,-12,-1
61609975618,1,-1,-1,-1,-15,0,6,5
61609975618,5,1,1,-2,0,6,-18,-8
61609987842,-10,-5,-5,-4,-6,-5,35,-6
61609987842,4,2,2,5,13,-11,-13,-3
61609994676,3,-1,-3,-6,-1,-20,-8,4
61609994676,-3,-2,0,4,18,53,14,-10
61610010855,-1,-1,-1,-4,-21,-20,35,2
61610010855,-4,-2,1,1,18,14,-11,-6
61610012480,-3,1,1,0,-8,-22,-4,-3
61610012480,2,-1,-3,-5,-8,-4,-5,2
61610033358,-2,1,-2,-2,0,-4,0,-13
61610033358,-1,-3,-2,-1,-8,9,9,4
61610034999,2,0,2,3,34,18,8,-1
61610034999,0,0,0,-6,-25,-7,-20,-1
61610047804,-1,2,2,3,5,-13,-23,12
61610047804,3,-4,-5,-6,-11,3,18,-19
61610054585,-3,-3,-1,2,6,-28,-25,1
61610054585,1,0,0,1,2,14,-16,2
61610070987,-2,-3,-3,-2,3,-13,-11,-9
61610070987,0,1,3,3,-11,-1,0,4
61610072472,-8,-5,-2,-1,3,-6,-9,-10
61610072472,2,0,-1,1,9,-10,-7,4
61610093558,-1,-1,-2,-4,-23,-14,-4,-4
61610093558,-1,1,1,1,18,-20,-5,5
61610094936,-1,0,0,3,13,32,38,-3
61610094936,5,3,-2,-5,-27,-19,-51,1
61610107841,-1,-2,-3,2,12,8,10,5
61610107841,-1,-2,-3,-7,12,12,-15,7
61610114633,0,0,0,4,9,-13,4,2
61610114633,-9,-3,-1,3,-5,-27,21,-9
61610130997,10,2,2,0,1,29,17,5
61610130997,2,-2,-3,-4,-11,-2,-28,4
61610132557,-6,0,-3,-5,6,-6,-4,-7
61610132557,1,0,0,0,12,-9,18,7
61610153375,-6,-1,-2,-6,-20,-7,-38,-14
61610153375,-1,0,3,5,6,11,42,4
61610154983,0,-2,0,-1,-6,-2,-28,-4
61610154983,-4,-4,-3,4,8,37,11,-1
61610167753,4,1,1,-1,3,-22,7,5
61610167753,1,1,-2,0,9,5,21,2
61610174601,-1,0,-2,-4,-21,6,2,-6
61610174601,-2,0,-2,-8,-8,-6,-17,9
61610190884,-2,-3,0,7,16,0,-2,-15
61610190884,-7,0,-1,1,-3,-10,-11,-4
61610192440,4,-1,0,-3,-5,24,-30,11
61610192440,2,-1,-1,2,11,37,65,5
61610213438,-4,-4,-3,-2,1,-24,-83,-8
61610213438,-7,-3,-2,-1,-33,6,4,-2
61610214972,-2,-1,0,-2,7,-28,-15,-21
61610214972,6,2,3,0,6,44,12,3
61610227779,1,-1,1,2,0,2,18,6
61610227779,-2,0,2,1,14,16,7,-3
61610234545,2,1,-1,0,-19,-32,-4,7
61610234545,-3,-2,-2,-9,-19,3,-9,-6
61610250953,-3,-2,-2,-4,-5,-2,24,-3
61610250953,-4,-1,-1,-3,3,-16,-18,-5
61610252465,-1,1,0,-1,7,59,27,-3
61610252465,-6,-1,1,6,10,-23,5,0
61610273457,-2,-2,-5,-7,-20,5,-11,2
61610273457,-1,-1,-1,-1,3,7,36,0
61610274971,1,0,-1,-2,3,-5,-3,12
61610274971,0,0,0,7,12,-23,-7,-1
61610287123,-5,-3,1,-2,-8,5,6,-7
61610287123,5,3,1,-2,-15,13,-12,1
61610295999,-5,-2,-2,-2,-13,-42,1,-5
61610295999,3,2,-1,-1,5,-2,5,-3
61610310982,0,0,-1,0,10,-8,-27,7
61610310982,-1,0,0,2,3,-3,-16,-3
61610312487,-5,-2,-3,-6,-6,4,-7,-6
61610312487,0,1,0,-1,-10,14,10,3
61610333525,-2,-1,-2,-2,20,-18,-17,-6
61610333525,0,2,-1,-1,-10,-8,-13,0
61610334946,-6,-4,-4,2,18,40,-15,-4
61610334946,2,-1,0,-2,-25,-29,1,-5
61610347121,4,6,3,2,3,19,24,9
61610347121,0,-3,-1,4,15,-20,-14,-3
61610356022,7,3,1,-3,-16,9,26,8
61610356022,-8,-4,-3,-4,9,-29,-27,-8
61610371033,-5,-4,-4,-1,0,1,-6,2
61610371033,4,0,1,0,-4,16,3,13
61610372482,-8,-2,-1,0,7,-13,0,-1
61610372482,-3,-2,-1,-1,-6,18,10,-7
61610393408,1,1,1,-1,-8,2,2,-10
61610393408,-4,-3,-3,-3,4,-10,-13,8
61610394942,0,-4,-1,-2,-3,-7,-34,-5
61610394942,1,0,1,-2,14,0,22,2
61610407125,-12,-6,-5,-3,1,2,-37,-9
61610407125,-3,-2,-2,-3,-8,-27,6,-3
61610415977,4,1,2,5,-12,8,8,-5
61610415977,1,-1,-3,-1,6,35,-15,2
61610431028,-1,1,-1,0,4,-19,17,-3
61610431028,-3,-3,-1,-5,-17,-12,-5,-2
61610432502,-2,-2,-2,0,4,0,9,2
61610432502,0,-1,1,1,1,0,-17,-8
61610453437,4,2,1,-1,-10,-8,10,8
61610453437,-3,-2,-2,-2,4,10,-4,-6
61610454979,2,2,0,2,7,-1,36,5
61610454979,-5,-3,-1,0,-12,-18,-1,-5
61610467158,-6,-4,-2,-5,-12,2,8,1
61610467158,8,2,0,-1,2,-4,8,4
61610475977,1,2,-2,0,-3,5,-6,1
61610475977,0,-1,-2,0,2,-10,1,5
61610490967,1,-3,0,-1,-2,-13,2,0
61610490967,-3,-3,-1,-3,-2,10,-1,-4
61610492447,-2,-2,1,-1,1,21,6,-4
61610492447,-2,0,-2,0,-4,-15,-17,1
61610513462,-3,-2,-1,-1,-2,1,18,-2
61610513462,-3,-2,-4,-1,4,17,-7,-5
61610514978,0,0,-1,-1,-3,-24,-8,4
61610514978,0,-1,0,-1,4,1,5,1
61610526982,-1,-1,-1,2,-2,17,-19,-2
61610526982,0,-1,-1,0,-3,-11,4,0
61610535987,-1,-4,-2,-4,-3,-9,-10,-2
61610535987,-2,1,0,1,0,-7,0,1
61610550366,1,-1,3,10,1,7,31,2
61610550366,-5,-1,-2,-11,0,3,-23,-9
61610557041,3,0,-2,0,-1,-13,12,5
61610557041,-2,-1,-2,-4,0,0,-2,-1
61610574786,1,-1,-1,1,-3,-4,8,1
61610574786,-3,-2,-1,1,-1,-2,-12,-6
61610576436,-3,-1,0,-2,-3,-13,1,0
61610576436,-2,-3,-1,-1,0,35,0,-4
61610595990,-2,-1,-2,-2,-3,-9,-16,4
61610595990,1,0,-1,1,-2,0,5,-2
61610597468,0,-1,-1,2,1,-1,10,-2
61610597468,1,-1,-2,-25,-2,-9,-10,2
61610610353,-4,-2,-1,11,2,-6,-3,-12
61610610353,-1,-1,0,2,2,31,0,1
61610617134,-1,-1,0,8,-2,0,16,4
61610617134,-2,-1,0,3,0,-2,34,-3
61610633360,3,3,2,-1,-2,3,19,1
61610633360,-6,-3,-6,-9,-2,-22,-48,-9
61610634943,1,1,0,-4,-1,13,-3,5
61610634943,-2,-3,-3,4,-1,-11,12,-1
61610647143,-4,-2,-3,-11,-3,-6,-45,-2
61610647143,0,-2,-1,6,-1,2,35,3
61610655975,-2,-3,-1,-6,-1,-16,5,-2
61610655975,0,-1,-1,5,3,19,-16,5
61610670224,2,0,-1,-1,-1,2,15,2
61610670224,0,-2,-1,-3,-1,-7,-6,-1
61610677135,-2,-2,-2,0,0,-15,20,-2
61610677135,0,1,0,2,-3,-9,-39,-7
61610693383,0,1,-1,-4,1,2,13,3
61610693383,0,0,2,4,3,5,18,-1
61610694924,-3,-2,-1,-4,-4,-4,-22,-8
61610694924,-4,-1,-2,2,-1,-4,-18,-1
61610715991,0,-3,-3,-5,0,12,2,-1
61610715991,2,1,-1,-1,-3,-4,5,2
61610717461,-1,-3,-2,1,0,-3,18,-3
61610717461,-3,-2,-1,-2,3,10,-44,-4
61610730267,-2,-2,-1,-2,-4,-14,0,-5
61610730267,0,-1,-1,-1,1,5,16,2
61610737090,1,1,0,0,-1,9,-19,2
61610737090,-5,-2,-1,2,-2,-27,-13,-1
61610753490,-2,-1,-3,-6,1,3,8,-3
61610753490,1,-1,0,2,1,4,-29,1
61610754947,0,1,-3,-6,-3,-2,-10,-1
61610754947,1,1,1,4,1,-8,22,4
61610775944,-1,-1,1,0,0,5,-2,-1
61610775944,-3,-1,-2,-4,-4,-9,15,-2
61610777476,-5,-4,-1,2,2,-3,-64,-5
61610777476,1,-3,-2,-3,-3,0,7,-2
61610790319,-2,0,-1,1,-2,-20,-8,1
61610790319,1,0,-1,-2,1,13,-2,-3
61610797114,-3,-2,-1,-2,-2,9,16,-1
61610797114,0,0,-1,1,-3,2,14,-3
61610813461,0,-1,-2,-3,2,0,9,2
61610813461,-2,0,-1,2,0,-8,-4,0
61610814945,-7,-2,-5,-2,-1,10,24,-3
61610814945,0,0,-2,-1,0,-5,-36,-1
61610835956,1,-2,0,-1,-3,12,-6,-3
61610835956,-3,-3,-2,-1,-3,-3,14,3
61610837472,2,1,-1,-1,-1,-8,-10,-4
61610837472,-2,-1,-1,-1,-1,4,24,6
61610849629,0,-2,-3,0,-3,-1,8,0
61610849629,-5,-4,-3,-2,-4,-6,13,-7
61610858498,0,0,1,-1,0,-2,-54,-1
61610858498,-2,-1,-1,-1,-2,-8,6,-5
61610873472,3,0,-1,1,3,14,-12,4
61610873472,2,-1,-1,-1,-6,-21,-20,0
61610874966,-2,-2,-1,-1,-1,0,18,-3
61610874966,-2,-2,-1,0,0,3,21,1
61610895906,-1,-1,-2,-4,-2,-6,-7,-2
61610895906,-7,-4,0,-2,1,7,1,0
61610897448,0,-2,0,0,-1,-4,4,-3
61610897448,9,2,3,0,2,3,3,5
61610909574,-3,-1,0,-3,-3,0,17,-3
61610909574,3,2,-2,0,0,-2,-13,3
61610918513,-4,-2,-2,0,0,-7,-2,-6
61610918513,-2,-2,-4,0,2,7,-8,0
61610933465,1,-2,-2,0,-2,-6,43,-1
61610933465,2,0,0,-1,-4,-5,-19,-4
61610934987,-2,0,0,-2,1,0,-16,0
61610934987,0,0,-3,-2,-3,2,30,1
61610955962,-4,-3,-1,1,2,4,17,5
61610955962,-1,-1,-2,-2,-1,-7,-5,-6
61610957448,2,-1,-2,0,-1,-17,-71,-7
61610957448,-4,-1,-1,0,-1,8,36,3
61610969661,7,5,0,0,0,5,19,9
61610969661,-3,-2,-2,-2,-1,-3,19,0
61610978477,-4,-4,-3,-2,-5,-25,14,-4
61610978477,-3,-3,-3,-3,0,11,18,1
61610993482,-1,0,-2,0,-1,-2,-49,-6
61610993482,2,-1,-2,-1,1,-3,76,7
61610994913,3,2,0,1,1,7,-7,1
61610994913,-2,-2,0,-1,-2,-11,-12,-3
61611015985,-4,-1,-2,-2,-5,2,-25,-1
61611015985,-1,0,1,-2,-2,-16,6,0
61611017470,-1,-2,0,-1,2,35,53,5
61611017470,-4,-3,-2,-1,-3,-9,-23,-7
61611029539,0,1,1,-1,-1,-3,12,0
61611029539,4,3,1,2,1,-6,-56,4
61611038462,0,2,-1,-4,-7,-5,15,-4
61611038462,-2,1,1,-2,1,-1,9,-1
61611053410,-3,-4,-1,-1,2,1,-25,1
61611053410,-3,-4,-3,-3,0,-4,-56,-1
61611054943,0,0,1,2,4,13,38,10
61611054943,-4,-3,-2,-2,-6,-16,-26,-13
61611075962,-4,0,-3,-3,-2,-3,7,-1
61611075962,1,0,0,2,1,8,22,1
61611077473,2,1,-2,0,-1,2,-6,4
61611077473,0,-2,-1,0,-1,-32,-31,-4
61611089490,-6,-3,-2,-2,0,32,-7,2
61611089490,5,3,1,1,2,19,13,1
61611098501,-4,-1,-2,-4,-8,-23,-10,-5
61611098501,1,-2,0,-2,2,30,42,4
61611113390,-3,-2,-1,1,-4,-33,-9,-6
61611113390,-2,-2,0,1,2,15,10,4
61611114981,-3,-2,-1,-1,1,2,29,-9
61611114981,5,2,0,2,2,2,-35,4
61611135830,1,-1,-1,0,0,9,34,-1
61611135830,-4,-2,-6,-2,-1,4,-12,-7
61611137413,0,-1,0,3,1,-4,20,3
61611137413,-1,-2,-3,-16,-1,3,-3,2
61611149543,3,2,4,15,4,1,10,-1
61611149543,1,-1,1,0,-4,-12,-51,-3
61611158487,0,-1,0,-2,0,3,-5,2
61611158487,2,2,0,2,-1,0,9,1
61611173520,-1,-2,0,-5,-3,-10,-33,-1
61611173520,-4,-1,-2,-3,3,8,17,-2
61611174974,1,0,1,2,1,-5,-20,2
61611174974,-2,-2,-2,0,-3,-2,23,-2
61611195009,1,1,-2,-6,-1,1,-21,2
61611195009,-3,-3,0,-1,-4,-10,-30,-6
61611203477,-3,-3,-3,-4,-1,6,-12,0
61611203477,-4,-2,-1,1,-1,-7,-20,-5
61611209677,5,3,1,-1,1,-6,49,2
61611209677,-5,-1,-1,-4,-2,-5,-60,-11
61611218478,1,-2,-3,-11,-3,1,-7,8
61611218478,-4,-1,2,8,-2,-4,-15,-7
61611233488,-3,-4,-3,-3,-2,4,-5,-1
61611233488,0,-2,-3,2,0,7,30,5
61611234933,2,-1,-1,2,2,-5,-8,2
61611234933,-1,-3,-6,-11,-3,-6,9,-5
61611256595,0,-3,0,-4,0,6,-43,3
61611256595,-1,-3,-3,-6,-2,-13,1,-7
61611258135,-4,-1,-3,0,-4,-2,6,-9
61611258135,3,1,3,7,3,-4,-33,1
61611269640,0,1,-2,-1,-1,-5,24,-1
61611269640,-4,-4,-3,-5,-5,3,14,-1
61611278497,2,4,2,3,1,3,-2,3
61611278497,-1,-3,0,3,-1,14,7,2
61611293412,-3,-3,-6,-7,-3,-13,3,-10
61611293412,-2,-1,1,5,-2,-6,-21,-6
61611294934,-3,-3,-1,-3,-2,15,94,6
61611294934,-1,1,0,1,0,-20,-76,-10
61611315910,-4,-1,-2,-4,-1,8,-25,2
61611315910,1,-1,-4,-3,-1,2,64,4
61611317436,-3,-2,0,1,-1,1,-9,-2
61611317436,0,0,-2,-5,-1,5,31,6
61611329577,0,1,0,1,-2,-4,-18,-7
61611329577,-4,-1,1,-2,-2,-9,-48,-7
61611338499,-2,0,1,-1,1,-3,9,0
61611338499,-1,1,0,0,0,2,-5,0
61611353475,-1,-2,-2,-1,-5,-11,-4,1
61611353475,3,1,1,3,1,7,51,7
61611354965,-2,-2,-4,-1,0,0,-1,-2
61611354965,-1,-5,-3,-4,0,-2,14,1
61611375934,0,0,0,2,0,-1,-18,-4
61611375934,1,0,-1,-4,-1,-1,4,2
61611377413,-3,-2,-4,0,-5,-5,-9,-8
61611377413,0,1,0,-1,-1,1,0,1
61611397759,-1,-2,-1,-3,-1,-5,8,-2
61611397759,0,-2,-2,-1,-1,4,-3,1
61611398479,-1,-1,-1,-2,0,-2,-37,-3
61611398479,-2,-1,-1,-1,-3,-8,2,0
61611412719,-1,-1,1,1,0,3,15,-1
61611412719,-1,0,1,-1,-2,-8,5,2
61611413456,0,0,0,3,-1,-7,-34,-2
61611413456,0,-2,0,-2,-1,11,34,3
61611435324,-2,1,1,-1,-2,-3,-18,-4
61611435324,2,0,-2,-1,-1,2,8,3
61611435981,-1,-3,-1,0,-2,-10,10,1
61611435981,-4,-1,-3,-1,0,-1,-51,-5
61611457861,-2,-4,-2,-1,-3,-5,14,0
61611457861,-1,0,-2,-1,0,5,-8,0
61611458493,0,0,1,-3,-1,-4,-7,0
61611458493,0,1,0,0,-1,2,29,1
61611472762,0,-2,-1,2,1,0,1,0
61611472762,-2,0,-3,-1,-1,2,5,-1
61611473408,-2,-2,-2,-2,-1,-1,-1,-5
61611473408,-1,-2,-2,0,-1,-5,10,-1
61611495241,2,-2,-1,-3,-3,-5,-4,-1
61611495241,-1,-1,-1,0,2,2,-2,1
61611495955,-1,-1,0,-2,-1,1,-4,1
61611495955,0,0,-1,0,-2,5,6,1
61611517901,-1,-2,0,0,-1,-4,7,-2
61611517901,-4,-1,-2,-2,-3,-8,-5,-2
61611518460,-1,-2,0,-1,-1,9,-9,-3
61611518460,-2,0,0,1,-1,-3,-12,1
61611532699,-2,-3,-2,0,-1,7,32,3
61611532699,-2,-2,-1,1,-4,-3,-6,-3
61611533462,-2,-1,-2,-2,0,0,-12,-1
61611533462,-1,-1,0,-3,-2,0,1,1
61611555191,-2,0,-1,-2,0,-3,-2,0
61611555191,-1,-1,-1,0,-2,2,-7,-1
61611555955,-1,2,-2,-2,-2,5,37,-3
61611555955,-2,0,-2,-2,-1,-6,-7,-3
61611577631,-1,0,0,-1,0,-4,-14,0
61611577631,0,-1,2,-3,-1,-4,0,-1
61611578401,-2,-1,0,0,-1,0,-11,-1
61611578401,0,-1,2,0,0,0,3,0
61611592771,-2,-1,-3,-2,0,7,-9,-3
61611592771,0,-2,-1,-2,-1,-10,-7,0
61611593460,0,-2,-2,-1,-1,1,-8,0
61611593460,0,-1,0,-1,-2,-1,-6,-2
61611615289,-2,-1,-1,-1,-1,4,3,0
61611615289,1,-1,-3,-1,0,-5,27,2
61611615935,0,-1,0,-1,-1,-10,-53,-6
61611615935,-2,-1,-1,-1,-3,-6,-16,-3
61611637763,-1,-2,0,-1,-3,-6,-1,-3
61611637763,-2,-1,-1,0,-2,5,11,-1
61611638457,-1,-1,-2,0,-1,2,6,-2
61611638457,1,-1,-2,-2,-1,-11,-4,0
61611652083,0,2,0,0,1,-5,-7,-1
61611652083,-1,-1,1,0,1,9,-4,-3
61611660283,0,0,-2,-2,0,-3,5,2
61611660283,0,-1,-1,-1,0,4,7,0
61611675301,0,-2,-1,0,-1,-1,5,0
61611675301,-2,-2,0,-1,-2,-5,-5,1
61611675959,-1,0,-1,0,-1,6,-1,0
61611675959,-1,-1,-3,0,0,8,8,0
61611698454,-1,-1,-2,-3,-1,-13,-1,-1
61611698454,-2,0,0,1,-1,15,-3,-2
61611699141,-2,0,-3,3,-1,2,4,0
61611699141,-2,0,-1,-1,-3,-9,-36,-3
61611712738,-1,-1,-1,0,0,1,10,0
61611712738,-1,-1,-1,-3,0,-12,-43,-5
61611713408,-1,-2,1,-1,-2,-4,6,-1
61611713408,0,0,0,-2,0,14,8,1
61611735714,1,-2,-1,-2,0,-4,-6,1
61611735714,-1,0,0,-1,0,1,11,0
61611736457,0,-1,-1,-1,0,-2,-6,-1
61611736457,0,-1,-1,0,0,-6,2,-1
61611758413,-2,-1,-1,0,-1,3,3,-2
61611758413,0,-2,-2,-1,-1,-4,0,-1
61611759109,-1,-2,0,-2,0,6,3,-3
61611759109,-1,-2,0,-1,-1,-1,11,1
61611780943,-1,-1,-1,-1,0,9,6,2
61611780943,-1,1,0,0,-1,-6,2,-1
61611781653,-1,-1,-1,1,-2,-7,-6,-1
61611781653,0,1,1,0,0,2,7,-1
61611795251,-1,-1,-1,-2,-1,0,-9,-2
61611795251,0,-1,-2,-1,-1,5,0,0
61611795917,-2,-2,-3,-4,-1,-23,5,-2
61611795917,0,-2,-3,-2,-1,3,4,-1
61611818463,-1,1,-2,-1,-1,-8,-4,-2
61611818463,0,0,-2,0,0,1,-5,-1
61611819141,-2,0,-1,-1,-1,5,17,0
61611819141,-1,-2,-2,0,0,-4,1,0
61611832846,0,1,-1,-1,-1,-6,-10,-2
61611832846,-2,-2,-1,-1,-2,3,9,0
61611833460,-1,-2,0,1,-1,3,-9,1
61611833460,-2,-1,0,-1,-2,-3,-2,-1
61611855296,-1,0,1,0,-2,6,4,1
61611855296,1,-1,-3,-1,-1,0,2,0
61611855959,2,-1,0,0,1,-1,8,0
61611855959,-3,-1,-3,-2,-1,-8,-50,-5
61611878425,-2,-3,-2,-1,-1,3,-4,-1
61611878425,-1,-1,-1,0,2,9,2,-1
61611879083,0,-1,-2,-1,-1,-2,3,-1
61611879083,1,0,1,-1,-1,1,16,0
61611892748,-3,0,-1,-2,0,-5,-4,0
61611892748,-1,-3,0,1,0,8,-2,-1
61611893455,-2,-2,1,0,-1,-7,-14,-1
61611893455,0,-1,-3,-1,-3,-3,26,-1
61611915237,2,-2,-1,0,-1,0,-7,-2
61611915237,-1,-3,-1,-2,-2,-6,4,-1
61611915918,-1,1,0,-1,-2,-5,-2,0
61611915918,-1,-1,-2,1,-1,2,-2,-1
61611938482,0,0,-1,0,-2,-4,1,-1
61611938482,0,1,-1,-1,-1,-6,3,0
61611939142,0,-2,-1,-1,-1,5,-9,-1
61611939142,-1,-2,-3,0,0,-1,7,-1
61611952783,-1,-1,-1,-1,-1,-6,-8,-2
61611952783,-1,-1,-1,0,1,1,-1,-2
61611953436,-1,0,-3,-1,1,0,-2,0
61611953436,-1,-1,0,0,-1,-4,2,-1
61611975232,0,-1,0,-2,-1,6,-2,-2
61611975232,1,-1,-1,-3,-2,9,5,0
61611975958,-1,-1,-1,-2,-1,-7,-2,0
61611975958,-2,-1,0,0,1,-1,7,1
61611998474,0,-1,-1,-2,-2,-3,-5,-2
61611998474,-1,-1,-1,1,0,-6,-6,-1
61611999103,-1,-3,-1,0,-4,10,1,-2
61611999103,0,0,-1,0,-1,-1,-6,0
