61661018435,0,-1,0,-1,-3,-1,-1,-1
61661018435,-1,0,-2,-1,-2,-1,0,-3
61661019132,-1,-2,-3,-3,-2,1,0,0
61661019132,-1,2,-2,-2,-1,1,0,1
61661019892,0,-2,-2,-2,1,3,0,0
61661019892,-1,-1,2,0,0,1,1,-1
61661020722,0,4,2,1,1,1,-3,-2
61661020722,1,0,1,0,-3,-2,-2,-1
61661031539,1,1,0,0,-2,0,-1,-1
61661031539,0,-1,-2,0,-1,-5,-1,1
61661040104,-2,-1,-1,-2,-1,8,0,-1
61661040104,0,0,1,-2,-1,0,-1,0
61661047853,-1,0,0,0,0,-2,-2,-1
61661047853,-1,-1,0,1,0,1,-1,0
61661061490,-1,-1,-1,-1,-1,-3,1,0
61661061490,-1,-3,-3,-1,-1,0,-2,-2
61661072901,-3,-1,-2,-1,0,-1,0,-1
61661072901,-1,0,0,0,0,-3,-2,0
61661085153,0,-1,-2,0,-1,-9,0,1
61661085153,-2,-2,-2,-3,0,10,1,-1
61661092900,0,-2,-1,-1,0,-2,1,-1
61661092900,1,0,-2,0,-1,0,-1,-1
61661106077,-1,1,-2,-1,-1,-2,-4,0
61661106077,-1,1,0,0,-1,-4,-3,-1
61661162132,-1,-1,0,0,-2,-2,0,-2
61661162132,0,0,-2,0,-2,-1,0,-2
61661162940,-1,-2,-2,-2,-2,-1,0,-2
61661162940,-2,-1,0,-3,1,-2,-2,-1
61661168880,-1,0,-2,0,-1,-1,0,1
61661168880,-1,-1,0,1,-1,0,-1,0
61661169589,-2,0,1,1,1,-2,-1,-1
61661169589,1,1,-1,-1,-1,-1,-1,-2
61661170411,-1,0,0,0,-3,0,-2,-3
61661170411,2,0,-1,-1,-2,-1,0,1
61661174343,1,-2,-1,-1,-1,0,0,-1
61661174343,1,-3,-1,-1,-2,2,0,0
61661175060,0,-1,-3,-3,-1,-3,-2,-2
61661175060,-2,-1,-3,-2,-2,1,-1,0
61661190100,0,-2,-1,-1,-3,1,0,2
61661190100,-2,-2,0,1,0,0,0,0
61661196182,-1,0,2,0,1,1,1,0
61661196182,1,1,0,0,1,3,0,-2
61661219358,2,0,1,-1,0,-1,-3,0
61661219358,1,1,1,-2,0,-3,-2,-3
61661220057,0,-2,0,-1,-1,3,1,0
61661220057,-2,0,0,-2,0,-9,-2,-1
61661234275,-2,1,-1,-1,1,12,4,-1
61661234275,0,-1,-1,-1,-1,-3,-1,1
61661235067,0,-1,0,-2,-1,1,-1,0
61661235067,1,-3,1,-1,0,-1,1,-1
61661256835,-1,-3,-2,-1,-2,-3,-2,0
61661256835,-2,-2,0,0,-2,-1,-2,0
61661257557,-1,0,-1,-1,1,2,-1,0
61661257557,-2,0,-1,0,0,-1,-1,-1
61661280068,-2,-1,-2,0,-1,-3,-1,0
61661280068,0,-1,0,0,-1,1,-1,0
61661280764,-1,0,-1,0,-2,-3,-3,0
61661280764,-1,-1,0,2,1,0,-1,-1
61661294402,-1,-1,0,0,0,-4,-1,-3
61661294402,-1,-1,-2,-2,-1,0,1,0
61661295067,1,-2,-2,-2,-1,-2,-1,2
61661295067,-2,1,-1,-2,0,-1,0,0
61661316910,1,1,-1,-1,-1,-1,0,0
61661316910,-1,-2,-1,0,1,0,-2,-1
61661317574,-1,-2,-2,-2,-1,-2,-1,1
61661317574,-1,-1,-2,-2,0,-5,-4,1
61661339538,-1,0,0,0,-2,-1,0,-1
61661339538,-2,-2,-2,-1,0,0,0,-1
61661340091,-1,-1,1,-1,0,-2,0,-2
61661340091,0,1,0,-2,-1,0,0,1
61661354337,0,0,-1,-1,1,-8,-5,0
61661354337,0,-1,-1,-3,-1,11,1,1
61661355075,-1,0,-2,-1,0,-4,-4,-1
61661355075,0,1,-2,-1,0,1,-3,-2
61661376883,-2,0,-1,-3,1,-3,-3,0
61661376883,0,0,-1,1,0,-3,-1,-1
61661377589,-1,-1,-1,1,-1,-1,0,-1
61661377589,1,-1,-1,-1,-2,2,0,-2
61661399340,0,-1,-2,-1,-2,-2,-2,-1
61661399340,-1,0,-1,0,-2,-4,-1,-2
61661400016,-2,-1,-1,-1,-1,1,0,-1
61661400016,-1,-2,0,0,-1,-5,-1,-1
61661414380,-3,-2,1,-2,-2,8,2,1
61661414380,-1,1,0,-1,-1,-3,1,-1
61661415034,0,-2,0,-2,-2,2,-2,-3
61661415034,-3,-1,-2,-2,-1,-2,-1,1
61661436969,-2,0,-1,-2,0,-2,-2,0
61661436969,-2,-1,0,-1,-1,-1,-2,0
61661437583,0,1,-1,-1,-1,-6,-3,-2
61661437583,-1,-4,0,0,2,10,0,0
61661459289,-3,-2,-3,0,-1,-2,-1,-1
61661459289,-1,0,-1,-1,-1,-1,-2,0
61661460080,-2,-1,0,-2,-2,-2,1,-3
61661460080,-1,-2,-1,-1,-3,-3,0,-2
61661473701,-1,0,0,0,-2,-3,-1,-2
61661473701,-3,-2,0,-2,-1,3,-1,-1
61661482048,-2,-2,-2,-1,0,-1,-1,-2
61661482048,-1,-1,-2,-1,-2,-2,2,0
61661496883,0,0,0,-1,0,-2,1,0
61661496883,0,0,-1,-1,0,-7,-3,-2
61661497582,0,0,0,1,0,1,1,1
61661497582,-2,-1,-4,-2,-2,-2,-3,-3
61661519435,-1,-2,-1,-1,0,1,-1,-2
61661519435,-2,-2,-2,-1,-1,-1,-2,0
61661520061,-2,-1,-1,0,-1,-4,-2,0
61661520061,-1,1,1,-2,0,0,0,-2
61661533736,2,0,0,-1,-1,-3,1,-2
61661533736,-1,-2,0,0,-1,-1,0,-1
61661541758,-2,-2,0,-2,-2,-3,1,0
61661541758,-2,-2,-2,0,-2,-3,-1,-2
61661556844,-1,-1,0,0,0,0,-2,-2
61661556844,-2,-1,-2,-2,-1,-5,-1,-1
61661557558,-1,0,-2,-1,-1,3,-2,-1
61661557558,1,0,-1,-1,0,-2,-4,-2
61661579390,1,2,-3,0,-1,-1,-3,1
61661579390,-1,1,-2,-1,-2,-1,0,-2
61661580088,-2,0,0,-1,1,-1,-2,0
61661580088,-1,-1,-1,-1,0,-1,1,0
61661593663,-2,-2,0,1,-1,-1,-3,-2
61661593663,-1,0,0,0,-1,-2,-3,-4
61661601936,0,1,-1,-2,-2,-5,3,0
61661601936,-2,0,-1,-1,-1,11,-2,1
61661616887,-1,-2,-2,-2,-2,-3,-3,-2
61661616887,-2,-4,-2,-1,-1,-8,-2,0
61661617582,0,-2,0,-1,-3,11,-1,-1
61661617582,1,-1,1,-1,0,-2,1,2
61661639403,-2,-1,-1,-1,-3,0,1,0
61661639403,0,0,-3,0,0,4,-1,-1
61661640040,-1,0,-2,0,-1,-9,-4,-1
61661640040,-3,-2,-2,-1,-2,-5,-3,-2
61661653586,0,1,0,0,-2,0,0,-1
61661653586,0,0,1,-1,0,-6,3,2
61661661802,-1,0,0,0,-1,-6,-3,-2
61661661802,0,0,-1,-1,-1,10,-1,-1
61661676939,-3,-2,-2,-2,0,-3,-3,-3
61661676939,-3,-1,0,0,-1,0,-8,1
61661677594,4,0,2,1,1,-1,-3,1
61661677594,2,-1,0,-1,0,15,2,2
61661699321,2,2,1,0,-2,-6,0,2
61661699321,-3,-2,-3,-1,-1,4,5,-3
61661700017,-4,-3,-2,-2,-1,-10,-18,-7
61661700017,-1,-1,0,0,-1,1,-11,1
61661713718,-2,-3,-1,-2,-2,-1,27,5
61661713718,1,-1,0,-3,-1,16,11,2
61661721891,2,-2,-1,1,0,-7,-20,-3
61661721891,-3,2,-1,-2,-1,-21,1,1
61661736855,0,-4,-2,-1,-1,-4,-14,-1
61661736855,-1,0,0,0,1,-7,1,-1
61661737601,-1,-1,-1,0,-1,28,29,7
61661737601,-5,-3,-3,-1,-4,-25,-19,-7
61661759476,-1,-1,-1,0,-1,12,-16,-2
61661759476,-7,0,0,-1,0,-5,11,-3
61661760086,-3,-3,-2,-3,-4,-5,2,-1
61661760086,-1,-2,-1,0,0,6,30,6
61661773737,-1,-1,-3,-2,-3,-21,9,-4
61661773737,5,2,0,-3,-4,-1,-8,0
61661781167,-3,-1,1,-1,0,-27,-3,-7
61661781167,1,1,1,0,3,13,17,12
61661796863,-3,0,-2,-1,-1,12,-14,-6
61661796863,3,0,-1,2,1,-1,20,3
61661797589,-1,0,-2,-2,-2,-8,-70,-5
61661797589,-6,-2,-3,-3,-2,-9,-14,-8
61661819411,12,-3,-2,-3,0,1,28,14
61661819411,-10,3,-1,1,2,2,-13,-18
61661820040,3,-2,-1,0,3,13,37,14
61661820040,-9,-5,-3,1,-3,-18,-9,-12
61661833718,4,2,0,-1,-1,-1,6,8
61661833718,6,-2,-3,0,-3,-4,-19,-5
61661841185,-1,1,-1,-2,-2,2,27,2
61661841185,1,0,0,1,2,3,-30,-9
61661856856,-13,-6,-2,-2,-3,-2,2,-9
61661856856,-2,-7,-3,-3,-3,-17,-10,0
61661857569,1,-2,-2,-2,0,40,-4,-5
61661857569,3,2,-1,-3,-4,-32,8,5
61661879295,3,2,7,3,5,21,22,3
61661879295,-1,-1,-15,0,-5,-12,-5,9
61661880059,0,-3,0,-2,-1,-1,-5,-4
61661880059,-13,-3,-1,0,-2,5,-34,-18
61661901753,-5,-2,-4,-2,-1,-3,-6,-13
61661901753,4,1,10,3,1,0,24,23
61661902541,11,6,-7,-1,1,10,11,3
61661902541,7,-1,-4,-1,0,-20,3,5
61661916783,-10,-3,2,-2,-3,11,-6,-9
61661916783,-8,-7,21,11,1,-15,-23,-16
61661917552,-10,1,-4,-4,3,18,9,3
61661917552,1,-6,-21,-15,-2,14,-23,-6
61661939289,1,-2,-8,-3,-2,-11,20,14
61661939289,4,-2,-9,-9,-6,-15,4,-3
61661940030,-11,0,12,3,-3,-13,-18,-12
61661940030,5,4,29,18,-1,6,27,7
61661961863,-2,3,-1,-3,-1,-13,-43,-10
61661961863,0,-6,-53,-14,0,20,21,16
61661962536,1,-4,-8,-4,-1,-8,14,-2
61661962536,2,3,-6,-4,1,13,17,2
61661976861,-4,-2,22,6,-2,-9,-3,3
61661976861,-3,3,16,7,2,13,-26,-16
61661977568,-3,-5,-12,-3,-3,-3,26,2
61661977568,1,-2,8,0,0,-10,-18,-5
61661999350,2,0,10,0,-1,10,4,-1
61661999350,3,6,-10,-5,-1,-6,-5,6
61662000076,-2,-3,14,0,-1,-17,-1,4
61662000076,-1,-1,-6,-1,-2,14,1,-6
61662021951,7,3,-20,-6,-1,-16,-1,9
61662021951,-11,-2,6,-4,-2,14,-7,-19
61662022534,18,0,8,6,-2,-11,0,17
61662022534,-10,3,-35,-7,-3,-2,51,8
61662036862,-5,0,42,2,-1,7,-59,-12
61662036862,2,-3,-33,0,0,2,8,-6
61662037565,6,2,11,5,0,11,-4,1
61662037565,-9,-8,-20,-1,0,2,7,-5
61662059327,0,1,33,7,-1,-14,11,4
61662059327,-3,-6,-8,-7,1,25,1,3
61662060054,-4,5,-24,-9,0,5,-4,-7
61662060054,6,-1,10,1,-2,-9,-11,5
61662082475,-6,-1,-36,-2,-1,-3,-18,-17
61662082475,-1,-1,45,7,-1,-4,11,4
61662083237,-5,-1,2,4,0,1,15,-3
61662083237,3,-2,7,-8,-2,1,1,6
61662096890,3,-4,-20,0,1,11,6,12
61662096890,3,5,31,-2,-2,-5,16,-1
61662097588,-8,-5,-45,-6,0,-5,-33,-14
61662097588,-1,0,30,10,2,1,29,8
61662118751,6,1,11,-7,-2,10,1,9
61662118751,10,0,-42,-2,1,-18,-20,-5
61662126991,-15,0,27,-3,-5,-22,-2,4
61662126991,2,2,14,2,2,6,-19,-13
61662141874,-3,-4,-23,-3,-1,-12,18,-6
61662141874,3,3,12,3,1,15,-23,12
61662142606,5,-3,13,-2,-1,-10,10,-3
61662142606,2,3,-14,-3,1,-9,-39,0
61662165050,-2,-1,-27,0,-1,-4,10,-2
61662165050,-2,2,59,11,1,4,15,-9
61662166572,-4,0,-14,-10,-4,-15,-25,-7
61662166572,1,-4,-2,-1,-3,7,19,5
61662178659,5,7,-35,2,6,3,2,1
61662178659,-3,-6,-11,-14,-6,20,20,6
61662187606,1,-2,17,5,-1,-19,-12,0
61662187606,-3,-2,-6,-2,2,12,0,-12
61662210075,-6,-3,7,-1,-3,-38,-12,-17
61662210075,-1,-4,-9,3,2,-2,-42,-4
61662211549,0,-2,-13,-1,-1,0,23,10
61662211549,-2,1,8,-7,-5,3,2,-6
61662225040,-4,-1,39,6,2,20,27,8
61662225040,-7,-3,-64,-12,-4,-25,14,-10
61662226551,-3,-6,3,-15,-2,0,-44,-14
61662226551,5,5,5,13,2,1,12,13
61662238683,-6,-9,-45,-6,-1,12,2,-12
61662238683,7,9,55,8,0,-7,6,17
61662247627,-2,-3,-32,-2,0,21,-22,-13
61662247627,-7,-1,23,-2,-1,-13,-23,-12
61662262387,1,-1,6,-4,-6,-9,-12,9
61662262387,-6,-2,-6,2,-1,19,19,-3
61662268820,-2,-6,-21,5,1,-10,-9,-12
61662268820,6,7,9,-14,-4,-1,-2,14
61662285086,-3,-7,-11,-24,-4,-6,14,8
61662285086,-7,3,5,22,3,-17,-8,-12
61662286588,8,7,16,10,-1,23,-35,15
61662286588,-5,-11,-20,5,2,-5,6,2
61662298746,-7,-3,5,-3,-3,-6,6,-7
61662298746,2,-2,-2,-13,-4,3,63,11
61662307583,2,6,-35,8,6,10,-12,13
61662307583,3,-2,-18,-4,-1,24,22,6
61662322014,6,4,32,3,2,6,-67,-16
61662322014,-3,-7,-15,-9,-2,-12,56,8
61662328736,-2,0,0,-6,-2,0,6,-10
61662328736,-4,-2,15,10,6,13,-2,-4
61662345060,2,-1,2,-16,0,2,8,-3
61662345060,-4,0,-1,38,2,-3,-10,0
61662346552,-1,1,34,-7,-3,-8,41,12
61662346552,0,1,-15,-4,-2,-17,-5,-11
61662358728,2,2,9,7,-3,0,-31,-3
61662358728,3,-1,-3,3,2,3,-62,-7
61662367617,-1,-3,9,-14,-6,7,119,20
61662367617,-14,-6,-1,6,-2,-65,-81,-30
61662381795,2,0,3,8,1,45,38,18
61662381795,-3,-1,-16,-17,0,-6,-43,-6
61662388728,2,-4,-13,3,-1,6,-52,10
61662388728,0,-1,10,-12,-3,-3,10,-13
61662405060,-4,0,-12,0,-2,-15,0,0
61662405060,1,-4,-11,-14,-2,0,-6,0
61662406564,1,6,36,24,2,-2,-16,-1
61662406564,-1,0,-21,-2,-2,17,81,6
61662427449,-8,-5,3,-1,-7,-25,-29,-16
61662427449,0,1,-16,-7,-2,-25,-10,1
61662429071,-7,-3,10,-6,-3,-14,19,-25
61662429071,9,4,-14,0,-3,-7,-20,2
61662441890,-4,-2,2,10,4,19,14,3
61662441890,-2,-2,-13,-16,-6,-30,-12,-8
61662448572,2,1,9,-1,1,6,10,19
61662448572,-8,-3,16,5,-2,-4,-47,-13
61662464951,7,3,-1,-2,2,-8,7,27
61662464951,-4,0,5,-10,0,43,-37,-14
61662466540,3,0,-27,-4,1,-16,-31,0
61662466540,1,-2,10,-3,0,62,16,23
61662487422,-1,-5,-12,9,1,-22,-10,-11
61662487422,-7,-5,14,2,0,5,35,-9
61662488970,-6,-4,-2,0,-3,7,21,-14
61662488970,1,-2,21,8,-2,22,49,9
61662501871,1,5,-41,-19,-4,-27,-37,-8
61662501871,-1,0,14,13,-1,10,19,6
61662508744,-5,-4,16,-16,-4,-13,11,-8
61662508744,2,-1,-6,-8,0,-8,-33,9
61662525052,-8,-5,5,8,-1,2,20,-13
61662525052,-2,-3,6,-9,-5,28,2,4
61662526557,4,1,-3,-7,3,-7,-36,2
61662526557,1,-1,-13,16,-1,-17,12,-1
61662554979,0,1,43,12,0,12,-15,6
61662554979,-4,-4,-32,-13,-4,-20,-16,-16
61662556547,-3,-2,32,9,2,14,-9,-6
61662556547,-1,5,-30,-13,-1,-1,29,-2
61662561942,-2,0,-13,-3,-4,-30,42,-3
61662561942,-1,-2,1,0,0,-8,-54,5
61662568688,1,-1,9,3,-3,47,32,9
61662568688,0,-4,-4,-9,-1,-24,9,5
61662585098,-1,-2,-21,-5,-2,47,5,1
61662585098,4,4,26,6,-1,-21,9,9
61662586554,-6,0,-18,-10,-1,-12,-38,-19
61662586554,-4,-2,-4,9,1,-7,-43,1
61662607644,-1,-6,1,3,-1,31,4,-1
61662607644,2,1,21,10,0,-1,28,15
61662609118,-3,-4,-35,-5,-2,-21,45,-1
61662609118,1,-4,-2,-6,-1,21,-49,-21
61662621906,-3,6,9,-4,-3,-22,17,0
61662621906,-2,-2,8,2,-2,5,20,3
61662628710,-1,0,1,7,3,-16,-14,1
61662628710,-3,-5,-28,-13,-6,-4,13,2
61662645035,-2,-7,19,0,0,11,-14,-2
61662645035,1,3,6,-1,-2,-31,-3,-1
61662646570,2,-3,7,6,1,17,24,5
61662646570,-9,-5,-24,-11,-5,-37,3,1
61662667532,4,5,30,3,1,-13,-34,2
61662667532,-3,-6,-39,-17,-1,0,50,-6
61662669037,1,4,-2,1,-3,-9,-18,0
61662669037,-1,-4,23,-1,-2,10,1,-11
61662681885,-3,-3,-10,2,-1,-9,-6,-4
61662681885,1,0,4,-2,5,-1,-51,-8
61662688581,1,-7,-12,3,-2,36,42,5
61662688581,6,3,11,-12,1,-16,-55,0
61662706364,-1,-1,-3,-6,-2,14,70,9
61662706364,-5,-1,-19,-7,-5,10,-15,-15
61662708340,-3,-3,-6,-3,-2,-11,2,-6
61662708340,0,4,34,15,1,-8,-16,9
61662727512,0,1,-23,-2,0,-3,23,9
61662727512,3,-3,-1,-2,1,-2,0,-3
61662729042,-6,-5,-5,-7,-4,-11,-11,-15
61662729042,2,5,-2,4,-1,13,49,4
61662741886,-1,-2,9,1,3,-11,-30,-7
61662741886,0,7,6,11,1,-7,-9,1
61662748723,1,6,-1,-12,-7,-43,-16,2
61662748723,2,0,-2,-8,2,9,4,5
61662765075,-4,-5,-15,-3,-5,-4,-5,-10
61662765075,4,1,14,8,3,-18,-7,15
61662766604,-4,-6,-12,0,1,49,18,0
61662766604,-5,-7,-39,-11,-3,12,-11,6
61662787448,2,-1,37,8,3,-12,11,4
61662787448,-1,-3,-25,-14,-9,-15,1,-2
61662788967,2,4,4,-14,3,2,-31,5
61662788967,-2,-1,14,18,2,-3,44,12
61662801796,1,4,-17,-7,-2,10,-2,0
61662801796,-8,-5,0,2,-2,20,7,-5
61662808706,6,3,0,-6,-2,-17,-10,6
61662808706,-4,-5,2,6,1,-4,18,-15
61662825060,3,2,6,8,1,-7,7,2
61662825060,-5,-4,1,-15,-1,43,-6,7
61662826554,1,-4,14,31,1,-2,21,8
61662826554,-3,1,-8,-11,-2,0,-22,-15
61662847565,-1,-2,-13,-5,-1,-10,24,-6
61662847565,3,-1,13,5,0,-5,-25,-6
61662849026,-2,1,-1,-10,-2,2,-3,12
61662849026,2,-1,15,4,0,-8,-20,-3
61662861930,0,-1,-23,-1,0,8,-4,1
61662861930,2,-4,-18,-5,1,13,-15,-2
61662868660,0,-2,-12,4,-4,-45,5,-3
61662868660,-4,-2,50,8,0,8,-7,-3
61662884936,-6,3,-26,-23,-9,-47,-25,-11
61662884936,-1,-1,1,4,3,29,39,7
61662886539,-2,-4,-14,-1,3,-1,20,-4
61662886539,-4,-1,10,14,-1,11,-4,-16
61662907788,-5,-5,-13,1,-2,-5,2,9
61662907788,9,7,7,-4,-3,-17,-11,12
61662909070,-6,-4,9,4,0,20,18,-6
61662909070,1,2,-15,-13,2,-15,-12,-4
61662921071,1,-5,4,-5,-4,27,-7,5
61662921071,-5,-1,-1,4,-2,-18,3,-12
61662937570,0,1,5,-3,1,-18,-81,-2
61662937570,1,3,-7,-3,-1,17,19,8
61662945034,2,-4,-8,-1,-1,0,2,7
61662945034,1,6,51,14,1,20,-71,-4
61662946658,-1,-1,-35,-19,-6,-6,-15,-8
61662946658,-10,-7,-2,19,-3,-37,42,-7
61662967546,-2,1,15,0,-1,19,14,-11
61662967546,1,-1,6,0,-4,-7,-1,7
61662969016,-4,-1,-7,-2,2,-5,-10,-14
61662969016,4,1,-18,4,-1,-5,-31,9
61662981183,-5,-6,17,4,-2,23,39,-1
61662981183,-3,1,-70,-19,-3,-14,38,-3
61662990100,-2,-4,20,12,4,-1,-17,-3
61662990100,4,-2,-5,-15,0,27,-17,14
61663005158,-2,-1,7,4,2,2,14,-7
61663005158,3,2,18,8,2,-5,-11,-2
61663006571,2,2,4,-1,-3,19,19,6
61663006571,2,4,-20,-16,-7,21,-7,3
61663027706,-2,0,39,14,4,5,-11,0
61663027706,-4,-5,-20,-6,-1,-16,-7,-3
61663029128,-1,-2,-2,-18,-4,2,81,1
61663029128,-3,-5,9,17,1,-17,-18,-17
61663041166,3,2,-11,-6,-2,-6,-23,4
61663041166,-3,-2,8,6,2,1,28,9
61663050039,-4,1,8,6,-4,-7,-79,-17
61663050039,-3,-4,-27,-18,-3,-10,21,-6
61663065031,2,0,18,-8,-3,-6,-2,5
61663065031,0,-2,-13,1,-2,-11,-1,-6
61663066546,-3,-2,3,0,2,-1,-20,-2
61663066546,-2,-4,-34,-9,-2,4,29,1
61663087565,2,1,28,6,-2,-19,-41,-8
61663087565,-1,-1,-6,-4,-2,17,20,2
61663089001,0,-2,9,3,-1,1,2,-1
61663089001,-1,-2,-3,-9,-4,22,-5,-2
61663101234,0,0,-17,3,1,0,-1,4
61663101234,0,0,7,-7,-4,-5,-1,-4
61663110086,0,0,-4,1,-2,10,9,1
61663110086,-1,-1,15,-1,-1,-14,-14,3
61663125051,1,1,-12,-3,-1,2,-23,-1
61663125051,-2,-4,-3,-5,-3,1,22,-4
61663126547,-4,-1,-11,-1,-2,-16,-32,-10
61663126547,1,2,11,0,1,-1,21,8
61663147564,0,2,-13,-6,-2,-8,-12,-5
61663147564,-3,-2,4,2,-1,-7,8,0
61663149001,0,-2,-2,2,-1,3,5,1
61663149001,-1,0,6,-1,2,-8,-15,-3
61663161190,-3,-2,-12,-1,-3,-9,-37,-6
61663161190,-3,-3,-4,-1,-2,3,-3,0
61663170083,1,0,2,-1,-1,-8,63,7
61663170083,-1,-2,11,0,0,-9,-20,-1
61663184257,-2,-1,-14,-4,0,-5,-6,-1
61663184257,-1,-1,3,1,-1,-2,-6,0
61663191061,2,1,3,1,-1,9,24,1
61663191061,-4,-2,2,-2,-1,-16,-15,-3
61663207393,-2,-3,-8,-4,-2,4,22,0
61663207393,-1,-2,2,-2,-1,-2,-10,-4
61663209028,0,0,1,1,1,5,-23,0
61663209028,2,1,-1,-1,0,5,22,3
61663221204,-2,-1,-4,-2,2,4,6,-1
61663221204,0,1,4,1,0,-1,-5,-2
61663230042,-3,-1,-2,-1,-3,-9,5,-1
61663230042,-1,-1,2,0,-2,-4,-34,-2
61663244371,-3,-2,-5,-1,-2,-3,-31,-4
61663244371,0,-1,-1,-1,1,1,26,1
61663251210,-2,-2,0,0,0,3,-12,0
61663251210,2,-1,2,1,-1,5,3,0
61663267569,1,1,-3,-2,-1,5,17,1
61663267569,1,-3,-1,0,-1,-6,6,-1
61663269021,-5,-4,-2,-2,-1,1,-24,-6
61663269021,0,0,0,-2,-1,-1,8,0
61663281181,1,-2,-3,0,-1,-4,19,1
61663281181,-3,-3,-1,-2,-2,-5,-38,-4
61663290085,-2,-2,-2,-1,-3,-7,16,3
61663290085,0,1,-1,0,-1,-4,13,-1
61663305055,0,-1,-4,0,1,20,25,-1
61663305055,-1,1,0,-2,-1,1,3,-5
61663312684,3,2,1,-1,3,6,10,6
61663312684,-4,-1,-2,-1,-1,-11,-17,-8
61663327512,-5,-3,-2,0,0,1,-18,-6
61663327512,-2,-2,-1,1,-1,-2,7,-1
61663329099,1,-1,0,-1,-1,-4,-23,-1
61663329099,-2,-3,-1,0,1,19,69,7
61663350086,0,0,-1,-4,-7,-37,-32,-7
61663350086,1,0,0,0,-1,3,-4,2
61663351582,-3,-1,-2,0,-3,19,29,-2
61663351582,-1,0,-1,-2,1,4,2,-1
61663364463,-4,-2,-2,0,2,22,23,3
61663364463,2,1,3,-3,-1,-19,-33,-2
61663371262,1,0,2,0,1,-3,14,4
61663371262,-2,-3,-1,-4,-6,-4,31,-6
61663387438,-1,-2,-2,-1,0,-14,-90,-5
61663387438,2,1,1,-1,1,10,48,4
61663388989,-5,-2,-2,-1,2,18,4,-3
61663388989,1,0,-1,0,0,-8,-17,-1
61663409899,-1,1,-2,-1,-2,-6,46,8
61663409899,4,0,-2,-2,-2,-4,-25,-1
61663411491,2,0,1,0,0,-7,-5,0
61663411491,-3,-1,0,1,-3,-13,-45,0
61663424362,0,-1,1,0,1,10,26,5
61663424362,-4,-3,1,0,1,27,-13,-5
61663431311,-3,-1,-4,-3,-4,-14,-16,-6
61663431311,0,0,-1,0,1,-13,-36,-1
61663447472,-3,-3,-2,-1,-1,7,27,2
61663447472,-2,0,-2,1,2,8,50,5
61663448980,-3,-4,-3,-2,-3,-16,-84,-10
61663448980,4,2,1,0,3,14,18,2
61663470001,-2,-1,-4,-3,-5,-17,-25,-3
61663470001,-1,0,0,-1,1,-1,3,3
61663471592,1,-1,-2,0,-1,5,17,2
61663471592,-2,-2,-2,-2,0,-10,-68,-10
61663483594,-2,-1,-1,-2,1,11,41,-2
61663483594,-2,-1,-1,-1,-2,-11,-11,2
61663492567,13,-1,-1,-3,-3,2,4,13
61663492567,-13,0,0,-3,-3,-8,-17,-14
61663507362,1,-2,0,-2,1,-2,12,-1
61663507362,1,-1,-1,0,-1,-28,-26,-4
61663509003,-5,-1,0,-1,-1,-5,20,4
61663509003,4,-1,0,1,-1,11,45,-2
61663530069,1,0,-1,1,-1,-9,-19,1
61663530069,-7,-5,-1,-3,-3,12,-10,-12
61663531541,0,1,1,0,-2,-7,-23,2
61663531541,-2,-2,-2,-1,-2,10,47,4
61663543724,-9,0,-2,-1,-4,-24,0,-12
61663543724,0,0,-2,-1,1,12,20,-3
61663552563,-3,0,-1,0,1,-12,-19,-12
61663552563,4,-1,1,1,1,6,37,12
61663567540,2,-1,-2,-2,-3,3,-7,-4
61663567540,-2,-1,-5,-9,-3,-7,40,4
61663569022,-5,-1,4,15,2,2,-15,-8
61663569022,-2,-2,-2,-2,-2,-6,-25,4
61663590145,-1,-1,0,-2,-3,7,10,0
61663590145,-1,0,-2,-3,-3,-4,23,2
61663591568,-7,-3,-4,-4,-2,-1,-14,-8
61663591568,-1,0,-3,-1,-1,4,50,4
61663603691,2,2,-1,5,1,-5,-81,-5
61663603691,-4,-2,-1,2,-2,1,-11,-1
61663612574,1,0,-3,-6,-1,-4,18,6
61663612574,7,1,3,6,4,0,-45,7
61663627512,-2,-5,-8,-18,-5,-9,32,-7
61663627512,-7,0,1,6,1,9,-63,-6
61663629052,-5,-4,-2,-2,-4,13,33,8
61663629052,-3,-3,-2,-6,-5,-21,-16,-7
61663650049,7,4,2,3,2,9,-1,5
61663650049,6,-2,-2,-8,-2,-17,-9,1
61663651526,-1,0,-1,-1,-2,-10,-10,-8
61663651526,-4,-2,-4,-5,-2,9,26,2
61663663639,-1,-2,-1,4,1,6,-10,-2
61663663639,-1,-2,-2,5,-2,-2,25,3
61663672602,0,1,-2,-3,-1,6,-4,-1
61663672602,-1,0,-3,-2,-1,-4,6,0
61663687431,-2,-3,0,1,-2,-4,-28,0
61663687431,2,-1,4,16,3,10,31,4
61663688981,-1,-3,-1,-2,-3,-8,12,0
61663688981,-1,1,2,5,2,1,-29,-8
61663709904,-4,-2,1,0,1,8,34,2
61663709904,-2,0,-3,-7,-2,-5,-22,-1
61663711514,0,-2,-1,-3,-1,-5,5,-2
61663711514,1,-1,-1,0,-1,2,-5,-5
61663723722,-2,1,-4,-5,-1,-1,35,3
61663723722,-2,-1,-3,-1,-1,-5,20,1
61663732549,2,-1,-1,0,-1,-4,-29,-1
61663732549,-2,-2,-4,-3,-4,4,-10,-4
61663747545,-2,-2,-1,0,1,-3,11,1
61663747545,0,1,-2,-3,-3,-4,-41,-7
61663749021,-1,2,-1,2,-1,8,65,3
61663749021,0,-1,0,0,1,-1,-5,1
61663770063,-1,-2,2,0,0,3,-8,-1
61663770063,-2,-3,-1,-1,-4,-5,12,-4
61663771544,0,1,2,0,2,4,-12,0
61663771544,0,-1,-2,-3,-4,-5,23,-2
61663783732,-3,-1,-3,-1,0,0,11,2
61663783732,0,-1,-1,-4,0,2,-37,0
61663792551,0,-2,-1,-1,0,-1,-3,-3
61663792551,-1,0,-1,-1,-1,6,29,1
61663807539,-1,0,2,2,-2,-2,13,-2
61663807539,-5,-2,-2,-2,0,-2,-17,-6
61663809033,-2,0,-3,-1,-2,2,11,-1
61663809033,0,1,0,1,1,1,3,0
61663830082,1,-1,-2,-1,-2,-5,-20,0
61663830082,-3,-1,-1,-2,-1,-8,6,2
61663831548,-2,-1,0,-2,-1,14,12,-3
61663831548,-1,-3,-2,-2,-1,-2,-6,-3
61663843565,1,-2,0,0,-1,-1,-31,-1
61663843565,1,-1,-1,-1,-2,-4,1,2
61663852582,1,-1,-2,-1,1,-8,-12,-3
61663852582,-3,-2,-1,-1,-4,-4,-29,-3
61663867559,-2,0,-1,0,-1,7,2,-4
61663867559,-1,-1,-2,-1,1,0,-5,2
61663869015,0,-2,-3,-2,0,-4,8,0
61663869015,0,2,-3,-2,-1,1,-11,0
61663889924,-2,0,-1,-1,-2,-4,-13,-2
61663889924,0,-2,0,-1,-1,6,18,2
61663891550,-2,-1,0,-1,-1,-11,-18,1
61663891550,0,-1,0,1,-1,-3,-6,0
61663904109,1,-1,1,0,-1,0,4,-1
61663904109,0,0,0,1,0,6,4,-2
61663912585,-1,-2,-1,-2,-3,9,5,0
61663912585,0,-1,-1,-1,-1,-6,-6,-3
61663927561,-1,1,-2,0,1,0,0,1
61663927561,1,-2,-2,-1,-1,-14,-11,-1
61663929046,0,-1,-4,0,-1,12,27,1
61663929046,-4,-2,-2,-2,-3,7,-22,-4
61663949959,0,-2,-1,-1,-1,-10,3,-1
61663949959,-1,-2,-1,-2,-3,-4,4,1
61663951532,-3,-2,-1,0,-2,-9,-25,-3
61663951532,0,-2,1,-1,0,2,25,1
61663963682,-1,-2,-3,-1,-2,4,25,0
61663963682,0,1,0,-1,-3,-3,3,-1
61663972604,0,-2,-1,-1,1,4,-4,2
61663972604,-1,0,-1,-2,1,0,8,-3
61663988086,1,-1,0,0,-2,-5,-33,-4
61663988086,0,1,0,-2,1,2,9,-2
61663989685,-2,0,0,-2,-2,-3,-7,0
61663989685,1,-3,-4,-1,2,-3,3,-1
61664010085,-1,-1,-1,1,0,6,22,3
61664010085,-1,-1,-1,-1,-2,-5,-35,-5
61664011515,2,-1,-1,-2,-1,-5,-2,0
61664011515,-2,0,-1,-3,-3,-10,-19,-2
61664023582,-2,-2,0,0,-1,4,-3,-2
61664032548,-2,-1,2,1,0,-2,3,0
61664032548,1,-1,0,0,-2,-2,-1,0
61664047522,-1,-1,-2,-2,0,1,-6,1
61664047522,0,-1,-1,-1,0,0,4,-4
61664048998,-1,1,-2,-2,-1,-10,0,0
61664048998,-2,-1,0,0,-1,15,1,2
61664070035,-1,0,0,0,0,-9,-10,1
61664070035,0,-3,-4,-1,-3,12,4,-2
61664071549,-1,-1,0,-1,-2,-11,1,-4
61664071549,-3,0,0,1,0,-2,-5,-1
61664083706,-3,-2,-3,1,0,4,4,-2
61664083706,-1,-2,-1,-4,-1,-4,0,3
61664092549,0,-1,-2,-1,-2,2,-10,0
61664092549,-1,-2,-2,-2,-3,-1,5,1
61664107524,-2,-3,-2,-1,-1,-4,-14,-1
61664107524,-2,1,0,1,0,-3,1,-2
61664109042,0,-1,-1,-3,-3,-3,-2,-2
61664109042,-1,1,-1,-1,-1,6,-5,-1
61664130147,0,-1,-1,-3,-1,-3,1,1
61664130147,-1,-1,-2,0,-2,1,2,-1
61664131554,-2,-1,0,-1,-1,-1,-2,-1
61664131554,0,0,-1,-1,-1,-8,-2,0
61664143588,0,0,-2,-2,-2,2,3,1
61664143588,-1,-1,0,-1,0,-2,-5,-1
61664152579,-1,-1,0,-3,-1,7,14,1
61664152579,-1,-2,-1,0,1,-6,-3,-1
61664167566,-1,-1,0,-1,0,1,-11,-1
61664167566,-2,-2,0,0,-1,1,0,-1
61664169034,0,-1,-1,0,-1,-4,-8,0
61664169034,0,0,-1,-1,0,-2,0,-2
61664189878,0,0,-1,0,-1,-1,0,-3
61664189878,0,0,0,-2,0,-4,-1,-1
61664191465,-1,0,-2,-2,-2,-1,-2,-1
61664191465,-2,0,0,-1,0,1,0,-2
61664203593,-2,-2,0,-1,-2,-6,-2,-2
61664203593,-1,-2,-2,-1,-2,0,7,1
61664212578,-2,0,0,0,0,-2,-4,-1
61664212578,0,-1,0,-1,-1,9,4,2
61664227565,0,0,-1,0,0,0,-1,0
61664227565,-2,0,-2,-1,-2,2,-1,-2
61664229041,-1,-2,-3,-1,0,-1,2,-1
61664229041,-1,-1,0,2,0,-9,-4,-1
61664250026,0,-1,-2,-1,-2,3,8,0
61664250026,-2,0,0,0,0,-1,-3,1
61664251529,-1,-1,-1,-1,-1,1,-3,1
61664251529,-2,-1,-2,-2,-2,-3,4,0
61664263697,-1,-3,-1,-2,-1,-1,0,-2
61664263697,0,-2,-3,-1,-1,5,2,0
61664272525,-2,-1,-1,-2,-3,-20,-4,-4
61664272525,1,-1,-2,0,0,2,-2,-1
61664287572,-1,1,-1,-1,-1,-1,1,0
61664287572,0,-1,-2,-1,0,-3,-6,-3
61664288997,-2,-1,-2,1,0,7,-1,-1
61664288997,-1,-1,-1,-1,-1,-5,-2,0
61664310039,0,-2,0,2,0,-3,0,-2
61664310039,-1,0,2,-1,0,-1,2,1
61664311523,0,-1,-2,-2,-1,4,-2,-1
61664311523,-1,-1,-1,-3,0,-7,-2,0
61664332650,-1,0,-1,-3,-1,16,2,-2
61664332650,-3,0,-3,0,-2,-4,1,0
61664334012,-2,-2,0,0,-1,-1,-2,1
61664334012,0,-2,-1,0,-2,-5,-5,-3
61664347575,-2,-2,-2,-2,-1,2,1,-2
61664347575,0,0,0,0,0,-2,0,-1
61664349056,-1,1,0,-1,-1,2,-1,0
61664349056,0,-2,0,-2,-1,0,0,-1
61664370034,-2,0,-1,0,1,-8,-4,-1
61664370034,-1,-1,-1,-1,-2,7,1,-1
61664371528,-2,0,0,0,0,2,2,-1
61664371528,-1,1,0,0,-1,-3,-3,-1
61664392534,0,0,-1,-1,-1,-1,2,2
61664392534,-1,-1,0,-2,0,-7,-5,-1
61664394083,0,-1,-1,-2,-1,1,-3,-3
61664394083,-1,-3,0,-2,0,7,5,1
61664407589,-1,-1,1,0,0,-6,-2,1
61664407589,1,0,0,1,1,-1,2,-1
61664409047,0,-1,-1,-1,-3,-10,-3,0
61664409047,-1,-1,-1,-1,-1,-9,9,0
61664429911,-1,0,-1,-2,2,16,-17,-5
61664429911,-2,-2,-1,-3,-1,-4,2,-1
61664431485,-2,0,-2,-1,-1,2,-2,-2
61664431485,-3,-1,-4,-2,0,-1,2,-1
61664452563,0,-2,-1,0,-3,-10,3,1
61664452563,-1,-1,0,1,-1,2,-2,-1
61664454037,0,-2,0,-1,2,1,0,0
61664454037,-1,0,-1,-1,0,-4,-10,-1
61664466862,-1,-1,-1,0,-2,-3,6,-1
61664466862,1,-1,-1,-2,-3,-1,-4,-2
61664473682,-1,-2,0,0,-1,-1,2,-1
61664473682,-1,-1,1,-2,-1,-1,-6,-3
61664490023,-1,0,-2,-1,-1,-4,1,-2
61664490023,-2,-2,-1,-1,0,-3,0,0
61664491523,-1,-2,-2,-2,0,-1,-3,-1
61664491523,-1,-2,-2,-1,-1,1,-3,-2
61664512618,0,-1,-1,0,-2,-3,-1,0
61664512618,-1,-1,-1,-3,-1,-6,-4,0
61664513999,-1,-1,0,0,0,1,0,-2
61664513999,-1,0,-1,-1,-1,0,-2,0
61664526915,-1,-1,-2,-2,-3,-4,4,-2
61664526915,-1,-1,-2,-1,-1,0,-1,0
61664533814,-1,-2,-1,0,-1,-2,-2,-1
61664533814,0,0,1,0,-2,6,3,-2
61664550167,-1,-2,-2,-1,1,2,-1,-3
61664550167,0,-1,-1,-1,-3,-13,-6,-3
61664551554,-2,-3,-3,-1,-2,8,6,0
61664551554,-2,-1,-2,-1,-1,-5,-1,0
61664580060,0,-3,-2,-1,-1,-1,-1,0
61664580060,-1,-1,-1,0,-2,-1,-2,0
61664581556,0,-1,-1,0,-2,-2,-3,-3
61664581556,0,-1,1,-2,-2,5,-2,0
61664586840,-1,-1,1,-2,-1,-1,1,0
61664586840,0,-1,0,0,1,1,1,2
61664593720,-2,0,0,0,0,1,-6,0
61664593720,0,-1,-2,-1,-1,5,8,-1
61664610110,-1,0,-1,-1,-1,-4,-2,0
61664610110,-2,0,1,-1,-1,1,1,0
61664611543,0,0,0,-3,-1,-2,0,0
61664611543,-2,-3,-2,-3,1,-2,-5,-2
61664632561,-3,0,0,0,0,-1,-1,1
61664632561,-2,-3,-1,-1,-1,1,-1,-2
61664634188,-2,-1,-1,0,-1,-4,-2,0
61664634188,0,0,-1,1,1,-4,-1,-2
61664646836,-1,-2,0,-1,-1,-8,-2,-1
61664646836,0,-1,-2,0,0,9,-1,1
61664653647,0,-1,-3,-1,-2,-2,0,0
61664653647,-1,-1,-1,-2,-2,-4,-5,1
61664670007,-1,-1,-2,0,0,-4,-2,-2
61664670007,0,-1,-1,-2,-1,-4,0,0
61664671509,-1,-2,-1,-1,-2,0,0,-1
61664671509,1,-1,0,-1,-3,-4,-1,-1
61664692581,0,-2,1,-2,0,-2,-2,0
61664692581,-1,0,0,0,-2,-2,-1,-1
61664694039,1,-1,0,0,-1,-2,-1,0
61664694039,-2,-1,-2,1,0,-3,-1,-1
61664706835,-3,-2,0,0,-2,1,0,-2
61664706835,0,0,-2,-2,-3,-1,0,-1
61664713676,-2,1,-2,-1,0,1,0,-1
61664713676,-1,-1,0,0,-1,-5,-3,-1
61664730146,-1,1,0,0,0,2,0,0
61664730146,-2,0,-1,0,1,0,4,0
61664731558,-1,0,0,-1,-3,-11,-3,-3
61664731558,0,-3,-1,0,0,17,0,0
61664752535,-1,-1,-1,-1,-2,-2,0,-1
61664752535,-1,-1,0,-3,-1,0,-3,-1
61664754077,0,-2,0,-2,-1,-1,-1,-1
61664754077,-1,-1,-2,-1,-1,-4,0,-2
61664766135,-1,-1,-2,-2,0,2,-2,-1
61664766135,-1,-3,0,-1,-2,-2,0,-2
61664775079,-2,-2,1,-2,0,2,0,-3
61664775079,-2,1,-2,0,-1,-7,-1,1
61664790040,-1,1,-2,0,-2,3,-2,-2
61664790040,0,-1,-3,0,0,-2,-4,1
61664791522,-1,-1,-1,1,0,1,-2,1
61664791522,-2,-3,0,-2,0,1,0,-1
61664812547,-1,0,-2,-2,-1,0,-1,0
61664812547,-2,-1,-2,-1,-1,-1,0,-3
61664814016,0,-2,-1,-1,-1,-1,-2,-2
61664814016,-1,-1,-2,-1,-2,-4,-1,-1
61664826128,-1,-3,0,-1,-3,-2,2,-1
61664826128,0,-1,1,0,-1,0,-3,0
61664835082,0,0,-2,-2,-1,-2,0,-1
61664835082,-1,-1,0,-2,-3,-1,-2,0
61664850061,0,-3,0,-2,0,-1,-2,-1
61664850061,-1,-1,1,-1,-2,-2,-1,-1
61664851539,0,1,-1,0,0,2,-2,1
61664851539,-1,-1,-1,0,1,-3,-1,-1
61664872572,0,-2,-2,-1,-1,-2,-1,0
61664872572,-1,-1,-1,-1,0,0,0,-1
61664873994,-2,0,-2,0,-1,-5,0,-1
61664873994,-1,-1,0,-1,0,1,-3,-1
61664886095,-1,0,-3,-2,1,13,-3,-1
61664886095,-1,-1,-1,-3,-1,-20,-2,-1
61664895055,-2,-3,-1,-1,-1,-4,-2,0
61664895055,-1,0,-2,-1,-1,2,1,-1
61664910015,0,0,0,-2,0,-2,0,0
61664910015,1,-1,-2,0,0,5,0,-1
61664911496,1,0,1,-2,-1,-1,0,0
61664911496,-1,-1,-1,-1,-3,-4,0,-1
