61677944866,-0.703186035156,0.668212890625,-0.109375,-0.217041015625
61677959730,-0.703186035156,0.668212890625,-0.109313964844,-0.216979980469
61677981297,-0.70361328125,0.668273925781,-0.108520507812,-0.215881347656
61678004045,-0.702941894531,0.66845703125,-0.109558105469,-0.216979980469
61678019763,-0.701477050781,0.667236328125,-0.113220214844,-0.223510742188
61678041341,-0.699584960938,0.665893554688,-0.117370605469,-0.231018066406
61678063765,-0.698181152344,0.665100097656,-0.120544433594,-0.235961914062
61678078653,-0.698608398438,0.665832519531,-0.119506835938,-0.233154296875
61678102825,-0.700500488281,0.66748046875,-0.114929199219,-0.224975585938
61678156307,-0.701721191406,0.668518066406,-0.111389160156,-0.219848632812
61678157047,-0.701599121094,0.668334960938,-0.111694335938,-0.220642089844
61678165710,-0.701110839844,0.66796875,-0.11279296875,-0.222595214844
61678184326,-0.699890136719,0.667114257812,-0.115905761719,-0.227294921875
61678199362,-0.699523925781,0.667114257812,-0.116638183594,-0.228210449219
61678222180,-0.699584960938,0.667175292969,-0.1162109375,-0.227905273438
61678266020,-0.699645996094,0.667175292969,-0.1162109375,-0.227905273438
61678275962,-0.69970703125,0.667236328125,-0.116088867188,-0.2275390625
61678282309,-0.69970703125,0.667236328125,-0.115966796875,-0.227478027344
61678297314,-0.699829101562,0.667724609375,-0.115539550781,-0.22607421875
61678319852,-0.700500488281,0.667724609375,-0.113952636719,-0.224670410156
61678349108,-0.701110839844,0.668212890625,-0.111572265625,-0.222412109375
61678365463,-0.700256347656,0.667602539062,-0.112854003906,-0.226257324219
61678388065,-0.698364257812,0.666259765625,-0.116943359375,-0.23388671875
61678410458,-0.697509765625,0.665710449219,-0.119079589844,-0.236877441406
61678425463,-0.698669433594,0.666870117188,-0.116088867188,-0.231750488281
61678447987,-0.700500488281,0.668334960938,-0.110595703125,-0.224670410156
61678470519,-0.70068359375,0.66845703125,-0.108093261719,-0.224792480469
61678485511,-0.699035644531,0.667114257812,-0.110107421875,-0.232727050781
61678508003,-0.698486328125,0.66748046875,-0.108764648438,-0.234008789062
61678530516,-0.698669433594,0.667602539062,-0.106567382812,-0.234130859375
61678544813,-0.698669433594,0.668090820312,-0.104370117188,-0.233642578125
61678568030,-0.698791503906,0.668884277344,-0.101013183594,-0.232482910156
61678590469,-0.699340820312,0.669860839844,-0.0971069335938,-0.229675292969
61678611686,-0.699890136719,0.671203613281,-0.0924072265625,-0.22607421875
61678628029,-0.700622558594,0.672790527344,-0.0863037109375,-0.221435546875
61678650494,-0.700744628906,0.67578125,-0.0790405273438,-0.214782714844
61678671613,-0.70068359375,0.6796875,-0.0701293945312,-0.205261230469
61678687953,-0.701171875,0.683532714844,-0.0595703125,-0.194091796875
61678710492,-0.701354980469,0.687622070312,-0.0470581054688,-0.181884765625
61678731687,-0.70166015625,0.691833496094,-0.0320434570312,-0.16748046875
61678747938,-0.701599121094,0.696350097656,-0.0153198242188,-0.150268554688
61678770466,-0.701354980469,0.700927734375,0.00225830078125,-0.129760742188
61678791607,-0.701171875,0.704467773438,0.0211791992188,-0.107666015625
61678807952,-0.700805664062,0.707092285156,0.0419921875,-0.0845336914062
61678830518,-0.700073242188,0.708679199219,0.0636596679688,-0.0601806640625
61678851667,-0.698852539062,0.709289550781,0.0856323242188,-0.03369140625
61678867982,-0.696411132812,0.709533691406,0.107299804688,-0.00592041015625
61678890466,-0.693420410156,0.708862304688,0.126831054688,0.0238647460938
61678911665,-0.689636230469,0.707397460938,0.144958496094,0.054443359375
61678935509,-0.684997558594,0.705017089844,0.1630859375,0.0843505859375
61678950493,-0.6796875,0.701782226562,0.180908203125,0.112915039062
61678955986,-0.674011230469,0.697875976562,0.198181152344,0.139282226562
61678978461,-0.668395996094,0.692993164062,0.214050292969,0.164855957031
61679001026,-0.662414550781,0.68798828125,0.228271484375,0.189147949219
61679015959,-0.656372070312,0.682861328125,0.240600585938,0.211975097656
61679038496,-0.650329589844,0.678039550781,0.251281738281,0.232788085938
61679061005,-0.644897460938,0.673034667969,0.26123046875,0.250854492188
61679075987,-0.640502929688,0.667236328125,0.271179199219,0.266418457031
61679098467,-0.636901855469,0.661437988281,0.279968261719,0.280029296875
61679121041,-0.634094238281,0.656311035156,0.286926269531,0.291259765625
61679136002,-0.631591796875,0.651489257812,0.29296875,0.30126953125
61679158480,-0.629516601562,0.647338867188,0.297973632812,0.309448242188
61679180999,-0.627685546875,0.643676757812,0.302856445312,0.316040039062
61679195938,-0.626281738281,0.640808105469,0.306579589844,0.321166992188
61679218496,-0.62451171875,0.638488769531,0.310241699219,0.325561523438
61679240986,-0.622863769531,0.636840820312,0.312744140625,0.329528808594
61679257327,-0.621765136719,0.635803222656,0.314636230469,0.331787109375
61679278541,-0.621032714844,0.63525390625,0.316284179688,0.332763671875
61679300842,-0.620361328125,0.635131835938,0.317443847656,0.3330078125
61679317308,-0.620300292969,0.635131835938,0.318115234375,0.332580566406
61679338454,-0.620483398438,0.635131835938,0.318359375,0.33203125
61679360940,-0.620849609375,0.635192871094,0.318054199219,0.33154296875
61679375989,-0.621520996094,0.635192871094,0.31787109375,0.330383300781
61679398581,-0.6220703125,0.635131835938,0.317504882812,0.329895019531
61679420971,-0.622375488281,0.635009765625,0.317504882812,0.329467773438
61679435986,-0.622375488281,0.635314941406,0.317199707031,0.329223632812
61679465936,-0.622619628906,0.63525390625,0.317321777344,0.328674316406
61679480998,-0.623291015625,0.634887695312,0.317749023438,0.327758789062
61679497336,-0.623962402344,0.634399414062,0.317932128906,0.327209472656
61679518508,-0.624572753906,0.634033203125,0.317565917969,0.3271484375
61679540985,-0.624938964844,0.633972167969,0.317138671875,0.327026367188
61679557361,-0.62548828125,0.633911132812,0.316772460938,0.326477050781
61679578447,-0.625915527344,0.633666992188,0.316833496094,0.325988769531
61679600862,-0.626220703125,0.633483886719,0.316955566406,0.325622558594
61679617363,-0.626159667969,0.633361816406,0.317321777344,0.325622558594
61679638324,-0.626220703125,0.63330078125,0.317443847656,0.325622558594
61679660838,-0.626403808594,0.633056640625,0.317687988281,0.325378417969
61679677312,-0.626708984375,0.6328125,0.317687988281,0.325317382812
61679698424,-0.627136230469,0.632385253906,0.317565917969,0.325439453125
61679720991,-0.627380371094,0.632202148438,0.317260742188,0.325622558594
61679737391,-0.627380371094,0.632080078125,0.317077636719,0.326049804688
61679758506,-0.62744140625,0.631896972656,0.317138671875,0.326232910156
61679776362,-0.62744140625,0.631958007812,0.317199707031,0.325988769531
61679797306,-0.627319335938,0.632202148438,0.317077636719,0.325927734375
61679818475,-0.627197265625,0.632385253906,0.316955566406,0.325927734375
61679836403,-0.627197265625,0.632385253906,0.316955566406,0.325805664062
61679858778,-0.62744140625,0.632202148438,0.3173828125,0.325439453125
61679878460,-0.627624511719,0.631896972656,0.317443847656,0.325500488281
61679896321,-0.627807617188,0.631408691406,0.317810058594,0.325744628906
61679918756,-0.628051757812,0.630859375,0.318176269531,0.325988769531
61679938366,-0.62841796875,0.630432128906,0.318176269531,0.326171875
61679956388,-0.629211425781,0.630310058594,0.317565917969,0.325439453125
61679978798,-0.630615234375,0.630676269531,0.316101074219,0.323425292969
61679998404,-0.633178710938,0.631530761719,0.313598632812,0.319152832031
61680020873,-0.637084960938,0.633178710938,0.309692382812,0.311889648438
61680038773,-0.642395019531,0.635375976562,0.303771972656,0.302185058594
61680058609,-0.648803710938,0.637817382812,0.296569824219,0.290283203125
61680080971,-0.655883789062,0.641052246094,0.287902832031,0.275573730469
61680098782,-0.663391113281,0.64501953125,0.277709960938,0.25830078125
61680118473,-0.671936035156,0.649536132812,0.26513671875,0.237243652344
61680141023,-0.681396484375,0.653869628906,0.25048828125,0.213134765625
61680158840,-0.691101074219,0.657897949219,0.234008789062,0.186462402344
61680178383,-0.700073242188,0.661987304688,0.216125488281,0.158020019531
61680201107,-0.707275390625,0.666748046875,0.196228027344,0.129272460938
61680218761,-0.713012695312,0.671691894531,0.17431640625,0.100036621094
61680238397,-0.717834472656,0.676208496094,0.149719238281,0.0706176757812
61680260929,-0.721557617188,0.679748535156,0.125,0.0406494140625
61680278742,-0.723327636719,0.682861328125,0.101684570312,0.0103759765625
61680298340,-0.722351074219,0.686645507812,0.0794677734375,-0.0194091796875
61680321032,-0.72021484375,0.689697265625,0.0574951171875,-0.04833984375
61680338716,-0.718078613281,0.69091796875,0.03662109375,-0.0755615234375
61680358514,-0.715637207031,0.691101074219,0.017333984375,-0.099853515625
61680381163,-0.712646484375,0.691101074219,-0.0006103515625,-0.120300292969
61680398725,-0.709594726562,0.690734863281,-0.0175170898438,-0.138061523438
61680418529,-0.707092285156,0.689453125,-0.0331420898438,-0.15380859375
61680440952,-0.705200195312,0.687377929688,-0.046875,-0.167358398438
61680458844,-0.704223632812,0.684936523438,-0.0572509765625,-0.177978515625
61680479787,-0.703918457031,0.682189941406,-0.0658569335938,-0.1865234375
61680496362,-0.703735351562,0.679626464844,-0.0728759765625,-0.19384765625
61680517986,-0.703552246094,0.677062988281,-0.0789184570312,-0.200927734375
61680538980,-0.703430175781,0.674438476562,-0.084228515625,-0.207885742188
61680561580,-0.703369140625,0.671752929688,-0.089599609375,-0.214538574219
61680578412,-0.703186035156,0.668884277344,-0.0952758789062,-0.221496582031
61680599082,-0.703308105469,0.666137695312,-0.100708007812,-0.226928710938
61680614760,-0.703735351562,0.665100097656,-0.105407714844,-0.226501464844
61680637888,-0.703491210938,0.667541503906,-0.107666015625,-0.218933105469
61680658974,-0.701110839844,0.671813964844,-0.106811523438,-0.2138671875
61680674831,-0.698547363281,0.674377441406,-0.105224609375,-0.21484375
61680697970,-0.696411132812,0.675537109375,-0.104125976562,-0.218688964844
61680719165,-0.694702148438,0.675720214844,-0.104248046875,-0.223388671875
61680734764,-0.694213867188,0.674987792969,-0.106689453125,-0.226196289062
61680757915,-0.695373535156,0.673461914062,-0.110961914062,-0.225036621094
61680780484,-0.697387695312,0.671936035156,-0.114929199219,-0.221374511719
61680794754,-0.699157714844,0.670776367188,-0.117370605469,-0.2177734375
61680818172,-0.700134277344,0.670104980469,-0.118286132812,-0.216247558594
61680840753,-0.700439453125,0.669738769531,-0.117919921875,-0.216796875
61680854720,-0.700134277344,0.669677734375,-0.116638183594,-0.218383789062
61680877965,-0.699645996094,0.669982910156,-0.114990234375,-0.220031738281
61680900437,-0.69921875,0.67041015625,-0.113586425781,-0.220886230469
61680915441,-0.698913574219,0.670837402344,-0.112670898438,-0.221008300781
61680937967,-0.698547363281,0.67138671875,-0.112243652344,-0.220642089844
61680960437,-0.698181152344,0.671936035156,-0.112243652344,-0.22021484375
61680974764,-0.697998046875,0.672302246094,-0.112121582031,-0.2197265625
61680997934,-0.697937011719,0.672607421875,-0.111755371094,-0.219299316406
61681020435,-0.69775390625,0.6728515625,-0.111083984375,-0.219299316406
61681034762,-0.697509765625,0.673095703125,-0.110290527344,-0.219665527344
61681057915,-0.697265625,0.67333984375,-0.109741210938,-0.220092773438
61681080462,-0.697143554688,0.673522949219,-0.109619140625,-0.220092773438
61681094791,-0.697204589844,0.673583984375,-0.109741210938,-0.219543457031
61681117965,-0.697387695312,0.673522949219,-0.109924316406,-0.219055175781
