61440145271,0.427734375,0.2060546875,-0.92431640625
61440160240,0.42626953125,0.2041015625,-0.9296875
61440184059,0.42333984375,0.1884765625,-0.87451171875
61440205421,0.9189453125,0.37646484375,-0.966796875
61440220321,-0.1923828125,0.0634765625,-1.29736328125
61440244012,-0.06982421875,0.10400390625,-1.36572265625
61440266374,0.4443359375,0.27685546875,-1.20263671875
61440281539,0.9873046875,0.39990234375,-0.73779296875
61440302893,0.9482421875,0.31689453125,-0.435546875
61440358513,0.34765625,0.10791015625,-0.662109375
61440360611,-0.1689453125,-0.0009765625,-1.16845703125
61440365659,-0.01513671875,0.11669921875,-1.39990234375
61440386275,0.21044921875,0.23974609375,-1.17578125
61440404108,0.4931640625,0.15625,-0.83935546875
61440433516,0.4306640625,0.2041015625,-0.9228515625
61440460138,0.427734375,0.19970703125,-0.91796875
61440470236,0.42626953125,0.205078125,-0.91357421875
61440483987,0.41796875,0.19384765625,-0.90673828125
61440505142,0.267578125,0.06103515625,-0.7158203125
61440520652,0.248046875,0.224609375,-1.28857421875
61440544623,0.1513671875,0.19580078125,-1.3388671875
61440565681,0.65625,0.33740234375,-1.07373046875
61440582110,1.0537109375,0.39306640625,-0.591796875
61440604691,0.7578125,0.24072265625,-0.47021484375
61440625862,0.060546875,0.0322265625,-0.88330078125
61440642192,-0.185546875,0.02783203125,-1.35693359375
61440664613,0.35693359375,0.240234375,-1.2578125
61440679039,0.9853515625,0.39013671875,-0.72216796875
61440702159,0.5166015625,0.2158203125,-0.8671875
61440724665,0.40283203125,0.2080078125,-0.8994140625
61440738961,0.4267578125,0.21337890625,-0.91748046875
61440762162,0.4296875,0.205078125,-0.9296875
61440784604,0.4287109375,0.19970703125,-0.931640625
61440798988,0.43017578125,0.19287109375,-0.9228515625
61440822144,0.42578125,0.19287109375,-0.91015625
61440844668,0.4296875,0.1943359375,-0.9189453125
61440858973,0.4267578125,0.19775390625,-0.9150390625
61440882143,0.4287109375,0.20703125,-0.919921875
61440912101,0.43115234375,0.20361328125,-0.919921875
61440927140,0.43505859375,0.20068359375,-0.91455078125
61440942159,0.435546875,0.19775390625,-0.91650390625
61440964631,0.431640625,0.19482421875,-0.9287109375
61440985814,0.42724609375,0.1953125,-0.91650390625
61441002125,0.43359375,0.1943359375,-0.92724609375
61441024611,0.43994140625,0.2021484375,-0.9150390625
61441045922,0.435546875,0.1982421875,-0.91162109375
61441062139,0.4345703125,0.19677734375,-0.91357421875
61441084643,0.4404296875,0.19580078125,-0.908203125
61441105772,0.4345703125,0.19970703125,-0.91650390625
61441122078,0.4326171875,0.1962890625,-0.908203125
61441144605,0.4365234375,0.1982421875,-0.90380859375
61441165780,0.44189453125,0.2041015625,-0.9150390625
61441182116,0.43408203125,0.20751953125,-0.9267578125
61441204661,0.431640625,0.20703125,-0.9228515625
61441225657,0.44091796875,0.19921875,-0.91943359375
61441242115,0.44189453125,0.19091796875,-0.91455078125
61441264688,0.43701171875,0.185546875,-0.90869140625
61441285850,0.443359375,0.1884765625,-0.9072265625
61441309693,0.4423828125,0.19775390625,-0.9130859375
61441324646,0.4384765625,0.20263671875,-0.91748046875
61441347148,0.439453125,0.20458984375,-0.90625
61441362157,0.44091796875,0.20068359375,-0.91162109375
61441384650,0.45361328125,0.19970703125,-0.91650390625
61441407119,0.45458984375,0.2021484375,-0.92431640625
61441422094,0.447265625,0.201171875,-0.92333984375
61441450795,0.43603515625,0.18701171875,-0.904296875
61441467160,0.4326171875,0.18505859375,-0.9072265625
61441489603,0.44091796875,0.20458984375,-0.923828125
61441510771,0.44384765625,0.21826171875,-0.91455078125
61441527110,0.45068359375,0.2275390625,-0.9033203125
61441549637,0.44677734375,0.22607421875,-0.8994140625
61441570747,0.44091796875,0.22314453125,-0.900390625
61441587096,0.4423828125,0.2294921875,-0.91259765625
61441609627,0.4443359375,0.2216796875,-0.92578125
61441630807,0.4423828125,0.212890625,-0.91943359375
61441647134,0.43896484375,0.19921875,-0.89990234375
61441669587,0.43212890625,0.1923828125,-0.8896484375
61441690813,0.4365234375,0.19482421875,-0.8896484375
61441707147,0.44921875,0.208984375,-0.91015625
61441729612,0.45263671875,0.21435546875,-0.9208984375
61441750693,0.447265625,0.2138671875,-0.919921875
61441767125,0.4375,0.20751953125,-0.9091796875
61441789594,0.43896484375,0.20556640625,-0.90869140625
61441810792,0.455078125,0.17236328125,-0.951171875
61441826415,0.42529296875,0.16650390625,-0.984375
61441849653,0.40283203125,0.17919921875,-0.99169921875
61441872106,0.4072265625,0.17822265625,-1.037109375
61441886501,0.39697265625,0.19384765625,-1.0556640625
61441909591,0.37451171875,0.18310546875,-1.07470703125
61441932084,0.38330078125,0.17041015625,-1.1005859375
61441946434,0.400390625,0.14404296875,-1.1435546875
61441969616,0.37255859375,0.13525390625,-1.1728515625
61441992167,0.3134765625,0.1005859375,-1.16943359375
61442013236,0.22021484375,0.09814453125,-1.18701171875
61442029619,0.134765625,0.10302734375,-1.21533203125
61442052081,0.0908203125,0.09716796875,-1.26416015625
61442073180,0.04638671875,0.09765625,-1.2568359375
61442089638,-0.00390625,0.07861328125,-1.220703125
61442112171,-0.08642578125,0.0224609375,-1.14892578125
61442133167,-0.140625,-0.03759765625,-1.11181640625
61442149585,-0.19580078125,-0.01025390625,-1.076171875
61442172118,-0.25341796875,0.0029296875,-1.068359375
61442193309,-0.31591796875,0.0224609375,-1.07421875
61442210065,-0.322265625,0.037109375,-0.96435546875
61442232139,-0.34521484375,-0.0234375,-0.91943359375
61442253315,-0.38623046875,-0.07421875,-0.84423828125
61442269597,-0.4091796875,-0.037109375,-0.8046875
61442292104,-0.45166015625,-0.02294921875,-0.8046875
61442313344,-0.46142578125,-0.03125,-0.7998046875
61442329645,-0.47900390625,-0.0078125,-0.7646484375
61442352092,-0.50341796875,-0.02880859375,-0.7099609375
61442373289,-0.50830078125,-0.05224609375,-0.673828125
61442389646,-0.5341796875,-0.0927734375,-0.66064453125
61442412088,-0.54345703125,-0.10400390625,-0.64111328125
61442433124,-0.5576171875,-0.13525390625,-0.4970703125
61442449562,-0.58447265625,-0.185546875,-0.59326171875
61442472105,-0.611328125,-0.14990234375,-0.548828125
61442493334,-0.6259765625,-0.107421875,-0.58154296875
61442509631,-0.6455078125,-0.12646484375,-0.5400390625
61442532148,-0.66162109375,-0.15478515625,-0.515625
61442553332,-0.66943359375,-0.18505859375,-0.5068359375
61442569610,-0.6865234375,-0.16650390625,-0.52880859375
61442592088,-0.70361328125,-0.12890625,-0.533203125
61442613282,-0.7060546875,-0.10107421875,-0.54150390625
61442628972,-0.71875,-0.0859375,-0.52392578125
61442652087,-0.7216796875,-0.046875,-0.5146484375
61442673259,-0.75341796875,-0.02001953125,-0.521484375
61442688934,-0.771484375,-0.001953125,-0.5439453125
61442712074,-0.80517578125,0.01904296875,-0.59130859375
61442733299,-0.806640625,0.05419921875,-0.59521484375
61442748966,-0.82763671875,0.03662109375,-0.6044921875
61442772112,-0.83837890625,0.01953125,-0.6220703125
61442793298,-0.84375,0.03662109375,-0.65625
61442808920,-0.86669921875,0.06494140625,-0.7119140625
61442832087,-0.900390625,0.08984375,-0.7392578125
61442854612,-0.92822265625,0.08935546875,-0.78857421875
61442869061,-0.908203125,0.14892578125,-0.81640625
61442892048,-0.91259765625,0.154296875,-0.83642578125
61442914593,-0.912109375,0.11328125,-0.83984375
61442928924,-0.9169921875,0.02685546875,-0.7734375
61442936381,-0.88720703125,-0.05322265625,-0.72802734375
61442957575,-0.85107421875,-0.0498046875,-0.7333984375
61442980213,-0.79443359375,0.06201171875,-0.716796875
61442996486,-0.7490234375,0.16748046875,-0.7373046875
61443017664,-0.73291015625,0.16064453125,-0.7109375
61443039975,-0.72021484375,0.12744140625,-0.68701171875
61443056531,-0.68994140625,0.1181640625,-0.6552734375
61443077640,-0.69482421875,0.12451171875,-0.642578125
61443100061,-0.7021484375,0.15673828125,-0.66455078125
61443116462,-0.708984375,0.19677734375,-0.67041015625
61443137589,-0.7138671875,0.16259765625,-0.6484375
61443160090,-0.72802734375,0.1474609375,-0.64111328125
61443175109,-0.74658203125,0.16455078125,-0.650390625
61443197709,-0.7568359375,0.1787109375,-0.64990234375
61443220098,-0.77685546875,0.203125,-0.66943359375
61443235129,-0.80810546875,0.17578125,-0.6826171875
61443257719,-0.791015625,0.1396484375,-0.6494140625
61443280036,-0.78857421875,0.11962890625,-0.64599609375
61443295091,-0.78076171875,0.123046875,-0.6640625
61443317592,-0.77978515625,0.150390625,-0.6669921875
61443340113,-0.7822265625,0.169921875,-0.66845703125
61443355094,-0.77197265625,0.1474609375,-0.6650390625
61443377537,-0.77392578125,0.11669921875,-0.63818359375
61443408164,-0.7666015625,0.11572265625,-0.6572265625
61443416460,-0.734375,0.1279296875,-0.65576171875
61443437645,-0.71142578125,0.125,-0.6552734375
61443460059,-0.69775390625,0.11474609375,-0.646484375
61443476437,-0.666015625,0.10693359375,-0.64111328125
61443497591,-0.62451171875,0.10498046875,-0.62939453125
61443520059,-0.59130859375,0.115234375,-0.64111328125
61443536439,-0.56640625,0.15625,-0.6494140625
61443557697,-0.5341796875,0.18408203125,-0.66455078125
61443580106,-0.5234375,0.19482421875,-0.71435546875
61443596437,-0.52587890625,0.1884765625,-0.734375
61443617588,-0.51171875,0.19482421875,-0.72998046875
61443640051,-0.47802734375,0.18310546875,-0.76806640625
61443656416,-0.44140625,0.1787109375,-0.77685546875
61443677428,-0.4013671875,0.19482421875,-0.80615234375
61443700088,-0.369140625,0.19775390625,-0.83544921875
61443716443,-0.3515625,0.203125,-0.86962890625
61443737666,-0.31787109375,0.1845703125,-0.90869140625
61443760138,-0.2978515625,0.1904296875,-0.95166015625
61443777895,-0.26123046875,0.21337890625,-0.98779296875
61443797640,-0.24951171875,0.1943359375,-1.033203125
61443820122,-0.22412109375,0.17529296875,-1.04833984375
61443837899,-0.14990234375,0.1865234375,-1.05126953125
61443857575,-0.09033203125,0.1875,-1.0927734375
61443880156,-0.0400390625,0.1767578125,-1.12646484375
61443897947,0.0146484375,0.20361328125,-1.11279296875
61443917458,0.09716796875,0.2080078125,-1.1240234375
61443940165,0.134765625,0.19775390625,-1.12255859375
61443957873,0.17041015625,0.1943359375,-1.171875
61443977604,0.24267578125,0.21630859375,-1.1435546875
61444000018,0.30224609375,0.2158203125,-1.12548828125
61444017864,0.31298828125,0.23095703125,-1.06494140625
61444037635,0.318359375,0.185546875,-1.0771484375
61444060001,0.34130859375,0.16455078125,-1.05615234375
61444077955,0.3662109375,0.1943359375,-1.02734375
61444097575,0.361328125,0.19921875,-1.00244140625
61444119927,0.361328125,0.22119140625,-0.99609375
61444137856,0.3271484375,0.2236328125,-1.02587890625
61444157705,0.27734375,0.19091796875,-1.04150390625
61444180114,0.28662109375,0.166015625,-1.0341796875
61444197900,0.3388671875,0.2255859375,-0.97216796875
61444217651,0.38671875,0.244140625,-0.947265625
61444240083,0.40478515625,0.18115234375,-0.92041015625
61444257869,0.423828125,0.13525390625,-0.90380859375
61444277652,0.44775390625,0.1328125,-0.916015625
61444300019,0.46728515625,0.140625,-0.931640625
61444317903,0.47607421875,0.15185546875,-0.939453125
61444338899,0.474609375,0.177734375,-0.94091796875
61444355371,0.45654296875,0.20263671875,-0.9326171875
61444377901,0.42724609375,0.21630859375,-0.9365234375
61444398944,0.4140625,0.21435546875,-0.94189453125
61444419963,0.40673828125,0.1953125,-0.939453125
61444437857,0.416015625,0.18017578125,-0.931640625
61444458916,0.41796875,0.16650390625,-0.93115234375
61444475378,0.42919921875,0.16748046875,-0.916015625
61444497936,0.4384765625,0.1640625,-0.9189453125
61444518278,0.43994140625,0.18115234375,-0.927734375
61444534558,0.43994140625,0.18701171875,-0.92822265625
61444557038,0.439453125,0.19189453125,-0.93408203125
61444578344,0.4287109375,0.1806640625,-0.93603515625
61444594581,0.42529296875,0.1767578125,-0.9169921875
61444617055,0.4248046875,0.1806640625,-0.912109375
61444639667,0.4375,0.17626953125,-0.9150390625
61444653941,0.427734375,0.18212890625,-0.93310546875
61444677068,0.42431640625,0.189453125,-0.92724609375
61444714593,0.431640625,0.1875,-0.92236328125
61444737113,0.43310546875,0.1787109375,-0.90869140625
61444759550,0.4423828125,0.18017578125,-0.91162109375
61444774559,0.435546875,0.17333984375,-0.9091796875
61444797043,0.431640625,0.1767578125,-0.90869140625
61444819543,0.42724609375,0.18603515625,-0.91015625
61444834613,0.42626953125,0.19287109375,-0.91845703125
61444857134,0.42578125,0.193359375,-0.92919921875
61444879651,0.4208984375,0.19091796875,-0.9306640625
61444893872,0.42041015625,0.18701171875,-0.93017578125
61444917094,0.423828125,0.1767578125,-0.9169921875
61444939491,0.42919921875,0.17138671875,-0.91552734375
61444962074,0.427734375,0.16064453125,-0.921875
61444977073,0.43115234375,0.16650390625,-0.92236328125
61445005640,0.4287109375,0.17529296875,-0.9228515625
61445013883,0.4267578125,0.1796875,-0.92626953125
61445037010,0.43212890625,0.18359375,-0.9228515625
61445059568,0.4287109375,0.18408203125,-0.91943359375
61445073956,0.427734375,0.1875,-0.9130859375
61445097060,0.431640625,0.18505859375,-0.9169921875
61445119586,0.431640625,0.189453125,-0.9169921875
61445133939,0.4345703125,0.1875,-0.91357421875
61445157061,0.43017578125,0.1884765625,-0.91943359375
61445179589,0.43310546875,0.189453125,-0.91796875
61445193908,0.4287109375,0.18994140625,-0.91845703125
61445217095,0.435546875,0.19189453125,-0.92041015625
61445239532,0.43310546875,0.18701171875,-0.921875
61445260688,0.42822265625,0.1845703125,-0.92236328125
61445277096,0.43212890625,0.1845703125,-0.9208984375
61445299578,0.421875,0.1787109375,-0.908203125
61445320762,0.42626953125,0.1796875,-0.91064453125
61445337031,0.4375,0.18798828125,-0.9296875
61445359580,0.4248046875,0.1904296875,-0.93603515625
61445380816,0.41943359375,0.19091796875,-0.9267578125
61445397087,0.42822265625,0.18701171875,-0.92724609375
61445419559,0.43115234375,0.1806640625,-0.91845703125
61445440583,0.4296875,0.17724609375,-0.91162109375
61445457153,0.43359375,0.17919921875,-0.90380859375
61445479541,0.43603515625,0.1865234375,-0.91552734375
61445500773,0.4326171875,0.19140625,-0.91796875
61445517067,0.4296875,0.197265625,-0.9189453125
61445539531,0.4287109375,0.193359375,-0.916015625
61445560717,0.4326171875,0.1875,-0.921875
61445577030,0.4306640625,0.18310546875,-0.92138671875
61445599526,0.43115234375,0.181640625,-0.9296875
61445620851,0.42236328125,0.1787109375,-0.91796875
61445637033,0.42529296875,0.18505859375,-0.92236328125
61445659559,0.423828125,0.185546875,-0.92236328125
61445682042,0.42724609375,0.1884765625,-0.9267578125
61445697032,0.4267578125,0.1884765625,-0.9208984375
61445719570,0.42529296875,0.18310546875,-0.923828125
61445742046,0.4248046875,0.185546875,-0.91845703125
61445757108,0.427734375,0.1787109375,-0.9248046875
61445779556,0.42919921875,0.1865234375,-0.921875
61445802028,0.4296875,0.185546875,-0.91845703125
