61544702388,0.52734375,0.1181640625,-0.88525390625
61544723409,0.5244140625,0.1181640625,-0.8818359375
61544747194,0.48046875,0.11865234375,-0.88232421875
61544762096,0.9599609375,0.29296875,-0.9501953125
61544783460,-0.14990234375,-0.05078125,-1.15478515625
61544807127,-0.1044921875,-0.03564453125,-1.26953125
61544822200,0.22216796875,0.1005859375,-1.31591796875
61544843388,0.86181640625,0.28125,-0.9375
61544867227,1.1630859375,0.30224609375,-0.47900390625
61544897815,0.78173828125,0.13330078125,-0.4501953125
61544906982,0.11279296875,-0.04833984375,-0.87451171875
61544927668,-0.0869140625,-0.0380859375,-1.322265625
61544942011,0.32080078125,0.14208984375,-1.2158203125
61544963382,0.5146484375,0.0927734375,-0.85009765625
61544986497,0.51171875,0.12109375,-0.89013671875
61545023178,0.5322265625,0.11962890625,-0.88330078125
61545033526,0.53369140625,0.12109375,-0.87939453125
61545046543,0.5166015625,0.12158203125,-0.869140625
61545061486,0.26025390625,0.04833984375,-0.91162109375
61545084021,0.5556640625,0.2099609375,-1.1630859375
61545107802,0.2958984375,0.130859375,-1.259765625
61545122146,0.79638671875,0.265625,-0.9912109375
61545145334,1.162109375,0.31689453125,-0.52392578125
61545168288,0.833984375,0.154296875,-0.435546875
61545182129,0.142578125,-0.04833984375,-0.88525390625
61545205332,-0.0771484375,-0.041015625,-1.3310546875
61545227779,0.48681640625,0.1708984375,-1.20361328125
61545242122,1.1015625,0.31298828125,-0.65771484375
61545265375,0.3681640625,0.00634765625,-0.76318359375
61545287899,0.544921875,0.10302734375,-0.884765625
61545302242,0.5322265625,0.12353515625,-0.88037109375
61545325314,0.53173828125,0.12451171875,-0.87060546875
61545348225,0.529296875,0.12646484375,-0.8681640625
61545362231,0.5302734375,0.123046875,-0.87109375
61545385338,0.53515625,0.12353515625,-0.8857421875
61545407787,0.53125,0.119140625,-0.88671875
61545428881,0.53369140625,0.11962890625,-0.876953125
61545445921,0.5302734375,0.1181640625,-0.87646484375
61545468346,0.53076171875,0.12255859375,-0.87109375
61545488978,0.53125,0.1220703125,-0.8818359375
61545505340,0.533203125,0.1298828125,-0.87451171875
61545527796,0.53271484375,0.12744140625,-0.875
61545549103,0.53369140625,0.12255859375,-0.87109375
61545565334,0.537109375,0.12451171875,-0.8759765625
61545587769,0.5322265625,0.12353515625,-0.86865234375
61545610343,0.52783203125,0.11962890625,-0.86572265625
61545625371,0.52978515625,0.12548828125,-0.86572265625
61545647826,0.5380859375,0.126953125,-0.8818359375
61545668938,0.54052734375,0.13916015625,-0.8916015625
61545692803,0.53564453125,0.138671875,-0.88623046875
61545707585,0.54150390625,0.13134765625,-0.87451171875
61545728812,0.54150390625,0.1279296875,-0.875
61545745363,0.53466796875,0.12109375,-0.861328125
61545767800,0.51953125,0.11181640625,-0.8564453125
61545789025,0.5263671875,0.11328125,-0.859375
61545805349,0.52294921875,0.14453125,-0.8701171875
61545827778,0.53271484375,0.16552734375,-0.884765625
61545849111,0.53662109375,0.173828125,-0.88037109375
61545865334,0.546875,0.1591796875,-0.87353515625
61545887825,0.5380859375,0.12939453125,-0.8701171875
61545910714,0.53271484375,0.11474609375,-0.86767578125
61545925338,0.5322265625,0.12158203125,-0.87109375
61545947495,0.52783203125,0.13818359375,-0.86767578125
61545970433,0.52978515625,0.162109375,-0.88232421875
61545985334,0.5361328125,0.1650390625,-0.89453125
61546015306,0.533203125,0.1513671875,-0.873046875
61546030303,0.51806640625,0.1416015625,-0.86767578125
61546052792,0.51611328125,0.13720703125,-0.865234375
61546073972,0.513671875,0.14501953125,-0.87255859375
61546090373,0.52099609375,0.1630859375,-0.87646484375
61546112780,0.53076171875,0.16796875,-0.88671875
61546134002,0.52099609375,0.15625,-0.88525390625
61546150338,0.49169921875,0.14697265625,-0.8876953125
61546172824,0.49072265625,0.1396484375,-0.89013671875
61546193958,0.5439453125,0.14111328125,-0.8779296875
61546210334,0.53369140625,0.14697265625,-0.87939453125
61546232732,0.52197265625,0.13916015625,-0.873046875
61546253832,0.52490234375,0.14697265625,-0.88134765625
61546270661,0.521484375,0.16064453125,-0.876953125
61546292761,0.51611328125,0.16064453125,-0.888671875
61546313946,0.51806640625,0.15673828125,-0.876953125
61546330342,0.509765625,0.13916015625,-0.87060546875
61546352786,0.50634765625,0.1416015625,-0.857421875
61546382788,0.5224609375,0.154296875,-0.88330078125
61546390367,0.52392578125,0.1513671875,-0.8896484375
61546412769,0.52099609375,0.16455078125,-0.880859375
61546435346,0.51806640625,0.1572265625,-0.88671875
61546449646,0.5087890625,0.1396484375,-0.89208984375
61546472765,0.50244140625,0.12353515625,-0.8818359375
61546495335,0.5009765625,0.12646484375,-0.88720703125
61546509585,0.5068359375,0.1376953125,-0.88818359375
61546532862,0.49609375,0.130859375,-0.8984375
61546555344,0.4833984375,0.1396484375,-0.91455078125
61546569682,0.47705078125,0.13818359375,-0.92724609375
61546592764,0.47216796875,0.1220703125,-0.94091796875
61546615341,0.4677734375,0.103515625,-0.958984375
61546636391,0.45703125,0.0927734375,-0.95849609375
61546652715,0.4453125,0.080078125,-0.97314453125
61546675346,0.43896484375,0.07666015625,-0.9765625
61546696514,0.4462890625,0.07666015625,-1.0078125
61546712810,0.4404296875,0.11328125,-1.021484375
61546735449,0.4345703125,0.11572265625,-1.0419921875
61546756307,0.42822265625,0.11376953125,-1.0576171875
61546772794,0.39794921875,0.1279296875,-1.06494140625
61546795378,0.35546875,0.15771484375,-1.0830078125
61546816428,0.333984375,0.12353515625,-1.0966796875
61546832813,0.3046875,0.1162109375,-1.125
61546855343,0.25634765625,0.158203125,-1.1943359375
61546860785,0.19287109375,0.20947265625,-1.19482421875
61546883336,0.119140625,0.17724609375,-1.19580078125
61546898391,0.03125,0.1552734375,-1.18359375
61546920789,-0.04345703125,0.14111328125,-1.21240234375
61546943152,-0.1201171875,0.1220703125,-1.22998046875
61546958271,-0.197265625,0.134765625,-1.16845703125
61546980691,-0.27392578125,0.09375,-1.11669921875
61547003260,-0.33935546875,0.05126953125,-1.07666015625
61547018334,-0.37060546875,0.037109375,-1.01171875
61547040763,-0.40576171875,0.02880859375,-0.955078125
61547063257,-0.42138671875,0.03125,-0.88037109375
61547078248,-0.44482421875,0.03125,-0.82275390625
61547102121,-0.46630859375,0.02783203125,-0.77978515625
61547123166,-0.49609375,0.04150390625,-0.71923828125
61547138269,-0.51904296875,0.06689453125,-0.67431640625
61547160720,-0.53369140625,0.05322265625,-0.63427734375
61547183294,-0.58251953125,0.04638671875,-0.61328125
61547198170,-0.6064453125,0.01171875,-0.568359375
61547220796,-0.63623046875,-0.02880859375,-0.55126953125
61547243156,-0.6484375,-0.0615234375,-0.52001953125
61547258150,-0.67333984375,-0.05810546875,-0.5078125
61547280649,-0.69677734375,-0.02978515625,-0.4951171875
61547303291,-0.73828125,-0.04931640625,-0.51611328125
61547318319,-0.78125,-0.0849609375,-0.50146484375
61547340780,-0.798828125,-0.1123046875,-0.47998046875
61547363331,-0.810546875,-0.1015625,-0.4794921875
61547378151,-0.8330078125,-0.09619140625,-0.484375
61547400634,-0.849609375,-0.0791015625,-0.4716796875
61547418566,-0.8671875,-0.09130859375,-0.486328125
61547438276,-0.87744140625,-0.0869140625,-0.49951171875
61547460763,-0.880859375,-0.072265625,-0.48388671875
61547478548,-0.8896484375,-0.08203125,-0.4951171875
61547498287,-0.89404296875,-0.0673828125,-0.48193359375
61547520733,-0.90673828125,-0.08935546875,-0.47119140625
61547538590,-0.90234375,-0.0849609375,-0.48486328125
61547558113,-0.89697265625,-0.08349609375,-0.47607421875
61547580606,-0.88818359375,-0.07373046875,-0.482421875
61547598558,-0.90380859375,-0.09033203125,-0.4814453125
61547618295,-0.9072265625,-0.109375,-0.47900390625
61547640816,-0.89990234375,-0.109375,-0.4873046875
61547659094,-0.896484375,-0.08447265625,-0.4912109375
61547678190,-0.8955078125,-0.06494140625,-0.49658203125
61547700762,-0.8896484375,-0.07275390625,-0.5068359375
61547718541,-0.89404296875,-0.08447265625,-0.4931640625
61547739552,-0.8955078125,-0.09912109375,-0.4951171875
61547760760,-0.8818359375,-0.0927734375,-0.4892578125
61547778571,-0.88818359375,-0.08544921875,-0.49560546875
61547798138,-0.8857421875,-0.08203125,-0.4892578125
61547820809,-0.880859375,-0.08203125,-0.482421875
61547838561,-0.89013671875,-0.08154296875,-0.49072265625
61547858483,-0.89404296875,-0.08056640625,-0.4990234375
61547880721,-0.896484375,-0.08056640625,-0.49462890625
61547898561,-0.89404296875,-0.08056640625,-0.49169921875
61547919614,-0.88525390625,-0.08837890625,-0.50244140625
61547940746,-0.876953125,-0.07568359375,-0.48876953125
61547958569,-0.837890625,-0.068359375,-0.49560546875
61547979654,-0.8076171875,-0.05712890625,-0.49462890625
61548000647,-0.78271484375,-0.046875,-0.49169921875
61548018538,-0.763671875,-0.056640625,-0.48046875
61548039666,-0.724609375,-0.06494140625,-0.486328125
61548060667,-0.68310546875,-0.04443359375,-0.49072265625
61548078604,-0.64892578125,-0.0078125,-0.50732421875
61548099623,-0.61669921875,0.01123046875,-0.54345703125
61548120793,-0.5947265625,0.0126953125,-0.56884765625
61548138526,-0.61181640625,-0.0205078125,-0.6005859375
61548159854,-0.62939453125,-0.048828125,-0.63134765625
61548180617,-0.587890625,-0.0380859375,-0.66552734375
61548198592,-0.498046875,0.005859375,-0.7041015625
61548219573,-0.44873046875,0.04931640625,-0.78271484375
61548240774,-0.4697265625,0.0673828125,-0.84814453125
61548258558,-0.48876953125,0.0556640625,-0.8916015625
61548281075,-0.4453125,0.0205078125,-0.94482421875
61548300711,-0.3642578125,0.0341796875,-0.98388671875
61548318612,-0.306640625,0.06396484375,-0.9697265625
61548341053,-0.29345703125,0.060546875,-1.0283203125
61548360793,-0.28076171875,0.0712890625,-1.10400390625
61548378560,-0.21875,0.10986328125,-1.13330078125
61548401020,-0.12255859375,0.09521484375,-1.13330078125
61548421468,-0.029296875,0.10986328125,-1.107421875
61548437762,0.01904296875,0.1103515625,-1.1572265625
61548460247,0.05224609375,0.1376953125,-1.21923828125
61548481393,0.09375,0.15576171875,-1.181640625
61548497741,0.1923828125,0.12158203125,-1.1357421875
61548520378,0.27392578125,0.08837890625,-1.1220703125
61548541459,0.30615234375,0.09228515625,-1.11669921875
61548557721,0.3408203125,0.1044921875,-1.126953125
61548580332,0.353515625,0.12646484375,-1.109375
61548601360,0.37255859375,0.14111328125,-1.09326171875
61548617744,0.39501953125,0.16064453125,-1.04638671875
61548640305,0.41064453125,0.12353515625,-1.0029296875
61548661399,0.4033203125,0.1064453125,-0.97998046875
61548677762,0.42138671875,0.0869140625,-0.955078125
61548700240,0.44482421875,0.10986328125,-0.90478515625
61548721463,0.3994140625,0.15087890625,-0.91064453125
61548737765,0.28955078125,0.09912109375,-1.03076171875
61548767719,0.28369140625,-0.005859375,-1.17236328125
61548781316,0.47265625,0.10693359375,-1.12255859375
61548797701,0.58984375,0.1767578125,-0.91552734375
61548820298,0.55859375,0.03076171875,-0.875
61548842757,0.53857421875,0.00927734375,-0.84423828125
61548857769,0.55322265625,0.037109375,-0.849609375
61548880246,0.54150390625,0.05859375,-0.8798828125
61548901398,0.505859375,0.0947265625,-0.91650390625
61548917739,0.49169921875,0.14404296875,-0.923828125
61548940311,0.4970703125,0.1630859375,-0.91455078125
61548961362,0.49462890625,0.1533203125,-0.89990234375
61548977753,0.49072265625,0.1328125,-0.8984375
61549000362,0.50537109375,0.1123046875,-0.8935546875
61549021607,0.51220703125,0.09228515625,-0.8984375
