61472553166,-0.732177734375,0.639465332031,-0.116821289062,-0.203369140625
61472574799,-0.733215332031,0.638122558594,-0.117248535156,-0.203430175781
61472589798,-0.734497070312,0.636779785156,-0.1171875,-0.203186035156
61472613443,-0.734130859375,0.634155273438,-0.122680664062,-0.209411621094
61472634593,-0.73486328125,0.632141113281,-0.124633789062,-0.211791992188
61472649781,-0.734497070312,0.629577636719,-0.129089355469,-0.218139648438
61472673467,-0.734191894531,0.627075195312,-0.133483886719,-0.223571777344
61472694771,-0.735778808594,0.6259765625,-0.133239746094,-0.221435546875
61472709882,-0.738952636719,0.6259765625,-0.128479003906,-0.213562011719
61472754812,-0.741394042969,0.625427246094,-0.125061035156,-0.208862304688
61472765451,-0.741760253906,0.623413085938,-0.127197265625,-0.212219238281
61472771271,-0.741088867188,0.620727539062,-0.132568359375,-0.218933105469
61472794155,-0.743469238281,0.619140625,-0.131103515625,-0.216064453125
61472815390,-0.7451171875,0.617431640625,-0.130981445312,-0.215515136719
61472840367,-0.746398925781,0.616088867188,-0.130737304688,-0.215087890625
61472867216,-0.74755859375,0.61474609375,-0.130798339844,-0.214721679688
61472877254,-0.748779296875,0.613403320312,-0.130981445312,-0.214294433594
61472890887,-0.750427246094,0.612182617188,-0.130126953125,-0.212524414062
61472912072,-0.752868652344,0.611694335938,-0.127075195312,-0.207092285156
61472934563,-0.752807617188,0.609619140625,-0.131103515625,-0.210998535156
61472952397,-0.753662109375,0.608093261719,-0.132629394531,-0.211364746094
61472972157,-0.756225585938,0.607788085938,-0.129211425781,-0.205017089844
61472994440,-0.758911132812,0.607543945312,-0.124755859375,-0.198303222656
61473012384,-0.759887695312,0.606018066406,-0.125061035156,-0.199096679688
61473032072,-0.759155273438,0.603515625,-0.130310058594,-0.2060546875
61473054563,-0.758972167969,0.601623535156,-0.134338378906,-0.209777832031
61473072396,-0.760925292969,0.601196289062,-0.132263183594,-0.205200195312
61473091928,-0.762390136719,0.600891113281,-0.13037109375,-0.201843261719
61473114586,-0.763732910156,0.599731445312,-0.129272460938,-0.200927734375
61473132389,-0.764465332031,0.598754882812,-0.129760742188,-0.20068359375
61473151997,-0.76513671875,0.597839355469,-0.130187988281,-0.200561523438
61473174564,-0.765686035156,0.597106933594,-0.130493164062,-0.200500488281
61473192422,-0.766174316406,0.596435546875,-0.130737304688,-0.200378417969
61473212085,-0.7666015625,0.595825195312,-0.130981445312,-0.200500488281
61473234561,-0.766784667969,0.595458984375,-0.131103515625,-0.200805664062
61473252349,-0.766845703125,0.595153808594,-0.131103515625,-0.201354980469
61473272211,-0.766906738281,0.594970703125,-0.130981445312,-0.201843261719
61473294563,-0.766845703125,0.594909667969,-0.130859375,-0.202270507812
61473312375,-0.7666015625,0.595153808594,-0.130798339844,-0.20263671875
61473333417,-0.766357421875,0.595397949219,-0.130615234375,-0.202880859375
61473354548,-0.76611328125,0.595703125,-0.130310058594,-0.203125
61473372352,-0.765747070312,0.596130371094,-0.129577636719,-0.203552246094
61473393430,-0.765197753906,0.596801757812,-0.128784179688,-0.204223632812
61473414596,-0.764587402344,0.597534179688,-0.128234863281,-0.204711914062
61473432379,-0.764038085938,0.598266601562,-0.127746582031,-0.205078125
61473453422,-0.763366699219,0.599060058594,-0.127136230469,-0.20556640625
61473474640,-0.762634277344,0.599914550781,-0.126342773438,-0.206298828125
61473492354,-0.761840820312,0.600891113281,-0.125305175781,-0.207092285156
61473513385,-0.760986328125,0.601928710938,-0.1240234375,-0.207763671875
61473534594,-0.760070800781,0.603149414062,-0.122192382812,-0.208862304688
61473552379,-0.759094238281,0.6044921875,-0.119689941406,-0.2099609375
61473573483,-0.758056640625,0.60595703125,-0.116088867188,-0.211486816406
61473594519,-0.756958007812,0.607604980469,-0.110778808594,-0.213562011719
61473612338,-0.755859375,0.609619140625,-0.104553222656,-0.21484375
61473633413,-0.754943847656,0.611999511719,-0.0987548828125,-0.213928222656
61473654596,-0.754272460938,0.615051269531,-0.0924682617188,-0.210388183594
61473678422,-0.753601074219,0.619018554688,-0.0852661132812,-0.2041015625
61473708324,-0.752624511719,0.624206542969,-0.07763671875,-0.194519042969
61473714502,-0.751892089844,0.629821777344,-0.0678100585938,-0.1826171875
61473732351,-0.752197265625,0.634643554688,-0.0545654296875,-0.168884277344
61473754902,-0.752746582031,0.63916015625,-0.0375366210938,-0.153259277344
61473774542,-0.752563476562,0.64404296875,-0.01611328125,-0.136474609375
61473799062,-0.751586914062,0.648681640625,0.00775146484375,-0.119689941406
61473821536,-0.749755859375,0.653259277344,0.0321044921875,-0.100769042969
61473835216,-0.747619628906,0.657165527344,0.056884765625,-0.0773315429688
61473857717,-0.744995117188,0.660095214844,0.0816650390625,-0.0509033203125
61473874034,-0.741271972656,0.662292480469,0.106506347656,-0.0237426757812
61473896564,-0.7373046875,0.66259765625,0.131530761719,0.00244140625
61473917634,-0.733032226562,0.661437988281,0.155700683594,0.0296630859375
61473934041,-0.728393554688,0.658996582031,0.1787109375,0.0569458007812
61473956654,-0.722839355469,0.655883789062,0.200317382812,0.0846557617188
61473977813,-0.716735839844,0.65234375,0.21923828125,0.112487792969
61473994066,-0.709777832031,0.648742675781,0.235229492188,0.141357421875
61474016557,-0.702514648438,0.644775390625,0.249633789062,0.168640136719
61474037840,-0.694458007812,0.641052246094,0.263061523438,0.193908691406
61474053408,-0.686645507812,0.636535644531,0.276489257812,0.216430664062
61474076571,-0.679504394531,0.631652832031,0.288818359375,0.236267089844
61474097586,-0.672424316406,0.627014160156,0.2998046875,0.254333496094
61474121572,-0.665893554688,0.622619628906,0.309204101562,0.270629882812
61474144134,-0.659912109375,0.618286132812,0.317321777344,0.285522460938
61474157585,-0.653991699219,0.615295410156,0.323608398438,0.298156738281
61474173383,-0.648559570312,0.61279296875,0.329284667969,0.308959960938
61474196534,-0.644104003906,0.610290527344,0.334289550781,0.317749023438
61474217825,-0.639465332031,0.608215332031,0.338745117188,0.326171875
61474233413,-0.634460449219,0.6064453125,0.343017578125,0.334655761719
61474264036,-0.628967285156,0.604431152344,0.347778320312,0.343566894531
61474279010,-0.622863769531,0.602844238281,0.352233886719,0.352905273438
61474293361,-0.617065429688,0.601196289062,0.356872558594,0.361145019531
61474316595,-0.612670898438,0.599914550781,0.36083984375,0.366821289062
61474339061,-0.611938476562,0.598876953125,0.362915039062,0.367553710938
61474353439,-0.615051269531,0.596740722656,0.36474609375,0.364013671875
61474377012,-0.620178222656,0.593383789062,0.364135742188,0.361389160156
61474399520,-0.622497558594,0.591247558594,0.362060546875,0.363037109375
61474420242,-0.620971679688,0.591369628906,0.361755371094,0.36572265625
61474436494,-0.61865234375,0.592102050781,0.3623046875,0.367919921875
61474459133,-0.618530273438,0.590698242188,0.363830566406,0.368957519531
61474480149,-0.618774414062,0.589233398438,0.364318847656,0.370300292969
61474496565,-0.618591308594,0.588623046875,0.364807128906,0.371154785156
61474519014,-0.6171875,0.588989257812,0.364868164062,0.372863769531
61474533390,-0.615051269531,0.589660644531,0.365173339844,0.374938964844
61474556588,-0.613037109375,0.590393066406,0.365539550781,0.376770019531
61474579062,-0.610534667969,0.591430664062,0.365966796875,0.378845214844
61474600233,-0.607421875,0.593139648438,0.3662109375,0.380859375
61474616517,-0.605895996094,0.594909667969,0.366149902344,0.380554199219
61474639001,-0.607971191406,0.596618652344,0.365661621094,0.375061035156
61474660190,-0.612426757812,0.598205566406,0.365356445312,0.365478515625
61474676546,-0.616882324219,0.598999023438,0.364013671875,0.357849121094
61474699029,-0.619201660156,0.599365234375,0.361206054688,0.356140136719
61474720166,-0.617309570312,0.600891113281,0.360534667969,0.357482910156
61474736534,-0.614379882812,0.60205078125,0.362121582031,0.359008789062
61474759048,-0.614562988281,0.600891113281,0.364074707031,0.358703613281
61474780261,-0.616394042969,0.599548339844,0.364379882812,0.357421875
61474795896,-0.617614746094,0.599304199219,0.364929199219,0.355163574219
61474819036,-0.618103027344,0.600219726562,0.364318847656,0.353393554688
61474840095,-0.618225097656,0.601623535156,0.363220214844,0.351928710938
61474856538,-0.618103027344,0.603393554688,0.361999511719,0.350402832031
61474879061,-0.619140625,0.604431152344,0.361206054688,0.347595214844
61474900314,-0.620727539062,0.605224609375,0.360290527344,0.344299316406
61474916522,-0.622192382812,0.606262207031,0.359069824219,0.341064453125
61474939060,-0.623291015625,0.607482910156,0.357666015625,0.338256835938
61474960151,-0.6240234375,0.608947753906,0.356262207031,0.335815429688
61474976517,-0.625061035156,0.610290527344,0.355102539062,0.332702636719
61474998977,-0.626831054688,0.611572265625,0.353637695312,0.328552246094
61475020079,-0.629516601562,0.612670898438,0.351501464844,0.323608398438
61475035932,-0.632629394531,0.614135742188,0.348388671875,0.318054199219
61475059111,-0.635803222656,0.616088867188,0.344665527344,0.311950683594
61475080194,-0.639038085938,0.618835449219,0.340087890625,0.304931640625
61475095890,-0.643005371094,0.622192382812,0.334655761719,0.295654296875
61475119012,-0.648132324219,0.625732421875,0.328125,0.283996582031
61475140207,-0.654174804688,0.629211425781,0.320556640625,0.270874023438
61475155889,-0.660278320312,0.632934570312,0.311950683594,0.257019042969
61475179080,-0.666259765625,0.636901855469,0.302795410156,0.242431640625
61475201522,-0.671875,0.641357421875,0.292419433594,0.227478027344
61475215823,-0.677551269531,0.645935058594,0.281188964844,0.211181640625
61475239010,-0.683532714844,0.649963378906,0.270141601562,0.193359375
61475261543,-0.689208984375,0.653991699219,0.258972167969,0.173889160156
61475275899,-0.694152832031,0.658386230469,0.247314453125,0.153503417969
61475298998,-0.698303222656,0.662780761719,0.234985351562,0.133666992188
61475321564,-0.701782226562,0.667236328125,0.221313476562,0.115295410156
61475342664,-0.704833984375,0.671203613281,0.207580566406,0.0977172851562
61475359035,-0.707336425781,0.674926757812,0.1943359375,0.0800170898438
61475381582,-0.709350585938,0.678344726562,0.181274414062,0.0609130859375
61475402726,-0.710998535156,0.681457519531,0.16845703125,0.0413818359375
61475419034,-0.712341308594,0.684020996094,0.155212402344,0.0225830078125
61475441525,-0.71337890625,0.686279296875,0.141845703125,0.005126953125
61475462667,-0.713989257812,0.688415527344,0.127258300781,-0.00982666015625
61475479045,-0.714721679688,0.690124511719,0.111206054688,-0.024169921875
61475507724,-0.715942382812,0.6904296875,0.0957641601562,-0.0396118164062
61475522698,-0.717041015625,0.690124511719,0.080810546875,-0.0555419921875
61475539040,-0.717651367188,0.689758300781,0.0655517578125,-0.070068359375
61475561510,-0.71826171875,0.689025878906,0.0498046875,-0.082763671875
61475582653,-0.718566894531,0.688171386719,0.0347290039062,-0.0945434570312
61475599729,-0.718383789062,0.687316894531,0.0203247070312,-0.105529785156
61475621485,-0.717529296875,0.686706542969,0.00787353515625,-0.1162109375
61475642661,-0.716430664062,0.686279296875,-0.00384521484375,-0.125549316406
61475659016,-0.715209960938,0.685913085938,-0.0153198242188,-0.133422851562
61475681550,-0.713928222656,0.685424804688,-0.0265502929688,-0.140563964844
61475702672,-0.712524414062,0.68505859375,-0.0366821289062,-0.147338867188
61475719008,-0.710876464844,0.684875488281,-0.0457763671875,-0.1533203125
61475741525,-0.709411621094,0.6845703125,-0.0533447265625,-0.158874511719
61475762728,-0.708251953125,0.684020996094,-0.060302734375,-0.1640625
61475779012,-0.707275390625,0.68310546875,-0.0663452148438,-0.169555664062
61475801505,-0.705932617188,0.682678222656,-0.071044921875,-0.174865722656
61475822562,-0.704406738281,0.682434082031,-0.0750122070312,-0.180114746094
61475839040,-0.702941894531,0.682434082031,-0.0789794921875,-0.184326171875
61475861517,-0.701721191406,0.682312011719,-0.0831909179688,-0.187194824219
61475882614,-0.70068359375,0.682250976562,-0.0874633789062,-0.189636230469
61475899038,-0.699829101562,0.681884765625,-0.091064453125,-0.192504882812
61475921574,-0.699279785156,0.681213378906,-0.09375,-0.195556640625
61475943150,-0.698791503906,0.680419921875,-0.0960693359375,-0.19873046875
61475958363,-0.698364257812,0.679809570312,-0.0980834960938,-0.201477050781
61475981513,-0.697509765625,0.679931640625,-0.09912109375,-0.203369140625
61476002622,-0.69677734375,0.680419921875,-0.0991821289062,-0.204284667969
61476018424,-0.695495605469,0.681640625,-0.0987548828125,-0.204711914062
61476041559,-0.694152832031,0.682800292969,-0.0987548828125,-0.205322265625
61476062724,-0.693603515625,0.683044433594,-0.100036621094,-0.205993652344
61476079028,-0.693725585938,0.682312011719,-0.101928710938,-0.20703125
61476101558,-0.694091796875,0.681274414062,-0.103820800781,-0.208251953125
61476122330,-0.694458007812,0.680725097656,-0.104309082031,-0.208679199219
61476138990,-0.695556640625,0.679992675781,-0.102783203125,-0.207946777344
61476161482,-0.697692871094,0.678466796875,-0.100891113281,-0.206787109375
61476183978,-0.699951171875,0.676574707031,-0.100219726562,-0.205627441406
61476199096,-0.701354980469,0.675048828125,-0.100708007812,-0.205627441406
61476204490,-0.702575683594,0.673583984375,-0.101684570312,-0.205749511719
61476227010,-0.704223632812,0.672058105469,-0.103149414062,-0.204467773438
