61412853244,0.43017578125,0.158203125,-0.9287109375
61412877078,0.42822265625,0.1611328125,-0.92529296875
61412891980,0.28564453125,0.205078125,-1.056640625
61412913214,0.2685546875,0.19580078125,-1.25927734375
61412936884,-0.185546875,0.0185546875,-1.302734375
61412952016,0.04443359375,0.10400390625,-1.3837890625
61412973221,0.65478515625,0.2890625,-1.07421875
61412996968,1.0576171875,0.35009765625,-0.58349609375
61413027717,0.734375,0.19091796875,-0.46630859375
61413029783,0.05810546875,-0.00634765625,-0.8974609375
61413042036,-0.17626953125,-0.01220703125,-1.36083984375
61413063992,0.32080078125,0.19287109375,-1.298828125
61413087686,0.025390625,0.04150390625,-0.90283203125
61413109051,0.41162109375,0.16259765625,-0.9521484375
61413163312,0.427734375,0.16357421875,-0.92333984375
61413163957,0.42919921875,0.154296875,-0.91845703125
61413170144,0.43359375,0.15234375,-0.9296875
61413183790,0.3359375,0.15576171875,-0.94189453125
61413206206,0.59521484375,0.1396484375,-0.595703125
61413228087,0.927734375,0.3388671875,-0.87109375
61413243121,1.04638671875,0.35498046875,-0.62451171875
61413265707,0.85693359375,0.24462890625,-0.4501953125
61413280587,0.185546875,0.03466796875,-0.79736328125
61413303032,-0.197265625,-0.02294921875,-1.32080078125
61413325586,0.23486328125,0.15966796875,-1.337890625
61413340620,0.93310546875,0.33984375,-0.80419921875
61413363087,0.939453125,0.2685546875,-0.43017578125
61413385611,0.69775390625,0.138671875,-0.65185546875
61413400590,0.361328125,0.20751953125,-1.01318359375
61413423145,0.4248046875,0.162109375,-0.92822265625
61413445563,0.421875,0.16259765625,-0.92578125
61413460702,0.4267578125,0.162109375,-0.93408203125
61413483101,0.42626953125,0.1591796875,-0.927734375
61413505614,0.4248046875,0.154296875,-0.931640625
61413520650,0.43017578125,0.1552734375,-0.92724609375
61413543083,0.42822265625,0.15771484375,-0.927734375
61413565631,0.42431640625,0.15625,-0.92822265625
61413580649,0.42822265625,0.16064453125,-0.92529296875
61413603038,0.42919921875,0.1611328125,-0.9248046875
61413625590,0.42724609375,0.16015625,-0.92578125
61413640648,0.43017578125,0.16748046875,-0.9306640625
61413663136,0.43505859375,0.162109375,-0.92626953125
61413685640,0.4306640625,0.166015625,-0.92724609375
61413700590,0.43408203125,0.15966796875,-0.9296875
61413723198,0.42626953125,0.162109375,-0.916015625
61413745571,0.43115234375,0.15576171875,-0.91650390625
61413760649,0.4462890625,0.16455078125,-0.9375
61413783063,0.44384765625,0.18212890625,-0.9501953125
61413805588,0.435546875,0.17041015625,-0.96142578125
61413820613,0.43115234375,0.16015625,-0.94873046875
61413843124,0.416015625,0.17041015625,-0.97607421875
61413865457,0.39794921875,0.19482421875,-0.9921875
61413883366,0.4052734375,0.171875,-0.9814453125
61413905893,0.39990234375,0.14208984375,-0.9951171875
61413925568,0.3603515625,0.16845703125,-1.03076171875
61413940611,0.31396484375,0.1806640625,-1.05859375
61413963007,0.32373046875,0.193359375,-1.16064453125
61413985480,0.2939453125,0.2744140625,-1.20263671875
61414000682,0.23974609375,0.2646484375,-1.22021484375
61414022990,0.1884765625,0.26416015625,-1.26953125
61414045588,0.08740234375,0.28173828125,-1.271484375
61414060586,0.0458984375,0.2421875,-1.291015625
61414083111,-0.0380859375,0.1953125,-1.2099609375
61414105580,-0.11083984375,0.09619140625,-1.1669921875
61414120443,-0.17919921875,0.10595703125,-1.1318359375
61414144535,-0.23828125,0.11669921875,-1.1318359375
61414165638,-0.3076171875,0.1591796875,-1.111328125
61414183424,-0.35791015625,0.1787109375,-1.0703125
61414204462,-0.3798828125,0.1611328125,-0.98486328125
61414225632,-0.38671875,0.12646484375,-0.8974609375
61414243424,-0.42236328125,0.099609375,-0.8349609375
61414265940,-0.453125,0.11962890625,-0.7890625
61414285557,-0.47119140625,0.14453125,-0.76318359375
61414303417,-0.49609375,0.14892578125,-0.68896484375
61414325112,-0.529296875,0.11376953125,-0.6767578125
61414346287,-0.5625,0.1025390625,-0.6435546875
61414362634,-0.595703125,0.0869140625,-0.5888671875
61414385078,-0.61572265625,0.06103515625,-0.5576171875
61414406247,-0.63818359375,0.0517578125,-0.5390625
61414422589,-0.673828125,0.00732421875,-0.49853515625
61414445113,-0.6923828125,-0.00927734375,-0.4677734375
61414466313,-0.7138671875,-0.021484375,-0.46240234375
61414482577,-0.73486328125,0.0224609375,-0.4658203125
61414505110,-0.76171875,0.03515625,-0.484375
61414526191,-0.79150390625,0.015625,-0.48828125
61414542579,-0.814453125,-0.013671875,-0.45947265625
61414565071,-0.83740234375,-0.02490234375,-0.43798828125
61414586244,-0.8154296875,0.03466796875,-0.439453125
61414602588,-0.81982421875,0.13623046875,-0.50732421875
61414625039,-0.86962890625,0.19580078125,-0.54931640625
61414646239,-0.9248046875,0.16064453125,-0.595703125
61414662637,-0.95263671875,0.03662109375,-0.568359375
61414685104,-0.9169921875,-0.11865234375,-0.44921875
61414706237,-0.86083984375,-0.23046875,-0.37841796875
61414722615,-0.87939453125,-0.1552734375,-0.4052734375
61414752586,-0.93701171875,-0.0771484375,-0.494140625
61414766334,-0.92138671875,0.01806640625,-0.5576171875
61414782592,-0.91650390625,0.115234375,-0.5634765625
61414805114,-0.9130859375,0.08447265625,-0.55419921875
61414826411,-0.91748046875,0.01513671875,-0.54150390625
61414842616,-0.8984375,-0.015625,-0.50830078125
61414865092,-0.884765625,-0.01220703125,-0.51953125
61414886169,-0.873046875,0.0341796875,-0.546875
61414902606,-0.8876953125,0.04736328125,-0.54736328125
61414925087,-0.88818359375,0.0283203125,-0.541015625
61414946112,-0.869140625,0.01806640625,-0.50146484375
61414962609,-0.86474609375,0.0146484375,-0.48779296875
61414985109,-0.87841796875,0.0107421875,-0.46484375
61415006140,-0.87451171875,0.0244140625,-0.46533203125
61415021911,-0.85888671875,0.072265625,-0.490234375
61415045063,-0.87158203125,0.09716796875,-0.48486328125
61415066259,-0.88134765625,0.046875,-0.4599609375
61415081919,-0.88916015625,-0.01611328125,-0.44970703125
61415105107,-0.88232421875,-0.0234375,-0.44287109375
61415126259,-0.85205078125,0.025390625,-0.44580078125
61415141917,-0.83154296875,0.078125,-0.49267578125
61415165016,-0.86328125,0.1259765625,-0.53955078125
61415186237,-0.9052734375,0.17236328125,-0.58740234375
61415201959,-0.94775390625,0.1396484375,-0.5830078125
61415225154,-0.939453125,0.0263671875,-0.5595703125
61415247520,-0.89599609375,-0.0830078125,-0.470703125
61415261907,-0.87353515625,-0.099609375,-0.458984375
61415285114,-0.89599609375,-0.078125,-0.4931640625
61415307666,-0.89794921875,-0.05419921875,-0.5244140625
61415321901,-0.8896484375,0.03759765625,-0.5615234375
61415345058,-0.88232421875,0.107421875,-0.5849609375
61415367581,-0.8720703125,0.130859375,-0.578125
61415382570,-0.85595703125,0.09521484375,-0.560546875
61415405076,-0.859375,0.04150390625,-0.5390625
61415427573,-0.859375,0.03515625,-0.533203125
61415441916,-0.8515625,0.06982421875,-0.5654296875
61415465144,-0.83447265625,0.07373046875,-0.5576171875
61415487619,-0.79296875,0.04833984375,-0.5439453125
61415501920,-0.767578125,0.03564453125,-0.52734375
61415525117,-0.734375,0.0517578125,-0.53857421875
61415547616,-0.693359375,0.07080078125,-0.54296875
61415568635,-0.65869140625,0.078125,-0.54638671875
61415585086,-0.63623046875,0.08935546875,-0.552734375
61415607564,-0.60205078125,0.1083984375,-0.56494140625
61415628865,-0.5673828125,0.1220703125,-0.60888671875
61415645117,-0.5771484375,0.1220703125,-0.6162109375
61415667588,-0.564453125,0.1328125,-0.646484375
61415688818,-0.560546875,0.16650390625,-0.68701171875
61415705067,-0.52734375,0.193359375,-0.76708984375
61415727586,-0.515625,0.19970703125,-0.77392578125
61415748658,-0.50146484375,0.2119140625,-0.80224609375
61415765062,-0.49267578125,0.18896484375,-0.8388671875
61415787615,-0.4619140625,0.2041015625,-0.87646484375
61415808673,-0.44140625,0.19970703125,-0.94091796875
61415825093,-0.44873046875,0.1806640625,-0.97119140625
61415847569,-0.41650390625,0.18310546875,-0.99560546875
61415868768,-0.34765625,0.17431640625,-1.02001953125
61415885051,-0.2724609375,0.1474609375,-1.04248046875
61415915082,-0.20849609375,0.18701171875,-1.0859375
61415928772,-0.1689453125,0.23876953125,-1.10205078125
61415945038,-0.12109375,0.22314453125,-1.126953125
61415967528,-0.041015625,0.25341796875,-1.12060546875
61415988764,0.01025390625,0.23486328125,-1.109375
61416004422,0.05419921875,0.17041015625,-1.1064453125
61416027611,0.09912109375,0.154296875,-1.1708984375
61416048704,0.17431640625,0.24462890625,-1.14990234375
61416064440,0.27099609375,0.30224609375,-1.0908203125
61416087595,0.302734375,0.24267578125,-1.02587890625
61416108829,0.31884765625,0.166015625,-1.04833984375
61416124416,0.32177734375,0.1962890625,-1.08203125
61416147559,0.328125,0.244140625,-1.09375
61416168632,0.3623046875,0.25244140625,-1.05126953125
61416184405,0.396484375,0.2333984375,-0.9853515625
61416207589,0.41162109375,0.20458984375,-0.953125
61416230073,0.4033203125,0.15380859375,-0.95263671875
61416244433,0.36279296875,0.1201171875,-0.9833984375
61416267586,0.27490234375,0.134765625,-1.0361328125
61416290059,0.27978515625,0.18408203125,-1.07177734375
61416304378,0.3427734375,0.205078125,-1.01611328125
61416328013,0.4052734375,0.16455078125,-0.927734375
61416350119,0.421875,0.14501953125,-0.89697265625
61416371302,0.43408203125,0.14208984375,-0.9013671875
61416387564,0.45751953125,0.14111328125,-0.9091796875
61416410146,0.47412109375,0.13818359375,-0.93115234375
61416431238,0.47021484375,0.14208984375,-0.9423828125
61416447572,0.46484375,0.16552734375,-0.94482421875
61416470037,0.45458984375,0.169921875,-0.9375
61416484444,0.43798828125,0.16845703125,-0.9345703125
61416507574,0.4296875,0.1591796875,-0.939453125
61416530058,0.42822265625,0.15380859375,-0.93505859375
61416544387,0.43017578125,0.15576171875,-0.93212890625
61416567590,0.42724609375,0.15771484375,-0.9296875
61416590069,0.4345703125,0.1552734375,-0.9140625
61416604435,0.4345703125,0.15625,-0.9052734375
