61353889705,-0.626647949219,0.744384765625,-0.0640258789062,-0.221496582031
61353898030,-0.626647949219,0.744384765625,-0.0640258789062,-0.221496582031
61353919260,-0.626708984375,0.744445800781,-0.06396484375,-0.221435546875
61353942959,-0.627380371094,0.744506835938,-0.0632934570312,-0.219421386719
61353964847,-0.62841796875,0.744689941406,-0.0614013671875,-0.216186523438
61353979346,-0.628784179688,0.744934082031,-0.0606079101562,-0.214660644531
61354003011,-0.628845214844,0.744995117188,-0.0602416992188,-0.214294433594
61354018024,-0.628601074219,0.744689941406,-0.060791015625,-0.2158203125
61354047280,-0.628234863281,0.744384765625,-0.0617065429688,-0.2177734375
61354094571,-0.628173828125,0.744384765625,-0.0619506835938,-0.218017578125
61354095352,-0.62841796875,0.74462890625,-0.061279296875,-0.21630859375
61354096027,-0.628784179688,0.744934082031,-0.0604858398438,-0.214599609375
61354116213,-0.628601074219,0.744750976562,-0.0602416992188,-0.215759277344
61354137379,-0.627990722656,0.744995117188,-0.0608520507812,-0.216491699219
61354151880,-0.627868652344,0.745239257812,-0.0607299804688,-0.216064453125
61354175512,-0.6279296875,0.745239257812,-0.06103515625,-0.215942382812
61354204043,-0.627990722656,0.7451171875,-0.0612182617188,-0.216003417969
61354228000,-0.627990722656,0.7451171875,-0.0612182617188,-0.216003417969
61354234719,-0.627563476562,0.744934082031,-0.0623168945312,-0.2177734375
61354257322,-0.627197265625,0.74462890625,-0.0631103515625,-0.219482421875
61354271606,-0.627319335938,0.74462890625,-0.062744140625,-0.219177246094
61354294213,-0.627197265625,0.744506835938,-0.0629272460938,-0.219909667969
61354325394,-0.625671386719,0.743103027344,-0.06591796875,-0.22802734375
61354331711,-0.625427246094,0.742858886719,-0.0665893554688,-0.229309082031
61354354278,-0.626159667969,0.743591308594,-0.065673828125,-0.225219726562
61354376697,-0.627990722656,0.744873046875,-0.0621948242188,-0.216674804688
61354391714,-0.628112792969,0.744934082031,-0.061767578125,-0.216186523438
61354414085,-0.627807617188,0.74462890625,-0.0623779296875,-0.217895507812
61354436669,-0.6279296875,0.744079589844,-0.062744140625,-0.219543457031
61354451664,-0.627502441406,0.744262695312,-0.0626831054688,-0.219848632812
61354474167,-0.62744140625,0.744201660156,-0.0630493164062,-0.22021484375
61354490522,-0.62744140625,0.744201660156,-0.0630493164062,-0.22021484375
61354511635,-0.62744140625,0.744201660156,-0.0630493164062,-0.22021484375
61354534153,-0.627624511719,0.744079589844,-0.0632934570312,-0.220153808594
61354549162,-0.627807617188,0.743896484375,-0.0634765625,-0.220153808594
61354571562,-0.6279296875,0.743713378906,-0.0633544921875,-0.220458984375
61354594141,-0.628051757812,0.743469238281,-0.0628051757812,-0.221130371094
61354610491,-0.628051757812,0.743225097656,-0.0621337890625,-0.221984863281
61354631557,-0.628112792969,0.743103027344,-0.0618286132812,-0.222534179688
61354654021,-0.628234863281,0.742919921875,-0.0620727539062,-0.222595214844
61354670487,-0.628540039062,0.742614746094,-0.062255859375,-0.22265625
61354691746,-0.628845214844,0.742370605469,-0.0618896484375,-0.222839355469
61354714301,-0.628967285156,0.742126464844,-0.0603637695312,-0.2236328125
61354730510,-0.629028320312,0.741882324219,-0.0574951171875,-0.22509765625
61354751610,-0.629150390625,0.741577148438,-0.0537109375,-0.226684570312
61354774357,-0.629211425781,0.741638183594,-0.0505981445312,-0.22705078125
61354796592,-0.629455566406,0.741821289062,-0.0482788085938,-0.226135253906
61354811610,-0.629943847656,0.7421875,-0.046142578125,-0.224060058594
61354835491,-0.630310058594,0.742980957031,-0.042724609375,-0.220947265625
61354865511,-0.631469726562,0.744018554688,-0.038818359375,-0.214904785156
61354871608,-0.633422851562,0.745300292969,-0.03369140625,-0.205261230469
61354894151,-0.635437011719,0.747192382812,-0.0261840820312,-0.192932128906
61354916545,-0.636840820312,0.749694824219,-0.0159301757812,-0.179382324219
61354931611,-0.637512207031,0.752624511719,-0.00347900390625,-0.164672851562
61354954038,-0.638671875,0.755432128906,0.0101928710938,-0.146057128906
61354976585,-0.640686035156,0.757446289062,0.0254516601562,-0.123229980469
61354991669,-0.642761230469,0.758728027344,0.0415649414062,-0.097412109375
61355014025,-0.644165039062,0.759399414062,0.0587768554688,-0.0700073242188
61355036575,-0.644592285156,0.759460449219,0.0772094726562,-0.0418701171875
61355051777,-0.644592285156,0.758483886719,0.0950927734375,-0.0113525390625
61355074231,-0.644348144531,0.756164550781,0.11181640625,0.0220947265625
61355096715,-0.643249511719,0.752868652344,0.127197265625,0.0567016601562
61355111684,-0.641174316406,0.748657226562,0.141662597656,0.09130859375
61355141634,-0.638000488281,0.743591308594,0.156127929688,0.125
61355151922,-0.633972167969,0.737670898438,0.170104980469,0.158081054688
61355171567,-0.62939453125,0.730895996094,0.18359375,0.189575195312
61355195467,-0.624572753906,0.72314453125,0.196838378906,0.219604492188
61355211936,-0.619140625,0.715087890625,0.208435058594,0.248718261719
61355234423,-0.613159179688,0.707214355469,0.21875,0.275695800781
61355255465,-0.606811523438,0.699768066406,0.227294921875,0.300598144531
61355277266,-0.600280761719,0.692810058594,0.234741210938,0.323364257812
61355293616,-0.594177246094,0.685974121094,0.240905761719,0.343872070312
61355314677,-0.589172363281,0.679077148438,0.247314453125,0.361267089844
61355337285,-0.584777832031,0.673583984375,0.253295898438,0.374389648438
61355353651,-0.581298828125,0.668212890625,0.258850097656,0.385375976562
61355374797,-0.578186035156,0.66357421875,0.263732910156,0.394714355469
61355397339,-0.575500488281,0.659423828125,0.267761230469,0.402709960938
61355413673,-0.572631835938,0.655883789062,0.271240234375,0.41015625
61355434681,-0.570007324219,0.65283203125,0.274719238281,0.416381835938
61355450438,-0.567443847656,0.650939941406,0.277587890625,0.420959472656
61355473643,-0.5654296875,0.649475097656,0.280212402344,0.424133300781
61355494804,-0.563781738281,0.648254394531,0.282531738281,0.426696777344
61355510459,-0.562438964844,0.647277832031,0.284301757812,0.4287109375
61355533636,-0.560974121094,0.646850585938,0.285522460938,0.430480957031
61355556144,-0.5595703125,0.647155761719,0.286315917969,0.431335449219
61355570472,-0.558715820312,0.6474609375,0.287231445312,0.431335449219
61355593641,-0.558166503906,0.647583007812,0.287780761719,0.431457519531
61355616166,-0.557739257812,0.647399902344,0.2880859375,0.432189941406
61355631140,-0.557067871094,0.647521972656,0.288330078125,0.432678222656
61355653617,-0.556640625,0.647705078125,0.288879394531,0.432556152344
61355676128,-0.556396484375,0.647644042969,0.289123535156,0.432861328125
61355690484,-0.556213378906,0.647644042969,0.2890625,0.43310546875
61355713662,-0.556213378906,0.64794921875,0.288940429688,0.432678222656
61355736163,-0.556457519531,0.6484375,0.288696289062,0.431823730469
61355750485,-0.556945800781,0.648742675781,0.288330078125,0.430969238281
61355773635,-0.557373046875,0.648864746094,0.287780761719,0.4306640625
61355796141,-0.557678222656,0.648864746094,0.287231445312,0.430603027344
61355810521,-0.557983398438,0.649169921875,0.286987304688,0.429931640625
61355841112,-0.557861328125,0.649536132812,0.286865234375,0.429565429688
61355856116,-0.557556152344,0.649963378906,0.286804199219,0.429321289062
61355870472,-0.557373046875,0.650207519531,0.286926269531,0.42919921875
61355893660,-0.557434082031,0.650329589844,0.286926269531,0.428955078125
61355916166,-0.557434082031,0.650329589844,0.286926269531,0.428894042969
61355930453,-0.557189941406,0.650634765625,0.286682128906,0.428955078125
61355953568,-0.557189941406,0.650634765625,0.286804199219,0.428771972656
61355976118,-0.557250976562,0.650634765625,0.286804199219,0.4287109375
61355990546,-0.557250976562,0.650634765625,0.286804199219,0.4287109375
61356013624,-0.557250976562,0.650939941406,0.286682128906,0.428344726562
61356036165,-0.557250976562,0.651245117188,0.286499023438,0.428039550781
61356057258,-0.55712890625,0.651550292969,0.28662109375,0.427673339844
61356073642,-0.556884765625,0.651977539062,0.28662109375,0.427307128906
61356096138,-0.556640625,0.652221679688,0.286804199219,0.427124023438
61356117313,-0.556701660156,0.652465820312,0.286926269531,0.426574707031
61356133638,-0.556701660156,0.652709960938,0.286865234375,0.426208496094
61356156112,-0.556640625,0.652954101562,0.286865234375,0.425964355469
61356177325,-0.556518554688,0.6533203125,0.286865234375,0.425598144531
61356193594,-0.556335449219,0.653503417969,0.287048339844,0.425415039062
61356216138,-0.556213378906,0.653625488281,0.287109375,0.42529296875
61356237359,-0.55615234375,0.65380859375,0.287109375,0.425231933594
61356253614,-0.55615234375,0.65380859375,0.287109375,0.425170898438
61356276172,-0.55615234375,0.65380859375,0.287109375,0.425170898438
61356297328,-0.55615234375,0.65380859375,0.287048339844,0.425109863281
61356313656,-0.55615234375,0.653869628906,0.287048339844,0.425109863281
61356336085,-0.555908203125,0.653991699219,0.287048339844,0.425170898438
61356357337,-0.555725097656,0.654235839844,0.286926269531,0.425170898438
61356373638,-0.555358886719,0.654357910156,0.286804199219,0.425537109375
61356396114,-0.555114746094,0.654602050781,0.286804199219,0.425537109375
61356417297,-0.554870605469,0.654846191406,0.286743164062,0.425415039062
61356433672,-0.5546875,0.654907226562,0.286743164062,0.425598144531
61356463560,-0.554321289062,0.655151367188,0.286682128906,0.425720214844
61356478604,-0.553955078125,0.655517578125,0.286560058594,0.425842285156
61356493603,-0.553527832031,0.655822753906,0.286437988281,0.425903320312
61356516109,-0.553039550781,0.65625,0.286437988281,0.425842285156
61356538622,-0.552612304688,0.656494140625,0.286804199219,0.42578125
61356553593,-0.552429199219,0.65673828125,0.286987304688,0.425537109375
61356576117,-0.552307128906,0.656921386719,0.287048339844,0.425415039062
61356598636,-0.552307128906,0.656921386719,0.286987304688,0.425415039062
61356612968,-0.552429199219,0.657043457031,0.286926269531,0.425170898438
61356636150,-0.552429199219,0.657043457031,0.286926269531,0.425109863281
61356658643,-0.552612304688,0.656921386719,0.286804199219,0.425048828125
61356673032,-0.552673339844,0.656921386719,0.286804199219,0.425048828125
61356696785,-0.552734375,0.657104492188,0.286865234375,0.424743652344
61356718613,-0.552734375,0.657104492188,0.286865234375,0.424743652344
61356741115,-0.552490234375,0.6572265625,0.286743164062,0.4248046875
61356756186,-0.552490234375,0.657287597656,0.286804199219,0.4248046875
61356778588,-0.552673339844,0.657409667969,0.286804199219,0.42431640625
61356793019,-0.552673339844,0.657409667969,0.286804199219,0.42431640625
61356816096,-0.552734375,0.657409667969,0.286804199219,0.42431640625
61356838657,-0.552734375,0.657409667969,0.286804199219,0.424255371094
61356852954,-0.552734375,0.657470703125,0.286804199219,0.424194335938
61356876153,-0.552734375,0.657470703125,0.286804199219,0.424194335938
61356898613,-0.552734375,0.657470703125,0.286743164062,0.424194335938
61356912887,-0.552734375,0.657470703125,0.286743164062,0.424194335938
61356936062,-0.552673339844,0.657592773438,0.286560058594,0.424255371094
61356958601,-0.552490234375,0.657775878906,0.286437988281,0.424255371094
61356979622,-0.552490234375,0.657775878906,0.286437988281,0.424255371094
61356996082,-0.552734375,0.657775878906,0.286315917969,0.424072265625
61357018730,-0.552734375,0.657775878906,0.286315917969,0.424072265625
61357039801,-0.552856445312,0.657775878906,0.286315917969,0.423889160156
61357056136,-0.552856445312,0.657775878906,0.286315917969,0.423889160156
61357078612,-0.553039550781,0.657592773438,0.286376953125,0.423889160156
61357099793,-0.553039550781,0.657592773438,0.286376953125,0.423889160156
61357116137,-0.553039550781,0.657592773438,0.286376953125,0.423889160156
61357138606,-0.553161621094,0.657470703125,0.286437988281,0.423889160156
61357159709,-0.55322265625,0.657409667969,0.286376953125,0.423889160156
61357176155,-0.553161621094,0.657592773438,0.2861328125,0.423889160156
61357198612,-0.553161621094,0.657653808594,0.2861328125,0.423828125
61357219772,-0.55322265625,0.65771484375,0.286071777344,0.423645019531
61357236087,-0.553344726562,0.657775878906,0.286071777344,0.423278808594
61357258629,-0.553344726562,0.657836914062,0.286071777344,0.423278808594
61357279752,-0.553344726562,0.657836914062,0.286071777344,0.423278808594
61357296122,-0.553588867188,0.657653808594,0.286071777344,0.423278808594
61357318644,-0.553771972656,0.657531738281,0.285888671875,0.423278808594
61357339775,-0.553833007812,0.657531738281,0.285766601562,0.42333984375
61357356133,-0.553894042969,0.657531738281,0.285705566406,0.42333984375
61357378582,-0.554016113281,0.657531738281,0.285705566406,0.423156738281
61357399805,-0.554382324219,0.65771484375,0.285461425781,0.422546386719
61357416144,-0.554992675781,0.658020019531,0.285278320312,0.42138671875
61357438611,-0.556213378906,0.658386230469,0.28515625,0.419311523438
61357461167,-0.558349609375,0.65869140625,0.28515625,0.415954589844
61357475447,-0.561645507812,0.659240722656,0.284606933594,0.410949707031
61357498569,-0.566528320312,0.659912109375,0.283081054688,0.404174804688
61357521077,-0.572570800781,0.6611328125,0.280639648438,0.395324707031
61357535457,-0.579772949219,0.663452148438,0.277160644531,0.383239746094
61357558627,-0.588439941406,0.666748046875,0.272644042969,0.367126464844
61357581087,-0.599060058594,0.669860839844,0.266662597656,0.348205566406
61357602264,-0.611328125,0.673217773438,0.259338378906,0.325256347656
61357618677,-0.62451171875,0.676513671875,0.250610351562,0.299194335938
61357641105,-0.637573242188,0.679931640625,0.240661621094,0.270629882812
61357663589,-0.64990234375,0.683959960938,0.228820800781,0.239685058594
61357678640,-0.660888671875,0.6884765625,0.215209960938,0.206970214844
61357701088,-0.670104980469,0.693420410156,0.199951171875,0.173400878906
61357722114,-0.677185058594,0.698608398438,0.183471679688,0.14013671875
61357738554,-0.682495117188,0.70361328125,0.166320800781,0.10693359375
61357761115,-0.686096191406,0.708129882812,0.149536132812,0.0736083984375
61357782261,-0.687805175781,0.712463378906,0.132629394531,0.0408325195312
61357798613,-0.687744140625,0.716552734375,0.116149902344,0.008544921875
61357821120,-0.685852050781,0.720458984375,0.0999755859375,-0.0224609375
61357842263,-0.683166503906,0.723754882812,0.083251953125,-0.0503540039062
61357858623,-0.680236816406,0.726013183594,0.0670776367188,-0.0753784179688
61357881092,-0.676940917969,0.727783203125,0.0508422851562,-0.0974731445312
61357902293,-0.673828125,0.728820800781,0.0341186523438,-0.116821289062
61357918637,-0.670776367188,0.729248046875,0.0178833007812,-0.134033203125
61357941090,-0.667846679688,0.729248046875,0.00201416015625,-0.148742675781
61357962138,-0.665283203125,0.72900390625,-0.0137939453125,-0.16064453125
61357978392,-0.6630859375,0.728637695312,-0.0271606445312,-0.169555664062
61358001092,-0.661071777344,0.727783203125,-0.0366821289062,-0.178894042969
61358022339,-0.658996582031,0.7265625,-0.04443359375,-0.189453125
61358038580,-0.656433105469,0.725463867188,-0.0521240234375,-0.200134277344
61358061056,-0.653991699219,0.724487304688,-0.0595703125,-0.209350585938
61358082365,-0.652526855469,0.72314453125,-0.0675659179688,-0.216186523438
61358098624,-0.652526855469,0.721252441406,-0.0758056640625,-0.2197265625
61358121086,-0.653991699219,0.720031738281,-0.0802001953125,-0.217712402344
61358142119,-0.655639648438,0.721862792969,-0.0782470703125,-0.207214355469
61358157915,-0.654235839844,0.724609375,-0.071533203125,-0.204650878906
61358181141,-0.650817871094,0.7265625,-0.0653686523438,-0.210510253906
61358202263,-0.648254394531,0.727233886719,-0.0615844726562,-0.216979980469
61358217939,-0.647033691406,0.727416992188,-0.0608520507812,-0.220275878906
61358241112,-0.646301269531,0.727661132812,-0.0635375976562,-0.220886230469
61358262214,-0.646240234375,0.727783203125,-0.0684204101562,-0.219055175781
61358277951,-0.646667480469,0.727905273438,-0.072998046875,-0.216125488281
61358301105,-0.646911621094,0.72802734375,-0.0758056640625,-0.213806152344
61358322353,-0.647094726562,0.72802734375,-0.0772705078125,-0.212890625
61358337934,-0.647277832031,0.727722167969,-0.0779418945312,-0.213073730469
61358361113,-0.647521972656,0.727233886719,-0.0776977539062,-0.213989257812
61358383530,-0.647521972656,0.72705078125,-0.076904296875,-0.215026855469
61358406088,-0.647277832031,0.72705078125,-0.0759887695312,-0.216186523438
61358421084,-0.647094726562,0.727111816406,-0.0753784179688,-0.216674804688
61358443613,-0.646911621094,0.727172851562,-0.0753173828125,-0.216918945312
61358458608,-0.646667480469,0.727355957031,-0.0755615234375,-0.217102050781
