61395949821,-0.669921875,0.705993652344,-0.0826416015625,-0.214294433594
61395971023,-0.669738769531,0.705810546875,-0.0835571289062,-0.215270996094
61395985996,-0.669860839844,0.705139160156,-0.0842895507812,-0.216674804688
61396009689,-0.671447753906,0.706420898438,-0.0805053710938,-0.208862304688
61396031239,-0.673034667969,0.707580566406,-0.0765991210938,-0.201354980469
61396046171,-0.673156738281,0.707641601562,-0.0761108398438,-0.20068359375
61396069817,-0.672180175781,0.706787109375,-0.078125,-0.206298828125
61396091241,-0.67041015625,0.705505371094,-0.08203125,-0.214538574219
61396146202,-0.670288085938,0.705444335938,-0.0823974609375,-0.215026855469
61396146860,-0.671508789062,0.70654296875,-0.0799560546875,-0.20849609375
61396154540,-0.673034667969,0.707580566406,-0.0762329101562,-0.201354980469
61396167485,-0.673461914062,0.707702636719,-0.0746459960938,-0.200073242188
61396189783,-0.673461914062,0.707397460938,-0.0755004882812,-0.200866699219
61396220439,-0.673461914062,0.707458496094,-0.0751953125,-0.200805664062
61396249115,-0.67333984375,0.707397460938,-0.0753173828125,-0.201354980469
61396249844,-0.67333984375,0.707397460938,-0.0753784179688,-0.201477050781
61396280383,-0.673400878906,0.707336425781,-0.0756225585938,-0.201293945312
61396287350,-0.674438476562,0.707275390625,-0.0744018554688,-0.198486328125
61396309753,-0.673278808594,0.7060546875,-0.0780029296875,-0.205261230469
61396332254,-0.673034667969,0.705810546875,-0.0784912109375,-0.20654296875
61396348772,-0.671447753906,0.704467773438,-0.082275390625,-0.21484375
61396370435,-0.670349121094,0.703735351562,-0.0848999023438,-0.219482421875
61396391659,-0.670532226562,0.703979492188,-0.0845336914062,-0.218383789062
61396407919,-0.670959472656,0.704345703125,-0.08349609375,-0.216369628906
61396430542,-0.671081542969,0.704406738281,-0.0830688476562,-0.215881347656
61396451766,-0.669738769531,0.703247070312,-0.0857543945312,-0.22265625
61396468332,-0.668212890625,0.7021484375,-0.0889282226562,-0.229309082031
61396490413,-0.668762207031,0.702392578125,-0.08740234375,-0.227661132812
61396511609,-0.668518066406,0.702392578125,-0.0870361328125,-0.228393554688
61396527913,-0.66845703125,0.702392578125,-0.0859375,-0.228942871094
61396550400,-0.668151855469,0.70263671875,-0.083740234375,-0.229858398438
61396572869,-0.667785644531,0.702941894531,-0.08056640625,-0.231262207031
61396587333,-0.667602539062,0.703125,-0.0765991210938,-0.232543945312
61396610423,-0.667663574219,0.703247070312,-0.0721435546875,-0.233276367188
61396632901,-0.667846679688,0.703796386719,-0.0675048828125,-0.232666015625
61396647238,-0.66845703125,0.704406738281,-0.061767578125,-0.230529785156
61396676667,-0.669921875,0.705383300781,-0.05712890625,-0.224365234375
61396692690,-0.671325683594,0.707702636719,-0.0507202148438,-0.214233398438
61396714037,-0.672058105469,0.711059570312,-0.0404052734375,-0.202697753906
61396730437,-0.672729492188,0.714599609375,-0.0272216796875,-0.189758300781
61396752911,-0.673828125,0.717712402344,-0.0081787109375,-0.175415039062
61396775420,-0.675415039062,0.720458984375,0.0133056640625,-0.156799316406
61396790440,-0.676818847656,0.723205566406,0.0350952148438,-0.1328125
61396812883,-0.677673339844,0.725463867188,0.0567016601562,-0.105773925781
61396834064,-0.678039550781,0.726989746094,0.0780029296875,-0.0751953125
61396850438,-0.678161621094,0.726989746094,0.0997924804688,-0.0408325195312
61396872916,-0.677001953125,0.726013183594,0.120849609375,-0.00408935546875
61396893955,-0.674499511719,0.723937988281,0.140991210938,0.0330200195312
61396910389,-0.67041015625,0.721069335938,0.160583496094,0.0697021484375
61396932863,-0.664733886719,0.717224121094,0.18017578125,0.106323242188
61396954102,-0.658386230469,0.711853027344,0.198364257812,0.142883300781
61396970467,-0.6513671875,0.705627441406,0.216247558594,0.176147460938
61396992924,-0.643798828125,0.698852539062,0.233520507812,0.206481933594
61397013744,-0.63623046875,0.690979003906,0.250305175781,0.234741210938
61397030443,-0.627990722656,0.682922363281,0.265075683594,0.262634277344
61397052984,-0.620788574219,0.674560546875,0.278503417969,0.286437988281
61397074186,-0.613220214844,0.667175292969,0.290222167969,0.307495117188
61397090391,-0.606384277344,0.659362792969,0.301391601562,0.32666015625
61397112949,-0.600219726562,0.65234375,0.309875488281,0.343566894531
61397133966,-0.594909667969,0.647277832031,0.315734863281,0.356811523438
61397150431,-0.590637207031,0.642517089844,0.321166992188,0.367614746094
61397172964,-0.586730957031,0.638549804688,0.325378417969,0.376953125
61397194080,-0.583679199219,0.635070800781,0.328552246094,0.384643554688
61397210443,-0.581115722656,0.632385253906,0.331115722656,0.390808105469
61397239014,-0.578979492188,0.630615234375,0.332946777344,0.395263671875
61397255407,-0.5771484375,0.6298828125,0.334167480469,0.398071289062
61397277870,-0.575317382812,0.629821777344,0.335083007812,0.400085449219
61397298937,-0.573669433594,0.630187988281,0.335571289062,0.4013671875
61397315383,-0.572387695312,0.630615234375,0.336181640625,0.402038574219
61397337887,-0.570983886719,0.63134765625,0.336791992188,0.40234375
61397352237,-0.56982421875,0.632080078125,0.337585449219,0.402160644531
61397375385,-0.568786621094,0.632751464844,0.338073730469,0.402160644531
61397397950,-0.567749023438,0.63330078125,0.338500976562,0.402404785156
61397412341,-0.567016601562,0.634033203125,0.338806152344,0.402099609375
61397435412,-0.566589355469,0.634643554688,0.339172363281,0.401306152344
61397457905,-0.566650390625,0.634948730469,0.339416503906,0.400573730469
61397472306,-0.567199707031,0.634704589844,0.339599609375,0.400024414062
61397495411,-0.567626953125,0.634338378906,0.339782714844,0.399963378906
61397517854,-0.568115234375,0.633972167969,0.339416503906,0.400024414062
61397532207,-0.568664550781,0.633605957031,0.339233398438,0.400024414062
61397555415,-0.5693359375,0.633178710938,0.339294433594,0.399780273438
61397577910,-0.569763183594,0.632751464844,0.33935546875,0.399719238281
61397599051,-0.570129394531,0.632507324219,0.339233398438,0.399658203125
61397615395,-0.570373535156,0.632507324219,0.339172363281,0.399475097656
61397637906,-0.570373535156,0.632507324219,0.339111328125,0.3994140625
61397659080,-0.570556640625,0.632629394531,0.3388671875,0.399169921875
61397675390,-0.570739746094,0.632690429688,0.338623046875,0.398986816406
61397697941,-0.571044921875,0.632751464844,0.338562011719,0.398620605469
61397719075,-0.571411132812,0.632873535156,0.338317871094,0.398132324219
61397735424,-0.571533203125,0.633117675781,0.338256835938,0.397583007812
61397757865,-0.571594238281,0.633544921875,0.338073730469,0.396911621094
61397779146,-0.571533203125,0.634033203125,0.337829589844,0.396423339844
61397795400,-0.571472167969,0.634399414062,0.337707519531,0.396118164062
61397817883,-0.571350097656,0.634460449219,0.337890625,0.395935058594
61397839012,-0.5712890625,0.634582519531,0.338012695312,0.395812988281
61397855434,-0.571044921875,0.634704589844,0.338073730469,0.395812988281
61397877912,-0.570922851562,0.635070800781,0.338012695312,0.395568847656
61397899149,-0.570922851562,0.635192871094,0.338134765625,0.395202636719
61397915393,-0.571105957031,0.63525390625,0.338195800781,0.394775390625
61397937864,-0.571105957031,0.63525390625,0.338195800781,0.394775390625
61397959047,-0.571533203125,0.635070800781,0.337951660156,0.394653320312
61397975451,-0.572082519531,0.634826660156,0.337768554688,0.394470214844
61397997849,-0.572570800781,0.634521484375,0.337646484375,0.394226074219
61398018933,-0.573059082031,0.634399414062,0.33740234375,0.394104003906
61398035414,-0.57373046875,0.634399414062,0.337036132812,0.393432617188
61398057903,-0.574645996094,0.634887695312,0.336364746094,0.391845703125
61398086540,-0.575988769531,0.635681152344,0.335510253906,0.389404296875
61398094746,-0.578125,0.636657714844,0.333923339844,0.385803222656
61398117934,-0.581359863281,0.638305664062,0.331237792969,0.380554199219
61398140372,-0.585571289062,0.640808105469,0.326904296875,0.373596191406
61398161561,-0.591064453125,0.643920898438,0.320983886719,0.364562988281
61398177860,-0.597900390625,0.647583007812,0.314453125,0.352416992188
61398200374,-0.605712890625,0.651794433594,0.307067871094,0.337524414062
61398221475,-0.614379882812,0.656616210938,0.298461914062,0.319885253906
61398237867,-0.623291015625,0.661865234375,0.288879394531,0.299926757812
61398260377,-0.632019042969,0.667602539062,0.278381347656,0.278015136719
61398281515,-0.64013671875,0.673828125,0.26708984375,0.254577636719
61398297890,-0.647521972656,0.680541992188,0.25439453125,0.229858398438
61398320416,-0.654296875,0.687622070312,0.240051269531,0.203430175781
61398342905,-0.660339355469,0.694641113281,0.224853515625,0.175659179688
61398357900,-0.665405273438,0.701293945312,0.209167480469,0.147155761719
61398380562,-0.669067382812,0.707763671875,0.193054199219,0.119018554688
61398401437,-0.671691894531,0.713745117188,0.176574707031,0.0905151367188
61398417864,-0.673583984375,0.719177246094,0.15869140625,0.0620727539062
61398440346,-0.675048828125,0.7236328125,0.139770507812,0.0339965820312
61398461570,-0.675903320312,0.726806640625,0.121826171875,0.0054931640625
61398477911,-0.675415039062,0.729614257812,0.104431152344,-0.0220947265625
61398500436,-0.674255371094,0.73193359375,0.0865478515625,-0.0469970703125
61398521405,-0.673278808594,0.732971191406,0.0682373046875,-0.0692138671875
61398537879,-0.672729492188,0.732666015625,0.0503540039062,-0.090087890625
61398560390,-0.672241210938,0.731506347656,0.0322265625,-0.109558105469
61398581431,-0.671569824219,0.729858398438,0.0150756835938,-0.126708984375
61398597850,-0.670776367188,0.728210449219,-0.00042724609375,-0.140747070312
61398620394,-0.669982910156,0.726318359375,-0.0145263671875,-0.153137207031
61398641438,-0.6689453125,0.724060058594,-0.0269775390625,-0.165832519531
61398657898,-0.667907714844,0.721801757812,-0.0379638671875,-0.177307128906
61398680479,-0.6669921875,0.7197265625,-0.047607421875,-0.186767578125
61398701539,-0.666809082031,0.717529296875,-0.0555419921875,-0.193603515625
61398717888,-0.667175292969,0.715087890625,-0.0629272460938,-0.198852539062
61398740365,-0.667175292969,0.712646484375,-0.0690307617188,-0.205505371094
61398761570,-0.666076660156,0.710510253906,-0.0732421875,-0.214782714844
61398768361,-0.664794921875,0.708374023438,-0.0777587890625,-0.22412109375
61398784737,-0.664672851562,0.705383300781,-0.08349609375,-0.231689453125
61398805920,-0.666320800781,0.702697753906,-0.0889282226562,-0.233093261719
61398828309,-0.668090820312,0.704223632812,-0.0916748046875,-0.22216796875
61398843364,-0.666564941406,0.708557128906,-0.0888671875,-0.213928222656
61398865898,-0.663024902344,0.711853027344,-0.0846557617188,-0.215637207031
61398888490,-0.660400390625,0.713195800781,-0.0807495117188,-0.220703125
61398903418,-0.658264160156,0.713684082031,-0.077880859375,-0.226440429688
61398926109,-0.656616210938,0.713928222656,-0.077880859375,-0.23046875
61398948409,-0.656433105469,0.713745117188,-0.081298828125,-0.230407714844
61398963336,-0.657836914062,0.713073730469,-0.0859985351562,-0.226623535156
61398985911,-0.659545898438,0.712463378906,-0.0897827148438,-0.222229003906
61399008442,-0.660339355469,0.712158203125,-0.0916748046875,-0.219970703125
61399023263,-0.660461425781,0.712036132812,-0.091796875,-0.220031738281
61399045860,-0.660217285156,0.712036132812,-0.0907592773438,-0.22119140625
61399068321,-0.65966796875,0.712280273438,-0.0892333984375,-0.222473144531
61399083392,-0.659118652344,0.712707519531,-0.0877075195312,-0.223449707031
61399107228,-0.658752441406,0.713134765625,-0.0865478515625,-0.223754882812
61399123673,-0.658569335938,0.71337890625,-0.086181640625,-0.223388671875
61399165769,-0.658569335938,0.713684082031,-0.0869750976562,-0.222229003906
61399183682,-0.658752441406,0.713745117188,-0.08740234375,-0.221496582031
61399203239,-0.658874511719,0.713806152344,-0.0873413085938,-0.220886230469
61399225936,-0.658874511719,0.713928222656,-0.0869140625,-0.220703125
61399243716,-0.65869140625,0.714050292969,-0.0861206054688,-0.221069335938
61399263361,-0.658508300781,0.714172363281,-0.0853881835938,-0.221435546875
61399286026,-0.658447265625,0.714233398438,-0.0850219726562,-0.221557617188
61399303635,-0.658508300781,0.71435546875,-0.0849609375,-0.221130371094
61399323418,-0.658508300781,0.714538574219,-0.0848999023438,-0.220581054688
61399345751,-0.658447265625,0.714660644531,-0.0846557617188,-0.220275878906
61399363691,-0.658325195312,0.71484375,-0.084228515625,-0.220336914062
61399383372,-0.658203125,0.714904785156,-0.083740234375,-0.220642089844
61399405869,-0.658081054688,0.714965820312,-0.0833129882812,-0.220886230469
61399423683,-0.658081054688,0.715026855469,-0.0831298828125,-0.220886230469
61399443351,-0.658020019531,0.715026855469,-0.0831909179688,-0.220886230469
61399465926,-0.658081054688,0.715026855469,-0.0833740234375,-0.220642089844
61399483696,-0.658264160156,0.714965820312,-0.08349609375,-0.220336914062
61399503364,-0.658386230469,0.714904785156,-0.08349609375,-0.220092773438
61399525722,-0.658386230469,0.714904785156,-0.08349609375,-0.220092773438
61399543691,-0.658386230469,0.714904785156,-0.0834350585938,-0.220092773438
61399564688,-0.658386230469,0.714965820312,-0.083251953125,-0.220092773438
61399585899,-0.658386230469,0.714965820312,-0.0831909179688,-0.220092773438
61399603700,-0.658386230469,0.714965820312,-0.0831909179688,-0.220031738281
61399624688,-0.658386230469,0.714965820312,-0.0831298828125,-0.220031738281
61399653385,-0.658386230469,0.714965820312,-0.0831298828125,-0.220031738281
61399663657,-0.658447265625,0.714965820312,-0.0830688476562,-0.219970703125
