61513493812,0.46533203125,0.14990234375,-0.91357421875
61513510130,0.46240234375,0.1494140625,-0.9111328125
61513531421,0.4453125,0.154296875,-0.9111328125
61513555245,0.12841796875,0.0849609375,-1.0390625
61513570283,1.0947265625,0.3515625,-0.80029296875
61513591545,0.97607421875,0.3359375,-0.8291015625
61513615220,1.08544921875,0.32177734375,-0.49462890625
61513630253,0.640625,0.1376953125,-0.51220703125
61513651574,-0.02001953125,-0.0283203125,-0.990234375
61513689816,-0.1025390625,0.013671875,-1.3876953125
61513690450,0.4912109375,0.22705078125,-1.2041015625
61513715297,1.05126953125,0.34912109375,-0.6767578125
61513730436,0.9150390625,0.23828125,-0.42431640625
61513750389,0.251953125,0.05859375,-0.90087890625
61513780485,0.48876953125,0.14111328125,-0.91845703125
61513816364,0.46240234375,0.1552734375,-0.9150390625
61513826523,0.4599609375,0.15771484375,-0.9072265625
61513839519,0.46826171875,0.1591796875,-0.9130859375
61513847904,0.3046875,0.13525390625,-0.8955078125
61513870203,-0.1396484375,-0.03662109375,-0.9208984375
61513900863,0.609375,0.11474609375,-0.5615234375
61513915213,0.19287109375,0.01220703125,-0.79833984375
61513938388,-0.1728515625,-0.02978515625,-1.2548828125
61513960832,0.16015625,0.12109375,-1.36767578125
61513975172,0.8720703125,0.3271484375,-0.8984375
61513998364,1.06298828125,0.296875,-0.44921875
61514020816,0.45166015625,0.07958984375,-0.6064453125
61514035122,-0.13330078125,-0.05029296875,-1.18701171875
61514058393,0.35595703125,0.02197265625,-0.75
61514080849,0.51318359375,0.119140625,-0.96240234375
61514095205,0.50537109375,0.125,-0.96533203125
61514124491,0.49658203125,0.1083984375,-0.9599609375
61514140841,0.4736328125,0.11279296875,-0.9658203125
61514155220,0.501953125,0.1259765625,-0.9814453125
61514178372,0.52197265625,0.10546875,-1.00439453125
61514200834,0.5263671875,0.08154296875,-1.009765625
61514221936,0.5009765625,0.06591796875,-1.0478515625
61514238338,0.505859375,0.06103515625,-1.09326171875
61514260615,0.56005859375,0.08154296875,-1.12744140625
61514281997,0.55810546875,0.0244140625,-1.181640625
61514298360,0.501953125,-0.00390625,-1.22021484375
61514311380,0.4638671875,0.0283203125,-1.259765625
61514333885,0.43359375,0.0009765625,-1.23828125
61514348866,0.3564453125,-0.0576171875,-1.26123046875
61514371351,0.30322265625,-0.0478515625,-1.2890625
61514386347,0.224609375,-0.03955078125,-1.29345703125
61514408876,0.13818359375,-0.08251953125,-1.25
61514431380,0.0810546875,-0.0849609375,-1.26611328125
61514446344,0.02490234375,-0.0771484375,-1.22802734375
61514468928,-0.03466796875,-0.10791015625,-1.20166015625
61514491405,-0.10595703125,-0.119140625,-1.17138671875
61514506356,-0.1875,-0.1259765625,-1.13037109375
61514528744,-0.23876953125,-0.12255859375,-1.07666015625
61514551232,-0.29296875,-0.15283203125,-1.0244140625
61514566206,-0.31103515625,-0.13720703125,-0.97119140625
61514588896,-0.36865234375,-0.16650390625,-0.93017578125
61514611417,-0.388671875,-0.1875,-0.8876953125
61514633882,-0.3466796875,-0.19287109375,-0.82763671875
61514648772,-0.3662109375,-0.21142578125,-0.73486328125
61514671367,-0.416015625,-0.25732421875,-0.6513671875
61514686347,-0.466796875,-0.263671875,-0.6416015625
61514708979,-0.49853515625,-0.29150390625,-0.62060546875
61514731207,-0.45751953125,-0.34716796875,-0.58056640625
61514746343,-0.41357421875,-0.3173828125,-0.5517578125
61514768863,-0.4345703125,-0.314453125,-0.52978515625
61514791247,-0.466796875,-0.326171875,-0.50537109375
61514807715,-0.5185546875,-0.384765625,-0.47314453125
61514828867,-0.51513671875,-0.47265625,-0.4609375
61514851351,-0.5048828125,-0.51904296875,-0.45654296875
61514867718,-0.46337890625,-0.51513671875,-0.47607421875
61514888892,-0.46728515625,-0.5126953125,-0.47509765625
61514914197,-0.51611328125,-0.4765625,-0.46337890625
61514927710,-0.52099609375,-0.49951171875,-0.47509765625
61514956382,-0.50146484375,-0.54638671875,-0.47119140625
61514971389,-0.482421875,-0.56640625,-0.47998046875
61514987714,-0.5009765625,-0.57666015625,-0.46923828125
61515008707,-0.52587890625,-0.59619140625,-0.466796875
61515031196,-0.533203125,-0.6083984375,-0.48974609375
61515047643,-0.541015625,-0.619140625,-0.4951171875
61515068775,-0.5390625,-0.62451171875,-0.51123046875
61515091336,-0.54296875,-0.6630859375,-0.52783203125
61515107716,-0.580078125,-0.6787109375,-0.53662109375
61515128999,-0.58984375,-0.6845703125,-0.5439453125
61515151364,-0.56689453125,-0.685546875,-0.53173828125
61515169139,-0.56396484375,-0.68798828125,-0.53759765625
61515189056,-0.58056640625,-0.68310546875,-0.54736328125
61515206672,-0.60009765625,-0.68017578125,-0.55419921875
61515229157,-0.58935546875,-0.677734375,-0.5537109375
61515248844,-0.57275390625,-0.6845703125,-0.537109375
61515266691,-0.572265625,-0.6611328125,-0.54638671875
61515289165,-0.5849609375,-0.650390625,-0.556640625
61515308877,-0.57861328125,-0.65625,-0.55078125
61515326634,-0.57958984375,-0.66259765625,-0.55615234375
61515349151,-0.5732421875,-0.65869140625,-0.5361328125
61515368845,-0.56982421875,-0.65087890625,-0.5341796875
61515386610,-0.58056640625,-0.6416015625,-0.54052734375
61515409079,-0.583984375,-0.646484375,-0.5537109375
61515428802,-0.587890625,-0.63623046875,-0.55322265625
61515446655,-0.587890625,-0.64501953125,-0.54345703125
61515469156,-0.56787109375,-0.6396484375,-0.521484375
61515491651,-0.5703125,-0.62255859375,-0.5087890625
61515506648,-0.5712890625,-0.6123046875,-0.5224609375
61515529126,-0.55615234375,-0.58935546875,-0.5224609375
61515548722,-0.5302734375,-0.56005859375,-0.505859375
61515566617,-0.49609375,-0.52587890625,-0.4736328125
61515589149,-0.4560546875,-0.478515625,-0.4443359375
61515608766,-0.40380859375,-0.431640625,-0.439453125
61515631335,-0.35546875,-0.3876953125,-0.412109375
61515649158,-0.34130859375,-0.34130859375,-0.39306640625
61515668832,-0.35302734375,-0.2939453125,-0.384765625
61515691394,-0.35498046875,-0.27880859375,-0.41796875
61515709103,-0.3525390625,-0.30224609375,-0.47119140625
61515730119,-0.322265625,-0.31103515625,-0.53271484375
61515751257,-0.294921875,-0.294921875,-0.56494140625
61515769117,-0.28271484375,-0.2373046875,-0.6279296875
61515790189,-0.28759765625,-0.255859375,-0.73486328125
61515811313,-0.27880859375,-0.28076171875,-0.828125
61515829131,-0.267578125,-0.24072265625,-0.88134765625
61515850165,-0.25,-0.1630859375,-0.92529296875
61515866599,-0.23779296875,-0.14599609375,-0.98681640625
61515888336,-0.14794921875,-0.20947265625,-1.11279296875
61515909421,-0.08740234375,-0.27294921875,-1.2431640625
61515931937,-0.09716796875,-0.212890625,-1.220703125
61515948335,-0.12158203125,-0.1513671875,-1.22509765625
61515969491,-0.0498046875,-0.09765625,-1.28857421875
61515985174,0.1220703125,-0.171875,-1.3759765625
61516008318,0.201171875,-0.28076171875,-1.35205078125
61516029611,0.1904296875,-0.25244140625,-1.296875
61516045391,0.1611328125,-0.15771484375,-1.3203125
61516068321,0.22705078125,-0.0859375,-1.30126953125
61516090764,0.35400390625,-0.0634765625,-1.294921875
61516113404,0.44677734375,-0.0830078125,-1.193359375
61516135836,0.4775390625,-0.09228515625,-1.1826171875
61516150849,0.42724609375,-0.0224609375,-1.1630859375
61516165160,0.41650390625,-0.015625,-1.130859375
61516188297,0.44677734375,0.00927734375,-1.08251953125
61516210800,0.48095703125,0.07568359375,-1.02294921875
61516232018,0.48876953125,0.10498046875,-1.001953125
61516254348,0.55908203125,0.08349609375,-0.953125
61516278345,0.4951171875,0.0947265625,-0.95849609375
61516299550,0.3330078125,0.04296875,-1.10498046875
61516308293,0.3525390625,0.19287109375,-1.15625
61516330849,0.443359375,0.28759765625,-0.98486328125
61516351963,0.4755859375,0.2109375,-0.9033203125
61516375816,0.47998046875,0.1435546875,-0.8798828125
61516390872,0.5029296875,0.087890625,-0.890625
61516411998,0.52880859375,0.0419921875,-0.89013671875
61516428305,0.5380859375,0.03369140625,-0.90869140625
61516450751,0.544921875,0.05859375,-0.9384765625
61516471898,0.5478515625,0.0859375,-0.9638671875
61516488310,0.5283203125,0.1181640625,-0.96435546875
61516510819,0.49755859375,0.14892578125,-0.9462890625
61516525118,0.4775390625,0.1484375,-0.94091796875
61516548326,0.4677734375,0.14111328125,-0.93994140625
61516570789,0.46435546875,0.12548828125,-0.9375
61516591893,0.4833984375,0.126953125,-0.92333984375
61516608326,0.48974609375,0.1357421875,-0.91455078125
61516630881,0.48193359375,0.158203125,-0.89111328125
61516651972,0.48095703125,0.1845703125,-0.88818359375
61516668335,0.4853515625,0.1953125,-0.8974609375
61516690837,0.48193359375,0.2021484375,-0.90478515625
61516711867,0.48095703125,0.197265625,-0.89990234375
61516728360,0.47900390625,0.18701171875,-0.8828125
61516750836,0.48046875,0.1787109375,-0.875
61516771870,0.47802734375,0.16796875,-0.88330078125
61516788360,0.48095703125,0.17138671875,-0.89404296875
61516810818,0.48095703125,0.17919921875,-0.9052734375
61516848355,0.4697265625,0.16943359375,-0.90283203125
61516870793,0.46826171875,0.16357421875,-0.89892578125
61516891951,0.47119140625,0.16552734375,-0.8994140625
61516908344,0.47314453125,0.16259765625,-0.90283203125
61516930843,0.470703125,0.1728515625,-0.904296875
61516951992,0.47265625,0.1748046875,-0.90966796875
61516968321,0.478515625,0.169921875,-0.90869140625
61516990792,0.47412109375,0.166015625,-0.90283203125
61517012032,0.47021484375,0.16943359375,-0.90087890625
61517028307,0.46630859375,0.1650390625,-0.90087890625
61517050736,0.46826171875,0.169921875,-0.90673828125
61517073344,0.47216796875,0.1708984375,-0.90380859375
61517088390,0.46875,0.1728515625,-0.91357421875
61517110796,0.47509765625,0.17724609375,-0.9052734375
61517133416,0.47509765625,0.17041015625,-0.90380859375
61517148340,0.47900390625,0.166015625,-0.89794921875
61517170793,0.470703125,0.1630859375,-0.8935546875
61517193312,0.47900390625,0.1650390625,-0.8896484375
61517207635,0.478515625,0.1669921875,-0.90087890625
61517230779,0.47021484375,0.17431640625,-0.90380859375
61517253336,0.47412109375,0.1748046875,-0.90673828125
61517267627,0.47705078125,0.17138671875,-0.90185546875
61517290869,0.48046875,0.16943359375,-0.89794921875
61517313298,0.47802734375,0.1640625,-0.884765625
61517327685,0.48046875,0.15869140625,-0.89892578125
61517350812,0.48193359375,0.16162109375,-0.8994140625
61517373355,0.474609375,0.1669921875,-0.89306640625
