61595992557,0.5068359375,0.13720703125,-0.88525390625
61596007455,0.5068359375,0.13525390625,-0.88916015625
61596031303,0.5234375,0.1328125,-0.88232421875
61596052641,0.8095703125,0.189453125,-0.77099609375
61596067652,0.01513671875,-0.04248046875,-0.859375
61596091260,0.2080078125,-0.01025390625,-0.78515625
61596112645,-0.10546875,-0.06201171875,-1.15283203125
61596127554,0.05078125,0.04736328125,-1.36962890625
61596181292,0.70751953125,0.2529296875,-1.04931640625
61596189982,1.13623046875,0.32470703125,-0.55029296875
61596204614,0.84619140625,0.17919921875,-0.42626953125
61596205442,0.1484375,-0.01416015625,-0.849609375
61596226288,-0.10791015625,-0.02734375,-1.3310546875
61596247608,0.76318359375,0.189453125,-0.79541015625
61596264000,0.494140625,0.1328125,-0.88037109375
61596317688,0.494140625,0.123046875,-0.87890625
61596318333,0.5048828125,0.12939453125,-0.8798828125
61596325218,0.5107421875,0.1396484375,-0.90283203125
61596345616,0.60986328125,0.13525390625,-0.88232421875
61596368079,0.75732421875,0.26904296875,-1.1279296875
61596391913,-0.1259765625,-0.009765625,-1.27685546875
61596406344,0.037109375,0.04833984375,-1.3486328125
61596429413,0.6142578125,0.220703125,-1.115234375
61596451938,1.10986328125,0.31787109375,-0.6220703125
61596474432,0.9248046875,0.2041015625,-0.4140625
61596489418,0.232421875,-0.00048828125,-0.77294921875
61596511932,-0.14013671875,-0.041015625,-1.2822265625
61596532967,0.28857421875,0.1474609375,-1.30078125
61596549412,0.18115234375,0.13916015625,-1.1103515625
61596571899,0.5068359375,0.15966796875,-0.8955078125
61596593087,0.51611328125,0.12744140625,-0.90283203125
61596609419,0.49609375,0.12646484375,-0.8955078125
61596631888,0.49853515625,0.130859375,-0.88818359375
61596653115,0.49853515625,0.13330078125,-0.8916015625
61596669389,0.5009765625,0.13720703125,-0.89599609375
61596691917,0.50244140625,0.1396484375,-0.8935546875
61596713053,0.50244140625,0.138671875,-0.88623046875
61596729386,0.49609375,0.13427734375,-0.89501953125
61596751913,0.50146484375,0.13623046875,-0.89599609375
61596774390,0.50244140625,0.13525390625,-0.8955078125
61596789387,0.50146484375,0.13330078125,-0.89306640625
61596811926,0.5048828125,0.13330078125,-0.89599609375
61596833079,0.50634765625,0.12646484375,-0.88916015625
61596849389,0.50341796875,0.12841796875,-0.89306640625
61596871909,0.501953125,0.13818359375,-0.890625
61596893084,0.50390625,0.13671875,-0.8935546875
61596909414,0.5,0.13623046875,-0.88720703125
61596931861,0.50390625,0.13916015625,-0.8876953125
61596954459,0.50537109375,0.1396484375,-0.89306640625
61596969398,0.50341796875,0.138671875,-0.89013671875
61596991908,0.50146484375,0.13525390625,-0.8857421875
61597014392,0.49560546875,0.13330078125,-0.880859375
61597029362,0.49951171875,0.1337890625,-0.880859375
61597051901,0.50732421875,0.13427734375,-0.89453125
61597074392,0.4921875,0.13720703125,-0.900390625
61597088741,0.5009765625,0.13671875,-0.9072265625
61597111869,0.5087890625,0.13232421875,-0.89306640625
61597134394,0.5048828125,0.1328125,-0.89013671875
61597148755,0.50244140625,0.13037109375,-0.88232421875
61597171958,0.50146484375,0.13623046875,-0.884765625
61597194420,0.50244140625,0.1416015625,-0.888671875
61597208743,0.50732421875,0.13916015625,-0.88720703125
61597231890,0.50390625,0.14404296875,-0.8818359375
61597254409,0.5068359375,0.1455078125,-0.89208984375
61597268766,0.50341796875,0.13916015625,-0.89013671875
61597298040,0.50537109375,0.14013671875,-0.89306640625
61597314839,0.50341796875,0.1416015625,-0.8916015625
61597336964,0.50439453125,0.14013671875,-0.8955078125
61597357965,0.5009765625,0.1416015625,-0.88818359375
61597374370,0.50146484375,0.1328125,-0.89404296875
61597396892,0.51025390625,0.13232421875,-0.89453125
61597418130,0.50439453125,0.12890625,-0.89990234375
61597434370,0.50537109375,0.1318359375,-0.9052734375
61597456909,0.51220703125,0.13427734375,-0.9033203125
61597479411,0.5048828125,0.12451171875,-0.908203125
61597484885,0.4921875,0.13623046875,-0.89697265625
61597501241,0.5048828125,0.15087890625,-0.9189453125
61597522366,0.52587890625,0.16357421875,-0.9326171875
61597544761,0.50634765625,0.14404296875,-0.9306640625
61597559889,0.43505859375,0.140625,-0.9306640625
61597582425,0.40771484375,0.12548828125,-0.9521484375
61597604886,0.42431640625,0.12060546875,-0.97314453125
61597621246,0.400390625,0.1279296875,-1.017578125
61597642479,0.400390625,0.1435546875,-1.05712890625
61597664851,0.40966796875,0.17724609375,-1.07958984375
61597681285,0.3486328125,0.18994140625,-1.11083984375
61597702362,0.30517578125,0.15087890625,-1.1552734375
61597724922,0.26025390625,0.1220703125,-1.13916015625
61597741214,0.2333984375,0.1005859375,-1.18017578125
61597762441,0.19970703125,0.1767578125,-1.1982421875
61597784921,0.14990234375,0.17919921875,-1.1806640625
61597801205,0.0595703125,0.15380859375,-1.18017578125
61597822446,-0.017578125,0.12255859375,-1.1728515625
61597844882,-0.0771484375,0.162109375,-1.16650390625
61597861381,-0.1484375,0.16162109375,-1.140625
61597882358,-0.17724609375,0.1005859375,-1.0673828125
61597904891,-0.19921875,0.1005859375,-1.01416015625
61597921242,-0.26416015625,0.09326171875,-0.99609375
61597942454,-0.3076171875,0.08251953125,-0.9736328125
61597964906,-0.3466796875,0.109375,-0.9609375
61597981244,-0.3984375,0.07958984375,-0.8896484375
61598002343,-0.4091796875,0.0615234375,-0.82861328125
61598024867,-0.44580078125,0.09716796875,-0.83447265625
61598041214,-0.48974609375,0.078125,-0.81982421875
61598062358,-0.49951171875,0.08056640625,-0.74267578125
61598084837,-0.52490234375,0.0869140625,-0.73779296875
61598101209,-0.5517578125,0.103515625,-0.73388671875
61598122281,-0.5673828125,0.0712890625,-0.69677734375
61598144875,-0.59521484375,0.03369140625,-0.6484375
61598161220,-0.623046875,0.02392578125,-0.6279296875
61598182371,-0.65380859375,0.0048828125,-0.625
61598204840,-0.66748046875,0.0283203125,-0.611328125
61598221220,-0.69873046875,0.013671875,-0.6015625
61598242412,-0.7158203125,-0.0146484375,-0.58251953125
61598264880,-0.72705078125,-0.04150390625,-0.5693359375
61598281200,-0.734375,-0.0478515625,-0.5615234375
61598302296,-0.76708984375,-0.04833984375,-0.552734375
61598324860,-0.78564453125,-0.06640625,-0.56591796875
61598341222,-0.7958984375,-0.06591796875,-0.55859375
61598362425,-0.80712890625,-0.05322265625,-0.5849609375
61598380161,-0.8095703125,-0.06640625,-0.57958984375
61598402659,-0.833984375,-0.095703125,-0.59228515625
61598422420,-0.857421875,-0.06396484375,-0.61279296875
61598440221,-0.8544921875,-0.05126953125,-0.6123046875
61598462672,-0.84814453125,-0.0615234375,-0.60205078125
61598482371,-0.84521484375,-0.04248046875,-0.6015625
61598500146,-0.86181640625,-0.0478515625,-0.6025390625
61598522664,-0.8642578125,-0.015625,-0.63232421875
61598542221,-0.8505859375,-0.03173828125,-0.60693359375
61598560175,-0.82763671875,-0.07080078125,-0.60302734375
61598582716,-0.81005859375,-0.05322265625,-0.58837890625
61598602285,-0.822265625,-0.06640625,-0.60693359375
61598620188,-0.8154296875,-0.05126953125,-0.60205078125
61598642678,-0.8134765625,-0.0537109375,-0.619140625
61598662463,-0.7978515625,-0.0400390625,-0.60693359375
61598680259,-0.7919921875,-0.0458984375,-0.603515625
61598702696,-0.8095703125,-0.0302734375,-0.60302734375
61598722385,-0.80419921875,-0.01171875,-0.61572265625
61598740174,-0.79052734375,-0.04150390625,-0.59423828125
61598762679,-0.78564453125,-0.0478515625,-0.59521484375
61598782390,-0.74755859375,-0.03955078125,-0.5810546875
61598804912,-0.70458984375,-0.0224609375,-0.568359375
61598822685,-0.6494140625,-0.00341796875,-0.58642578125
61598842407,-0.60009765625,0.01708984375,-0.57763671875
61598864937,-0.572265625,-0.01025390625,-0.583984375
61598884100,-0.53125,-0.01123046875,-0.61181640625
61598902361,-0.51611328125,0.00927734375,-0.6396484375
61598924882,-0.5263671875,0.00830078125,-0.68310546875
61598942633,-0.5048828125,0.0166015625,-0.71728515625
61598963653,-0.43798828125,0.04443359375,-0.7744140625
61598980193,-0.37646484375,0.0986328125,-0.82373046875
61599002685,-0.34716796875,0.1044921875,-0.86474609375
61599023692,-0.3349609375,0.08984375,-0.90673828125
61599045551,-0.353515625,0.0634765625,-0.953125
61599061813,-0.3134765625,0.1025390625,-0.9912109375
61599083096,-0.24853515625,0.125,-1.07470703125
61599105538,-0.1826171875,0.13134765625,-1.091796875
61599121891,-0.13623046875,0.1640625,-1.119140625
61599142968,-0.1201171875,0.1455078125,-1.1328125
61599158689,-0.080078125,0.10205078125,-1.14990234375
61599181836,0.00537109375,0.13232421875,-1.15625
61599203040,0.09716796875,0.16845703125,-1.13232421875
61599218712,0.138671875,0.1552734375,-1.15185546875
61599241860,0.1533203125,0.17822265625,-1.1884765625
61599263037,0.1845703125,0.18798828125,-1.20263671875
61599278693,0.236328125,0.21923828125,-1.18212890625
61599301830,0.25732421875,0.203125,-1.10595703125
61599324374,0.283203125,0.1650390625,-1.04931640625
61599338714,0.29736328125,0.11865234375,-1.03466796875
61599361867,0.2939453125,0.11328125,-1.0380859375
61599384370,0.3173828125,0.11083984375,-1.0224609375
61599398710,0.36181640625,0.11181640625,-0.98828125
61599421881,0.39794921875,0.11865234375,-0.962890625
61599444383,0.4287109375,0.130859375,-0.92578125
61599465564,0.435546875,0.20263671875,-0.94580078125
61599481894,0.26806640625,0.140625,-1.0673828125
61599504381,0.27099609375,0.0244140625,-1.24658203125
61599526871,0.484375,0.20068359375,-1.03466796875
61599541860,0.5322265625,0.2021484375,-0.89892578125
61599564315,0.49755859375,0.10546875,-0.880859375
61599585505,0.5009765625,0.09228515625,-0.8837890625
61599601869,0.509765625,0.1171875,-0.88134765625
61599624353,0.50341796875,0.1357421875,-0.884765625
61599645464,0.49658203125,0.16064453125,-0.92431640625
61599661849,0.49169921875,0.19873046875,-0.92431640625
61599684393,0.47998046875,0.21875,-0.89453125
61599705484,0.46044921875,0.20263671875,-0.89501953125
61599721833,0.45654296875,0.18994140625,-0.88818359375
61599744449,0.4658203125,0.1748046875,-0.896484375
61599758717,0.4755859375,0.154296875,-0.90185546875
61599781863,0.486328125,0.14111328125,-0.8955078125
61599804341,0.4814453125,0.14404296875,-0.8896484375
61599825451,0.48046875,0.14794921875,-0.896484375
61599841859,0.47509765625,0.14990234375,-0.9052734375
