61719869081,-0.689514160156,0.684753417969,-0.108154296875,-0.209655761719
61719890586,-0.689514160156,0.684753417969,-0.108154296875,-0.209655761719
61719905497,-0.689819335938,0.6845703125,-0.108215332031,-0.209411621094
61719929112,-0.690612792969,0.685485839844,-0.105712890625,-0.204895019531
61719950490,-0.689819335938,0.684875488281,-0.108581542969,-0.208312988281
61719965367,-0.689880371094,0.684936523438,-0.109069824219,-0.207458496094
61719987848,-0.691284179688,0.686096191406,-0.105834960938,-0.200561523438
61720011492,-0.692749023438,0.687072753906,-0.101867675781,-0.194091796875
61720066165,-0.692749023438,0.686828613281,-0.101623535156,-0.195190429688
61720068171,-0.691345214844,0.685363769531,-0.105651855469,-0.202941894531
61720069064,-0.690002441406,0.684143066406,-0.109680175781,-0.209228515625
61720079691,-0.690246582031,0.684387207031,-0.109619140625,-0.207824707031
61720094126,-0.689270019531,0.683898925781,-0.111877441406,-0.21142578125
61720116154,-0.689025878906,0.68408203125,-0.111938476562,-0.211547851562
61720142450,-0.689086914062,0.684020996094,-0.112182617188,-0.211486816406
61720192949,-0.689208984375,0.683959960938,-0.112182617188,-0.211364746094
61720193631,-0.689270019531,0.683837890625,-0.112121582031,-0.21142578125
61720199779,-0.689086914062,0.68359375,-0.11279296875,-0.212463378906
61720213483,-0.689147949219,0.683044433594,-0.112915039062,-0.213989257812
61720235921,-0.689575195312,0.683410644531,-0.11181640625,-0.212097167969
61720257798,-0.690002441406,0.683776855469,-0.110656738281,-0.210205078125
61720272832,-0.690185546875,0.683898925781,-0.109985351562,-0.20947265625
61720295178,-0.68994140625,0.683654785156,-0.110534667969,-0.210693359375
61720317698,-0.689575195312,0.683288574219,-0.111633300781,-0.212585449219
61720332770,-0.689147949219,0.682983398438,-0.113403320312,-0.213989257812
61720355261,-0.690612792969,0.68408203125,-0.110229492188,-0.207275390625
61720377757,-0.692077636719,0.685180664062,-0.106140136719,-0.200805664062
61720392783,-0.692138671875,0.685119628906,-0.105773925781,-0.200805664062
61720415236,-0.692260742188,0.684753417969,-0.106506347656,-0.201477050781
61720437715,-0.692321777344,0.684753417969,-0.106201171875,-0.201354980469
61720452816,-0.692321777344,0.684753417969,-0.106201171875,-0.201416015625
61720475343,-0.692321777344,0.684753417969,-0.106201171875,-0.201477050781
61720497737,-0.692321777344,0.684753417969,-0.106201171875,-0.201477050781
61720515494,-0.692321777344,0.684692382812,-0.106201171875,-0.201538085938
61720538082,-0.692321777344,0.684692382812,-0.106201171875,-0.201599121094
61720557920,-0.692321777344,0.684448242188,-0.106079101562,-0.202270507812
61720572788,-0.692443847656,0.684204101562,-0.105346679688,-0.203247070312
61720595263,-0.6923828125,0.684020996094,-0.104431152344,-0.204467773438
61720617697,-0.692199707031,0.684020996094,-0.103820800781,-0.20556640625
61720632608,-0.692077636719,0.683898925781,-0.103820800781,-0.206298828125
61720655147,-0.692199707031,0.68359375,-0.104187011719,-0.206787109375
61720677598,-0.692504882812,0.68310546875,-0.104064941406,-0.207275390625
61720692711,-0.692810058594,0.682739257812,-0.103820800781,-0.207824707031
61720715237,-0.692993164062,0.682373046875,-0.103271484375,-0.208557128906
61720737773,-0.693359375,0.681945800781,-0.102416992188,-0.209228515625
61720752739,-0.693908691406,0.681518554688,-0.101135253906,-0.209228515625
61720775236,-0.694763183594,0.68115234375,-0.0991821289062,-0.208740234375
61720797739,-0.695739746094,0.680725097656,-0.0962524414062,-0.208068847656
61720812786,-0.697143554688,0.680297851562,-0.0928955078125,-0.206420898438
61720835330,-0.698913574219,0.679809570312,-0.0896606445312,-0.203369140625
61720857785,-0.701354980469,0.679443359375,-0.086181640625,-0.197570800781
61720872769,-0.704284667969,0.679626464844,-0.0830688476562,-0.187744140625
61720895265,-0.707580566406,0.679809570312,-0.0778198242188,-0.176513671875
61720917734,-0.712097167969,0.679138183594,-0.0698852539062,-0.163818359375
61720932765,-0.7177734375,0.677490234375,-0.05908203125,-0.149353027344
61720955379,-0.723693847656,0.675476074219,-0.0464477539062,-0.133666992188
61720977738,-0.729675292969,0.673095703125,-0.0302124023438,-0.11669921875
61720992804,-0.73583984375,0.670227050781,-0.0134887695312,-0.0960693359375
61721015215,-0.742431640625,0.666198730469,0.0028076171875,-0.0707397460938
61721037711,-0.748657226562,0.661254882812,0.019775390625,-0.0430908203125
61721052840,-0.75390625,0.655700683594,0.0377197265625,-0.0148315429688
61721075350,-0.75830078125,0.649353027344,0.05615234375,0.013671875
61721097751,-0.761596679688,0.642150878906,0.0755004882812,0.0430908203125
61721112774,-0.763732910156,0.634216308594,0.0944213867188,0.0741577148438
61721135255,-0.764709472656,0.625732421875,0.112548828125,0.104858398438
61721157577,-0.764343261719,0.617126464844,0.130004882812,0.134216308594
61721175489,-0.762817382812,0.608581542969,0.146240234375,0.162231445312
61721196590,-0.760192871094,0.600219726562,0.161682128906,0.188720703125
61721217817,-0.7568359375,0.592163085938,0.176147460938,0.213256835938
61721235562,-0.752990722656,0.584045410156,0.189270019531,0.236755371094
61721256588,-0.748962402344,0.575622558594,0.201904296875,0.2587890625
61721277732,-0.744934082031,0.56689453125,0.2138671875,0.279113769531
61721295530,-0.740783691406,0.559143066406,0.223815917969,0.297546386719
61721318063,-0.73681640625,0.551940917969,0.232604980469,0.313598632812
61721337590,-0.733520507812,0.545471191406,0.239868164062,0.326843261719
61721355545,-0.730773925781,0.538696289062,0.246643066406,0.339050292969
61721376551,-0.728881835938,0.531982421875,0.252319335938,0.349426269531
61721397710,-0.727844238281,0.525756835938,0.256958007812,0.357421875
61721415499,-0.727600097656,0.51953125,0.260559082031,0.364318847656
61721436591,-0.727294921875,0.513854980469,0.263000488281,0.371215820312
61721457771,-0.726928710938,0.509033203125,0.263916015625,0.377807617188
61721481568,-0.727111816406,0.5048828125,0.264099121094,0.382873535156
61721498029,-0.727783203125,0.501403808594,0.264038085938,0.38623046875
61721517722,-0.728576660156,0.498107910156,0.263793945312,0.38916015625
61721534704,-0.729370117188,0.495361328125,0.263122558594,0.391662597656
61721557265,-0.730224609375,0.493041992188,0.262390136719,0.393493652344
61721578412,-0.731201171875,0.49072265625,0.261779785156,0.394958496094
61721594733,-0.731506347656,0.488891601562,0.260925292969,0.397216796875
61721624735,-0.730407714844,0.48779296875,0.260559082031,0.400817871094
61721638415,-0.727416992188,0.488098144531,0.261779785156,0.405090332031
61721654725,-0.722229003906,0.490600585938,0.265502929688,0.408874511719
61721677177,-0.714965820312,0.495300292969,0.271667480469,0.411865234375
61721698304,-0.705749511719,0.502014160156,0.279602050781,0.414306640625
61721714728,-0.695007324219,0.510131835938,0.288635253906,0.416320800781
61721737196,-0.683410644531,0.519470214844,0.2978515625,0.417602539062
61721758304,-0.670593261719,0.529602050781,0.307800292969,0.418395996094
61721774780,-0.657470703125,0.540466308594,0.317138671875,0.418395996094
61721797247,-0.64453125,0.551574707031,0.325500488281,0.417541503906
61721818336,-0.632263183594,0.563110351562,0.332214355469,0.415649414062
61721834713,-0.620849609375,0.574340820312,0.337951660156,0.412902832031
61721857216,-0.610595703125,0.585144042969,0.3427734375,0.408996582031
61721878423,-0.601928710938,0.595336914062,0.346374511719,0.404052734375
61721894740,-0.595397949219,0.6044921875,0.348388671875,0.398376464844
61721917002,-0.591430664062,0.612365722656,0.348754882812,0.391906738281
61721938368,-0.589904785156,0.618774414062,0.348022460938,0.384643554688
61721954761,-0.591003417969,0.623474121094,0.346557617188,0.376647949219
61721977245,-0.595031738281,0.625915527344,0.344543457031,0.367980957031
61721998359,-0.601928710938,0.625915527344,0.341735839844,0.359313964844
61722014744,-0.61083984375,0.623718261719,0.338073730469,0.351379394531
61722037234,-0.621337890625,0.619812011719,0.333557128906,0.344177246094
61722058445,-0.633361816406,0.614440917969,0.328491210938,0.336669921875
61722074711,-0.646728515625,0.607421875,0.323120117188,0.3291015625
61722097263,-0.661071777344,0.598754882812,0.317565917969,0.321899414062
61722118396,-0.676025390625,0.588562011719,0.312072753906,0.31494140625
61722134737,-0.690856933594,0.577758789062,0.306457519531,0.308227539062
61722157241,-0.704772949219,0.567016601562,0.300720214844,0.30224609375
61722178343,-0.717346191406,0.55712890625,0.294189453125,0.297424316406
61722194041,-0.727966308594,0.548706054688,0.287902832031,0.293395996094
61722217196,-0.736389160156,0.542053222656,0.2822265625,0.290283203125
61722238344,-0.742248535156,0.537902832031,0.27685546875,0.288330078125
61722254062,-0.745666503906,0.536193847656,0.2724609375,0.286743164062
61722277216,-0.746398925781,0.53759765625,0.269165039062,0.285400390625
61722298231,-0.744567871094,0.542114257812,0.266418457031,0.284118652344
61722314069,-0.740783691406,0.548950195312,0.264404296875,0.282775878906
61722337242,-0.7353515625,0.557495117188,0.262512207031,0.281982421875
61722358321,-0.728088378906,0.567749023438,0.260864257812,0.281921386719
61722374059,-0.719360351562,0.579467773438,0.259460449219,0.281860351562
61722397217,-0.709350585938,0.592346191406,0.258117675781,0.281555175781
61722419800,-0.698547363281,0.605651855469,0.257263183594,0.281188964844
61722434061,-0.687072753906,0.619079589844,0.2568359375,0.280517578125
61722457233,-0.675415039062,0.63232421875,0.2568359375,0.279235839844
61722480166,-0.664001464844,0.644897460938,0.256896972656,0.277770996094
61722494107,-0.652954101562,0.656555175781,0.256958007812,0.276733398438
61722517216,-0.643005371094,0.666564941406,0.257141113281,0.275817871094
61722539711,-0.634643554688,0.674743652344,0.257568359375,0.27490234375
61722560832,-0.628234863281,0.6806640625,0.25830078125,0.274291992188
61722577240,-0.623901367188,0.684448242188,0.259399414062,0.273742675781
61722599719,-0.621398925781,0.686462402344,0.260559082031,0.273315429688
61722620884,-0.620361328125,0.68701171875,0.261657714844,0.273132324219
61722637196,-0.62060546875,0.686584472656,0.262512207031,0.273010253906
61722659745,-0.621704101562,0.685302734375,0.263305664062,0.272888183594
61722674109,-0.623352050781,0.68359375,0.263977050781,0.272827148438
61722697169,-0.625061035156,0.681823730469,0.264526367188,0.272705078125
61722719701,-0.626586914062,0.680358886719,0.26513671875,0.272338867188
61722734067,-0.627685546875,0.679443359375,0.265441894531,0.271850585938
61722757214,-0.628601074219,0.678894042969,0.265441894531,0.271118164062
61722779681,-0.62939453125,0.6787109375,0.265380859375,0.269714355469
61722794050,-0.630249023438,0.678833007812,0.26513671875,0.267639160156
61722817228,-0.631469726562,0.679016113281,0.264465332031,0.264831542969
61722839688,-0.633117675781,0.679443359375,0.263122558594,0.26123046875
61722860861,-0.635437011719,0.679992675781,0.260803222656,0.256469726562
61722877211,-0.638793945312,0.6806640625,0.257263183594,0.249816894531
61722899740,-0.643310546875,0.68115234375,0.252380371094,0.241882324219
61722920823,-0.648498535156,0.681396484375,0.24658203125,0.232971191406
61722937189,-0.654174804688,0.681762695312,0.239929199219,0.222961425781
61722959738,-0.660217285156,0.682250976562,0.232604980469,0.2109375
61722980835,-0.666687011719,0.682983398438,0.224182128906,0.196838378906
61722996586,-0.673767089844,0.683715820312,0.21435546875,0.1806640625
61723019715,-0.681213378906,0.684387207031,0.203063964844,0.162109375
61723040850,-0.6884765625,0.685302734375,0.190734863281,0.141357421875
61723057201,-0.694580078125,0.686767578125,0.177185058594,0.1201171875
61723079736,-0.69970703125,0.688720703125,0.162414550781,0.0985717773438
61723100882,-0.703918457031,0.690856933594,0.145935058594,0.0769653320312
61723117213,-0.707702636719,0.692626953125,0.128173828125,0.0547485351562
61723139713,-0.710754394531,0.694030761719,0.110229492188,0.0316162109375
61723160859,-0.712463378906,0.695556640625,0.0925903320312,0.0078125
61723176528,-0.712524414062,0.697387695312,0.0750732421875,-0.0164184570312
61723199764,-0.711120605469,0.699523925781,0.0574951171875,-0.0406494140625
61723220838,-0.709228515625,0.701110839844,0.0390625,-0.0625
61723236598,-0.707214355469,0.701843261719,0.0208740234375,-0.0827026367188
61723259743,-0.705017089844,0.701904296875,0.0035400390625,-0.1015625
61723280873,-0.702514648438,0.701599121094,-0.0135498046875,-0.118530273438
61723296531,-0.699890136719,0.700988769531,-0.0297241210938,-0.1337890625
61723320411,-0.697387695312,0.700012207031,-0.044921875,-0.147155761719
61723340718,-0.6953125,0.698486328125,-0.0582275390625,-0.158935546875
61723356565,-0.694091796875,0.696472167969,-0.069091796875,-0.168518066406
61723379683,-0.693359375,0.694152832031,-0.0774536132812,-0.177429199219
61723402203,-0.692077636719,0.692138671875,-0.0842895507812,-0.186584472656
61723416535,-0.690368652344,0.690490722656,-0.0903930664062,-0.196044921875
61723439713,-0.6884765625,0.688903808594,-0.0960083007812,-0.205383300781
61723462279,-0.687133789062,0.686706542969,-0.102172851562,-0.214233398438
61723483335,-0.68701171875,0.68359375,-0.108581542969,-0.221313476562
61723499689,-0.68896484375,0.681091308594,-0.113891601562,-0.220336914062
61723522211,-0.691040039062,0.682495117188,-0.115661621094,-0.208068847656
61723543458,-0.690856933594,0.685668945312,-0.11181640625,-0.200317382812
61723567187,-0.688720703125,0.688232421875,-0.1064453125,-0.201904296875
61723582194,-0.685729980469,0.690002441406,-0.100463867188,-0.208801269531
61723603367,-0.682800292969,0.691223144531,-0.0969848632812,-0.215881347656
61723619774,-0.680725097656,0.69189453125,-0.0978393554688,-0.219848632812
61723642217,-0.680053710938,0.692077636719,-0.102294921875,-0.219360351562
61723663338,-0.681213378906,0.691589355469,-0.107543945312,-0.214782714844
61723679696,-0.683288574219,0.690612792969,-0.111450195312,-0.209228515625
61723702217,-0.684875488281,0.689697265625,-0.113403320312,-0.205993652344
61723723230,-0.685302734375,0.689208984375,-0.113037109375,-0.206298828125
61723739644,-0.684875488281,0.689208984375,-0.111267089844,-0.208618164062
61723762213,-0.684143066406,0.689636230469,-0.109069824219,-0.210754394531
61723783339,-0.68359375,0.690185546875,-0.107055664062,-0.211791992188
61723799714,-0.683410644531,0.690734863281,-0.105529785156,-0.211547851562
61723822231,-0.683227539062,0.691162109375,-0.104675292969,-0.211120605469
61723843414,-0.682983398438,0.691467285156,-0.104248046875,-0.211120605469
61723859718,-0.6826171875,0.691833496094,-0.10400390625,-0.211181640625
61723882173,-0.682434082031,0.692138671875,-0.103698730469,-0.2109375
61723903375,-0.682312011719,0.692443847656,-0.102966308594,-0.210571289062
61723919659,-0.68212890625,0.692810058594,-0.102111816406,-0.210510253906
61723942182,-0.681762695312,0.693176269531,-0.101196289062,-0.210876464844
61723963335,-0.681396484375,0.693542480469,-0.1005859375,-0.211181640625
61723979662,-0.68115234375,0.693786621094,-0.100158691406,-0.211303710938
61724002208,-0.681091308594,0.693969726562,-0.099853515625,-0.211120605469
61724023364,-0.681091308594,0.693969726562,-0.0997924804688,-0.211059570312
61724039718,-0.681091308594,0.693969726562,-0.0997314453125,-0.210998535156
61724062218,-0.68115234375,0.694030761719,-0.0997314453125,-0.2109375
61724083512,-0.68115234375,0.694030761719,-0.0996704101562,-0.2109375
61724099708,-0.68115234375,0.694030761719,-0.0996704101562,-0.210876464844
61724122167,-0.68115234375,0.694030761719,-0.099609375,-0.210876464844
61724144686,-0.681274414062,0.693908691406,-0.099365234375,-0.2109375
61724159653,-0.681274414062,0.693908691406,-0.0993041992188,-0.2109375
61724182165,-0.681274414062,0.693969726562,-0.0993041992188,-0.210876464844
61724203386,-0.681396484375,0.693908691406,-0.0994262695312,-0.210571289062
61724219718,-0.681457519531,0.693908691406,-0.0995483398438,-0.210205078125
61724242198,-0.681579589844,0.693908691406,-0.0994262695312,-0.2099609375
61724263284,-0.681579589844,0.693908691406,-0.0991821289062,-0.210021972656
61724279659,-0.681518554688,0.693908691406,-0.098876953125,-0.210266113281
61724302190,-0.681518554688,0.693908691406,-0.0987548828125,-0.210327148438
61724324668,-0.681518554688,0.693908691406,-0.0987548828125,-0.210327148438
61724339710,-0.681579589844,0.693908691406,-0.098876953125,-0.210083007812
61724362191,-0.681762695312,0.69384765625,-0.0989379882812,-0.209777832031
61724384659,-0.681884765625,0.693786621094,-0.0989379882812,-0.209533691406
61724399735,-0.681884765625,0.693786621094,-0.098876953125,-0.209533691406
61724422201,-0.681884765625,0.69384765625,-0.0988159179688,-0.209533691406
61724444719,-0.681884765625,0.69384765625,-0.0987548828125,-0.20947265625
61724459039,-0.681945800781,0.69384765625,-0.0987548828125,-0.209411621094
61724482196,-0.681945800781,0.69384765625,-0.0986938476562,-0.209411621094
61724504689,-0.682006835938,0.693786621094,-0.0988159179688,-0.209228515625
61724519087,-0.68212890625,0.693664550781,-0.098876953125,-0.209045410156
61724542227,-0.682250976562,0.693603515625,-0.0989379882812,-0.208984375
61724564664,-0.682250976562,0.693603515625,-0.098876953125,-0.208923339844
61724579043,-0.682250976562,0.693603515625,-0.098876953125,-0.208923339844
61724602231,-0.682312011719,0.693603515625,-0.0988159179688,-0.208923339844
61724624661,-0.682312011719,0.693603515625,-0.0988159179688,-0.208923339844
61724639010,-0.682312011719,0.693603515625,-0.0987548828125,-0.208862304688
61724662158,-0.682312011719,0.693603515625,-0.0986938476562,-0.208862304688
61724684659,-0.682312011719,0.693603515625,-0.0986938476562,-0.208801269531
61724698996,-0.682312011719,0.693603515625,-0.0986328125,-0.208801269531
61724722165,-0.682373046875,0.693603515625,-0.0985717773438,-0.208740234375
61724744716,-0.682373046875,0.693603515625,-0.0985717773438,-0.208740234375
61724765935,-0.682373046875,0.693603515625,-0.0985107421875,-0.208740234375
61724782192,-0.682373046875,0.693603515625,-0.0984497070312,-0.208740234375
61724787707,-0.682373046875,0.693603515625,-0.098388671875,-0.208740234375
