61316925827,0,-2,-1,0,-1,0,-1,-2
61316925827,-2,0,-3,-1,1,1,1,-3
61316926634,-2,-1,-4,0,-1,0,-2,-2
61316926634,-1,0,-1,-1,-1,0,-1,-1
61316927421,-2,-2,-2,-2,-2,-2,-2,-1
61316927421,-1,-2,0,-2,-4,0,-2,0
61316931037,-1,-2,-1,-1,-3,-2,-1,-4
61316931037,-1,-3,-2,1,-1,2,1,-2
61316937555,0,-1,-1,-1,-2,-2,-1,-2
61316937555,0,-1,-1,0,0,-2,-2,-1
61316946155,-1,-1,-3,-2,0,-1,-2,1
61316946155,-1,-2,-1,-1,-3,-2,-2,0
61316953800,-1,0,-3,-2,-1,0,-1,-2
61316953800,-1,-1,0,-2,-2,-1,0,-1
61316968216,-2,0,1,-2,0,-1,0,-1
61316968216,-1,1,-2,0,0,-2,-2,-1
61316976111,0,0,-1,-1,-1,0,-1,-1
61316976111,-2,-2,-2,-1,0,-1,-1,-1
61316998885,0,-1,-1,-1,-2,0,1,0
61316998885,-1,-1,-2,-1,-1,-1,0,-3
61317000355,0,0,0,0,0,-2,0,0
61317000355,-2,0,-3,1,-1,0,-2,-2
61317012236,-2,-2,-3,0,0,-2,-1,-1
61317012236,1,-1,-1,-3,0,-1,-2,-1
61317061478,-1,-2,1,-1,0,-1,1,0
61317061478,-1,-1,0,-1,-2,0,0,-2
61317066735,-2,-1,0,-1,-2,-1,-1,0
61317066735,0,-2,-2,-1,-2,0,1,-1
61317067383,-1,0,-2,-2,0,-2,-1,-3
61317067383,-1,0,1,-1,1,-1,-2,0
61317068207,-3,-1,-1,0,-1,-1,-2,-3
61317068207,-1,1,0,-2,0,-2,-1,-1
61317069023,-2,0,-1,-1,-2,-1,1,0
61317069023,-1,-1,-1,-1,-2,-2,-2,-2
61317073632,1,-1,-1,-1,-2,-2,-2,-1
61317073632,0,-1,0,-1,-4,-4,-4,-1
61317087912,-1,-1,-1,0,-2,-3,-2,-3
61317087912,-2,-3,-4,-2,-1,-4,-2,-2
61317094759,-3,-2,-3,-1,-1,-2,-2,-1
61317094759,-3,-3,-3,-2,-3,-2,-1,-3
61317102238,-2,-1,-3,0,-1,-1,-2,-1
61317102238,-1,-2,0,-1,-3,-4,1,-2
61317125487,-1,-2,-1,0,0,-2,-2,-1
61317125487,-1,-2,-1,-2,0,-3,-4,-1
61317126095,-2,-2,-1,0,-1,-3,-1,-1
61317126095,-1,1,-1,-2,-2,-1,-2,-2
61317139766,0,0,0,-2,-1,1,0,-3
61317139766,-1,-2,-2,-2,-2,1,-2,-3
61317147964,1,-2,-1,-2,-2,1,-1,-3
61317147964,-1,-1,-3,0,0,-1,-3,-1
61317162910,0,-1,-1,-2,-4,-1,-1,-1
61317162910,-1,-1,-1,-1,-1,0,-1,-2
61317163583,-1,-1,-2,-1,-3,-1,-2,-1
61317163583,0,-1,-2,0,-2,0,-1,-3
61317185274,0,0,-2,-2,-2,0,-1,-2
61317185274,0,-2,-1,1,-1,1,0,-2
61317186047,-3,-1,-1,0,-2,-1,-2,-1
61317186047,-2,-1,-1,0,-3,0,-1,-2
61317199583,-3,-1,-1,-1,-2,-1,0,-4
61317199583,-2,-1,0,-1,-1,1,0,-2
61317207798,0,0,-1,-2,-1,1,0,0
61317207798,-3,-1,0,0,-2,0,0,0
61317230952,-1,-3,-2,-1,-1,1,0,-1
61317230952,-1,-1,-3,0,-2,0,2,0
61317231769,1,1,-2,-1,-1,2,1,-1
61317231769,0,-2,0,0,0,1,0,-1
61317245429,0,2,2,-1,0,3,-1,-1
61317245429,0,0,2,0,0,0,-1,-1
61317246067,0,0,1,-1,0,-1,-1,1
61317246067,0,0,0,-2,0,0,0,-1
61317259789,0,0,-2,-1,-1,-2,-1,-1
61317259789,-3,-2,0,0,0,-2,-2,0
61317267936,-2,-1,-1,0,0,0,-1,-2
61317267936,-1,-2,-3,-2,0,-1,0,-1
61317283016,-2,-1,-1,0,-2,-2,1,0
61317283016,-1,1,-2,0,-1,-1,0,-1
61317283611,0,-2,-1,-1,-1,-2,0,-1
61317283611,-1,1,-1,-2,-2,1,-2,-1
61317305525,0,0,-1,0,-1,0,0,-1
61317305525,-1,-1,0,-1,-1,-1,-2,-2
61317306138,-1,-2,1,0,-1,-2,-3,-1
61317306138,-2,0,0,-3,-2,-2,1,-2
61317328498,-1,-1,-1,1,0,-1,-2,-2
61317328498,-3,-1,-1,-1,-1,-1,-1,-1
61317329380,0,1,-1,-1,0,4,-1,0
61317329380,0,0,-1,0,0,-2,-1,0
61317342762,-1,-1,-1,0,-1,-4,-3,0
61317342762,-1,0,-2,-1,-1,-1,1,-3
61317343535,-2,-1,0,-1,0,-2,-1,2
61317343535,-1,-1,0,0,0,1,1,0
61317365387,-1,-1,-1,-1,0,-1,-3,-3
61317365387,1,-1,-1,0,-1,-3,-14,3
61317366085,0,1,-1,-1,-2,-8,3,0
61317366085,1,0,-1,0,0,11,-2,-2
61317389004,1,-1,0,-2,-2,-5,3,0
61317389004,-1,0,-2,-1,0,5,2,-2
61317389690,-5,-3,-3,-2,-4,-6,-5,-3
61317389690,-2,-2,0,-1,-2,-4,0,-1
61317402901,-2,-3,-1,-2,0,1,-2,-1
61317402901,-1,-1,-3,-2,-1,-1,0,-2
61317403555,1,1,0,-1,0,5,13,-1
61317403555,0,0,-1,-1,0,-4,-4,-2
61317425394,-1,-3,0,-1,-2,-2,-9,-2
61317425394,-1,-2,0,-1,-2,3,14,3
61317426062,1,-1,-2,0,0,0,-8,-1
61317426062,-1,-2,-3,-1,0,-12,-9,1
61317448601,9,5,1,-1,1,17,3,4
61317448601,2,0,-2,-4,-4,-2,37,1
61317449329,-4,-2,-3,-1,-1,-5,-31,-8
61317449329,-6,-4,-2,-1,-3,-14,12,-7
61317462923,-4,-1,-3,2,1,6,5,4
61317462923,3,-4,-2,0,-2,9,15,3
61317463605,-8,2,-1,-1,1,5,22,-8
61317463605,0,-1,0,-1,-1,-6,-21,-1
61317485477,-3,-2,0,-1,-1,-6,1,-1
61317485477,-1,-2,-1,-1,0,2,-4,-2
61317486119,-1,-5,0,0,2,14,-35,3
61317486119,1,0,-1,-2,-3,2,45,2
61317508595,2,-1,0,0,0,-2,0,0
61317508595,-9,-1,-1,0,2,-1,-22,-4
61317509352,10,1,0,0,-1,-3,3,6
61317509352,-7,-3,-3,-3,1,4,-11,-9
61317522875,0,1,0,-3,-6,-16,5,-4
61317522875,-2,-1,-2,-1,-1,3,-12,3
61317523562,-5,-3,0,-2,-1,1,5,10
61317523562,9,2,1,0,0,1,-11,-5
61317545434,-7,-4,-3,-3,-2,-2,16,-3
61317545434,-3,2,3,2,1,-10,-43,-2
61317546064,-1,-2,-1,-2,-3,-10,6,0
61317546064,-5,-2,-3,-1,-1,8,3,-2
61317568598,-1,-1,-1,-1,1,-3,-17,2
61317568598,-4,-1,0,-2,-1,-1,19,-2
61317569339,-1,-5,-1,-2,0,4,11,-2
61317569339,-1,1,1,1,0,-4,-17,1
61317582860,0,-4,-2,-1,-2,-8,6,5
61317582860,-1,2,1,0,-2,8,-16,-3
61317583638,10,2,-2,0,-1,-2,7,-1
61317583638,4,0,-2,0,-1,1,-28,2
61317605487,-2,1,-1,-2,0,0,-9,-7
61317605487,-6,-6,-3,-2,-1,-9,27,-1
61317606086,-5,0,0,0,-1,13,11,0
61317606086,0,-1,1,0,-1,-3,-14,-2
61317628636,-2,-4,-3,-2,-2,-3,-11,-2
61317628636,0,1,-2,-1,-1,-7,3,-1
61317629331,-7,-4,-1,0,1,-6,3,-6
61317629331,-1,-2,0,-1,0,1,18,-9
61317642771,-1,5,0,0,-1,-5,8,11
61317642771,8,0,0,-2,-1,10,-13,-2
61317643625,2,4,-1,-2,-2,-5,17,-4
61317643625,-10,-1,-1,-3,0,7,7,-2
61317665254,-8,-4,-1,-2,-2,-7,-34,-9
61317665254,-3,-3,-2,-2,-1,-1,9,-4
61317666073,-6,-3,-2,-2,-2,-3,2,7
61317666073,12,4,2,-1,-1,4,0,15
61317688667,-2,-1,1,0,1,2,1,-14
61317688667,-7,-2,-3,-1,-1,-9,-11,-5
61317689332,2,0,-1,0,-1,1,17,-5
61317689332,0,-3,-2,-1,-1,-8,-34,11
61317702992,-1,-1,-1,-2,-1,7,44,3
61317702992,1,1,-1,0,1,-1,-46,3
61317703608,-5,-4,-4,-3,-2,-3,-24,-12
61317703608,5,4,1,0,-3,-5,-1,2
61317725472,4,2,2,1,2,5,22,2
61317725472,1,-5,0,-1,1,1,-4,-2
61317726112,12,7,0,-2,-3,-3,-7,10
61317726112,-16,-3,-2,0,0,0,25,-9
61317748539,2,-8,-4,-3,-6,-3,-16,3
61317748539,-7,0,-1,0,4,-3,30,4
61317749331,9,2,0,-1,-9,-5,-14,-5
61317749331,6,1,0,1,1,1,-9,-1
61317762902,-6,1,-1,-1,-1,-3,11,1
61317762902,3,-4,-2,-2,1,5,23,6
61317763593,0,3,2,2,2,-12,-47,3
61317763593,-3,-3,-1,-2,0,1,27,-1
61317785370,2,1,-1,1,2,7,4,-4
61317785370,0,0,-1,-2,-3,-10,-16,-4
61317786081,-5,-6,-2,-1,0,-2,-10,-3
61317786081,-14,-4,-2,-2,-1,0,8,-11
61317808471,-1,1,-1,0,2,5,-14,2
61317808471,4,4,-1,-1,-2,5,25,3
61317809342,3,-3,-1,0,-2,-3,13,3
61317809342,1,-1,0,0,0,-14,-27,0
61317822917,4,-6,-1,-2,0,10,8,2
61317822917,-7,4,2,-2,-4,-2,10,-7
61317823610,-5,-3,0,-2,-1,-1,-16,-9
61317823610,-3,-6,-3,1,-2,-3,13,11
61317845332,-9,-6,-4,-3,-5,-7,-24,-3
61317845332,6,0,1,2,-2,0,33,2
61317846090,0,1,-1,-2,0,-3,-14,-2
61317846090,2,-1,-1,-2,-2,0,4,-13
61317868623,-4,0,1,0,1,-1,-3,19
61317868623,7,-2,-3,-2,-2,-5,-7,-4
61317869340,-9,-1,-1,1,1,3,21,0
61317869340,-6,-6,-2,-4,-2,-4,-26,-19
61317882234,5,4,-3,-2,-4,-3,0,1
61317882234,-2,-1,0,1,0,-2,-11,6
61317890460,2,-1,1,0,3,4,14,5
61317890460,-4,-3,-4,-5,-4,-4,-5,1
61317905357,-7,-5,-3,-1,0,-3,11,-11
61317905357,7,6,2,0,2,1,-15,-2
61317906032,-5,-5,-2,0,2,-5,-23,-1
61317906032,11,5,2,-1,-1,10,12,11
61317928711,-2,-2,-1,0,0,-9,1,-4
61317928711,-7,-6,-3,-1,-3,-8,-19,-7
61317929337,-8,-3,-3,-2,1,5,16,-2
61317929337,-3,-2,0,1,3,-2,3,1
61317942261,6,3,1,-1,-7,5,14,5
61317942261,2,1,0,0,5,2,-5,2
61317950346,-1,1,-2,-1,0,-2,5,-2
61317950346,-5,-3,-2,-3,-7,-4,2,-2
61317965324,3,1,1,1,6,7,6,-4
61317965324,-8,-5,-1,0,-7,-7,-8,-3
61317966070,-7,-2,-3,-2,1,0,26,-6
61317966070,6,0,-1,0,2,2,-26,4
61317988579,-2,-2,-2,-1,-1,-3,-23,-1
61317988579,0,1,-1,-3,-2,-10,-33,-6
61317989386,-3,-3,-1,-1,-2,3,3,-6
61317989386,2,1,0,3,0,-6,-37,7
61318002210,-4,-2,-1,-3,-1,1,17,-2
61318002210,-4,-3,-2,0,2,4,-15,-2
61318010315,3,-1,-2,-3,-7,-4,4,5
61318010315,3,2,1,0,0,9,21,3
61318033673,-2,-1,1,0,2,-8,-36,-7
61318033673,-1,0,-1,-2,-1,3,18,-2
61318035101,1,-1,-2,-3,-4,-11,-4,1
61318035101,-2,-4,-3,0,0,12,20,0
61318047264,1,0,0,-1,-1,1,16,2
61318047264,0,-1,0,-2,-2,-9,1,-1
61318056110,-2,-2,-1,-1,-3,-4,-60,0
61318056110,-1,-3,-1,-3,-5,-6,17,-5
61318070976,-1,-3,-2,2,4,-1,-8,3
61318070976,3,0,1,0,8,-2,11,-6
61318072549,-5,-3,-2,-3,-23,-1,17,0
61318072549,3,-2,-3,-1,1,1,1,4
61318093474,0,3,0,0,4,-3,-18,2
61318093474,2,-3,-1,-3,-7,2,-1,2
61318095078,4,0,-2,0,6,0,-54,-4
61318095078,-9,-2,-3,-2,-7,-6,12,-3
61318107145,5,2,-1,-2,1,8,42,9
61318107145,-9,-6,-4,-2,2,-15,-59,-10
61318116125,-3,-1,-1,-3,-5,2,-3,1
61318116125,-5,-2,0,3,2,10,25,0
61318131084,1,0,-3,-1,2,-7,-27,-10
61318131084,0,0,0,-1,-6,-5,40,5
61318132595,-7,-4,-2,-4,-8,-9,8,-6
61318132595,1,3,0,0,4,0,-4,4
61318153707,2,0,1,3,0,2,-13,-9
61318153707,-3,-4,-3,0,1,2,8,2
61318155000,-4,0,-3,-3,-9,-2,52,-5
61318155000,-2,1,-1,-2,3,2,-3,-1
61318167260,-6,-4,-3,-5,-7,-11,-34,-6
61318167260,2,0,0,-2,-6,1,10,-1
61318176135,4,1,3,2,11,-4,-17,3
61318176135,-9,-6,-1,-1,0,7,41,-2
61318191113,5,5,2,0,-1,2,16,2
61318191113,-8,-6,-3,-2,0,3,-8,0
61318192630,3,-1,-2,-1,4,-10,10,6
61318192630,7,2,1,0,0,13,14,1
61318213703,-1,0,0,0,0,-14,-20,-14
61318213703,2,3,1,2,-4,8,51,14
61318215052,-8,-3,-2,-3,8,9,-24,-6
61318215052,-2,-2,-3,-4,-26,-12,-3,0
61318227212,-10,-8,-4,-4,1,-2,10,-6
61318227212,4,3,2,1,4,5,39,2
61318236086,0,2,-2,4,13,-12,-39,-5
61318236086,-1,-3,-2,-6,-2,7,10,-1
61318251147,-11,-5,-5,-6,-20,-2,19,-3
61318251147,-5,-2,0,-3,-2,-12,-30,-13
61318252645,8,4,2,2,0,-6,-8,8
61318252645,4,3,1,4,17,-1,3,2
61318273622,-1,-1,-3,-3,-16,-3,-25,0
61318273622,-4,-4,-3,2,7,-2,-35,1
61318275073,-5,-5,-3,-1,-10,8,71,4
61318275073,1,4,3,-1,2,-6,1,-4
61318287231,2,-3,-2,-2,5,-3,-33,2
61318287231,-7,-2,-3,-1,-3,-6,-21,-10
61318296104,-1,-2,-2,-4,-1,6,39,3
61318296104,-8,-1,-1,3,-2,-4,-46,-17
61318311115,0,-2,0,1,1,17,-9,10
61318311115,2,3,1,-2,0,-13,5,1
61318312579,4,2,1,1,-1,7,20,5
61318312579,-7,-5,-4,-2,1,-18,-29,-12
61318333542,0,1,-1,-2,-6,-15,4,3
61318333542,1,-2,0,1,2,20,-20,-1
61318335132,-9,-4,-1,0,6,25,40,-6
61318335132,10,2,-1,2,7,-15,-82,6
61318347113,3,2,1,1,6,0,6,3
61318347113,2,-5,-2,-6,-26,-2,5,-5
61318356108,0,1,2,-3,1,-10,-1,2
61318356108,-1,-1,0,4,9,16,16,1
61318371034,-1,-1,-1,0,5,1,17,-3
61318371034,1,2,1,0,2,-4,-22,-3
61318372558,-1,0,2,1,0,5,-36,-6
61318372558,-5,-4,-4,-4,-9,-2,0,-5
61318393457,-5,-2,2,2,-1,1,17,1
61318393457,1,0,-2,-1,1,9,21,-3
61318395057,-6,-4,-2,-2,2,-7,12,-1
61318395057,3,3,2,-1,-15,-6,14,5
61318407076,-6,-4,-2,1,1,-1,-25,-10
61318407076,-8,-2,-3,-3,0,-8,-33,-6
61318416106,5,4,1,0,2,2,-37,-3
61318416106,-1,-3,-3,-4,-6,10,20,5
61318431087,1,-1,-2,0,2,4,-5,3
61318431087,-5,-2,-1,0,1,-2,1,-1
61318432593,-3,-1,0,1,-4,-19,-19,-5
61318432593,-4,-4,-2,-2,3,8,-12,3
61318453528,5,4,2,-4,-12,11,27,2
61318453528,-1,0,0,1,11,-20,-32,0
61318455012,4,-3,-4,-4,-14,2,18,3
61318455012,5,3,2,2,8,-2,-19,0
61318467207,-3,-3,-2,-2,-4,-9,12,2
61318467207,0,0,0,-5,-5,10,30,1
61318476129,-2,-1,-1,2,6,-5,-36,-6
61318476129,1,2,0,0,1,-1,-2,4
61318491561,-4,-2,0,-1,-5,-5,20,-12
61318491561,1,-2,-4,0,-4,-2,14,7
61318493035,-2,-1,-3,-5,-1,8,-6,-3
61318493035,-9,-5,-2,0,3,-4,8,1
61318513541,8,3,1,0,6,-10,-38,1
61318513541,2,0,1,0,-4,4,-12,0
61318515045,-1,-1,-1,1,0,10,62,2
61318515045,-3,-1,-1,-4,-4,-15,-38,-3
61318527237,2,1,-1,-1,-2,-9,24,8
61318527237,2,0,-2,0,1,4,14,2
61318536083,-5,-4,-2,0,0,-12,-52,-9
61318536083,2,-2,0,0,-2,0,8,1
61318551214,4,0,-1,-4,-7,-9,-30,3
61318551214,3,3,1,-1,2,-4,18,2
61318552627,-6,-3,-4,0,3,1,5,-2
61318552627,0,0,-2,-1,-13,10,40,2
61318573587,-5,-4,-3,0,8,-10,-24,-6
61318573587,1,0,1,1,4,9,-6,1
61318575078,6,1,1,0,-5,1,17,10
61318575078,-2,-2,-2,-1,-1,-11,1,-3
61318587258,-2,0,1,-1,-2,16,8,-1
61318587258,-4,-1,-2,-2,-3,-12,-25,-8
61318596111,4,0,-2,-2,2,-8,-6,7
61318596111,-4,1,1,0,-11,11,-5,-9
61318611084,-3,-5,-2,1,5,18,18,3
61318611084,-3,-2,0,0,0,1,6,-4
61318612576,0,1,0,4,4,-9,-17,-1
61318612576,3,0,-2,-6,0,-17,-4,5
61318633531,-2,1,-4,-26,-5,11,29,-2
61318633531,-9,-8,-2,19,-5,5,-44,-13
61318635087,2,-2,-3,-1,-1,-4,6,6
61318635087,2,-1,-2,0,-2,-2,9,-6
61318647219,-4,-2,-2,0,0,-4,-24,-2
61318647219,5,1,-2,-7,2,0,59,11
61318656109,-2,1,1,-3,-12,-11,-46,-9
61318656109,-2,-2,-1,2,7,7,15,-2
61318670971,-8,-3,0,4,-1,-12,-7,-7
61318670971,-2,-2,-2,-6,-1,7,10,3
61318672617,8,2,1,1,-9,1,1,4
61318672617,-4,-2,-3,-4,-3,2,7,-2
61318693539,-4,-2,-3,4,3,-6,4,-1
61318693539,-7,-4,-2,-1,1,19,10,-4
61318695113,-1,1,0,-6,-3,-1,16,-2
61318695113,4,2,1,-1,-3,-1,2,-2
61318707215,-4,-5,-2,2,-1,0,4,2
61318707215,-5,1,2,-1,5,-4,8,-3
61318716130,-3,-3,1,2,-2,2,2,-5
61318716130,5,1,-2,2,7,-2,-4,0
61318731123,-2,0,1,0,-8,-7,-9,-2
61318731123,2,0,-2,0,-5,-5,-50,0
61318732601,-5,-6,-2,-8,1,14,15,1
61318732601,2,-1,-2,2,9,-17,5,2
61318753552,1,1,-2,-20,-8,4,-11,-2
61318753552,3,1,3,25,5,-7,12,-1
61318755000,1,1,-1,-1,-2,-5,1,-2
61318755000,-7,-2,-2,-5,-8,8,-3,-2
61318775994,0,-2,-2,2,0,4,-10,-1
61318775994,-9,-4,-3,-10,1,-10,-24,0
61318777601,3,0,-1,1,14,9,44,2
61318777601,-1,-3,0,1,-10,-22,-22,0
61318791090,3,3,2,4,2,24,10,-5
61318791090,-2,-2,-3,-12,-5,-12,20,-1
61318792571,-11,-3,-3,2,1,-9,-41,-10
61318792571,10,2,0,-4,6,3,20,6
61318813562,-3,-3,-2,3,2,7,-15,-3
61318813562,0,1,-1,-7,-12,-12,-15,3
61318814998,3,0,-1,-5,-4,-1,8,1
61318814998,-3,-2,-2,0,-3,5,3,-6
61318836127,-5,-4,-3,2,0,-17,-8,-1
61318836127,1,-1,-1,-1,3,10,-2,-3
61318837567,1,-3,-1,-1,-2,4,44,4
61318837567,2,0,1,2,0,6,-1,14
61318850964,0,-2,2,4,2,-18,-21,-2
61318850964,4,1,-1,-4,-9,-2,9,1
61318852915,-6,-3,-3,-3,-8,-20,-1,-4
61318852915,0,-1,-2,-2,6,20,-12,-1
61318873475,6,3,1,3,2,-4,4,0
61318873475,-6,-5,-3,-9,3,6,4,0
61318875083,4,2,1,0,-15,2,-17,-1
61318875083,-7,-2,-2,-3,-2,-13,-28,-8
61318896035,3,-2,0,3,4,-10,3,5
61318896035,-4,-4,-4,-24,-1,8,-32,-7
61318897596,4,0,3,14,7,10,-1,1
61318897596,-9,-3,-2,-3,-9,-14,-4,-1
61318910933,1,0,-2,4,5,15,29,-3
61318910933,3,1,0,-3,-8,-6,6,5
61318912587,-2,-2,-2,-4,4,5,-31,1
61318912587,-9,-3,-4,-2,-5,-9,-7,-4
61318933604,0,0,2,1,7,13,10,1
61318933604,8,4,3,8,4,0,7,-2
61318935099,-2,0,-3,-6,-15,-34,-36,-5
61318935099,1,-2,1,3,4,0,19,0
61318956109,-1,-1,-3,-4,-6,4,-18,-2
61318956109,0,-1,1,4,2,14,-2,2
61318957548,-1,0,2,1,10,-21,15,-3
61318957548,-2,-3,-3,-5,0,27,17,2
61318970389,0,-3,-3,-2,-9,-12,8,-4
61318970389,0,1,-1,0,-18,0,13,4
61318977297,-3,1,0,-2,7,18,5,-1
61318977297,-1,1,1,4,4,-18,25,-2
61318993687,-2,-3,-6,-5,0,-8,-14,1
61318993687,0,1,-1,5,3,-4,-2,-3
61318995121,0,-1,0,-1,-3,9,2,-5
61318995121,-7,-3,-3,-16,-7,1,-4,-7
61319016092,4,2,1,31,5,0,34,6
61319016092,-2,-1,-2,-2,1,-9,35,-7
61319017571,-7,-4,-4,-5,-6,-14,-58,-2
61319017571,0,-2,-1,1,-2,-18,-50,-4
61319030459,2,0,-1,-9,-5,-4,4,2
61319030459,-3,-3,-2,-5,-1,5,14,3
61319037259,-4,-1,0,5,7,18,22,-3
61319037259,5,1,-1,-2,-5,-16,4,6
61319053558,-11,-5,-4,-7,-2,2,-8,-9
61319053558,4,1,1,4,0,-4,-5,6
61319054997,-2,-2,-2,-4,-4,-5,-3,-2
61319054997,-1,1,0,1,-3,5,15,-5
61319076082,-5,0,-2,-7,-4,2,19,-4
61319076082,1,1,1,4,3,10,8,5
61319077598,-4,0,-2,-2,-1,-9,-30,-4
61319077598,2,-2,-1,-1,-6,10,27,5
61319090404,0,3,2,1,4,-15,-54,-6
61319090404,-5,-4,-4,-5,-5,-12,-13,-9
61319097183,-2,0,0,-1,-3,3,29,2
61319097183,3,2,-3,1,-5,1,8,5
61319113672,1,-4,-3,-8,-2,5,-23,-1
61319113672,-7,-3,-1,1,14,-14,-31,-6
61319115000,-2,-5,-3,-3,-12,-1,23,3
61319115000,-4,-1,-1,1,4,1,-17,-6
61319136090,9,2,2,3,-2,-7,-4,6
61319136090,-1,-2,-1,-1,-4,9,-7,-1
61319137601,-3,-4,-1,-1,3,-12,10,-1
61319137601,-1,0,-1,-24,-3,-8,-12,-4
61319150444,0,0,1,9,0,12,21,1
61319150444,-7,-3,0,-1,2,-1,-37,-3
61319157234,2,0,0,2,2,-1,29,4
61319157234,-2,-2,-2,-3,-2,3,7,-2
61319173664,0,0,-1,-5,-3,-6,-7,-2
61319173664,-4,-4,-5,-2,-4,7,22,-6
61319175157,-4,-2,-2,-2,0,19,12,-4
61319175157,1,-3,-1,5,-1,-10,-23,2
61319196097,6,2,2,2,6,12,18,4
61319196097,2,-1,-1,-1,0,-17,-20,1
61319197540,-3,-1,-2,-4,-8,1,1,-4
61319197540,-1,-1,1,3,-5,-3,8,0
61319210472,-5,-4,-1,-3,3,-8,-2,-3
61319210472,-1,-1,1,-4,-3,11,37,-3
61319217236,3,1,0,-1,-12,-1,-16,1
61319217236,2,3,1,6,8,6,-7,0
61319233636,-6,-4,-5,-6,-4,-1,-7,-5
61319233636,2,1,0,-1,2,-34,-6,6
61319235111,-2,-1,-2,3,2,34,15,1
61319235111,-7,-4,-1,-6,-6,-28,13,-7
61319255983,4,-1,-2,23,4,10,8,7
61319255983,3,1,1,1,0,-1,-40,-5
61319257598,0,-3,-1,-1,1,-7,-1,-1
61319257598,1,-1,0,-3,-1,11,9,3
61319269735,-2,-1,-1,-10,-6,-3,4,1
61319269735,-7,-2,-5,-3,0,-2,2,-6
61319278569,2,0,-1,5,3,-11,0,3
61319278569,3,-1,-1,-1,1,7,-10,-3
61319293532,-5,-1,1,-4,-4,-3,14,-1
61319293532,7,3,-1,-1,-9,12,15,1
61319295053,-1,-1,-4,-5,6,-17,-34,-4
61319295053,0,-1,2,6,3,-4,28,3
61319316125,-5,-5,-3,-6,3,1,-40,-6
61319316125,4,1,-4,-4,-19,5,20,12
61319317562,4,-1,-1,-3,4,-2,2,-2
61319317562,-1,-1,-3,5,0,10,1,0
61319329774,-1,-2,-2,-3,3,-30,-38,1
61319329774,-4,-1,0,-3,0,-1,-2,-7
61319338606,-1,0,-2,0,7,1,10,-1
61319338606,-5,-2,-1,-3,-18,2,3,1
61319353700,-2,-1,-1,-3,1,10,4,-7
61319353700,-4,-2,-2,1,1,5,25,4
61319355003,-2,-2,1,-1,3,1,34,0
61319355003,4,3,2,1,-2,2,-27,-4
61319375973,-4,-1,-1,-5,-3,-12,-8,-5
61319375973,3,0,1,0,1,-9,-8,-1
61319377597,0,-1,-1,9,-3,14,-5,-5
61319377597,-7,-4,0,0,5,-6,19,-3
61319389566,3,1,-1,-3,-7,9,27,0
61319389566,-5,-3,-2,1,4,0,-23,-4
61319398586,1,2,0,-7,-1,-6,-11,-3
61319398586,3,-3,-3,-2,0,-9,-24,1
61319413508,-3,-2,-1,1,-5,7,22,1
61319413508,-2,0,1,-3,5,1,-20,-3
61319415004,1,-2,-2,0,-12,-7,1,4
61319415004,-6,-4,-4,-4,1,2,-11,-6
61319436010,6,2,0,1,9,10,33,2
61319436010,-5,-3,0,-1,4,-14,-23,-11
61319437583,-4,-1,1,-6,-13,-12,-1,3
61319437583,0,-1,-1,4,8,9,-13,-5
61319449719,1,-1,-2,0,11,8,41,6
61319449719,-6,-2,-3,-5,-20,-4,-45,-7
61319458632,-1,1,0,2,7,-23,6,-9
61319458632,3,-1,0,-1,2,23,2,3
61319473585,0,1,1,-2,6,3,11,-1
61319473585,0,-3,2,4,-3,-10,-4,7
61319475090,0,-1,0,0,4,1,-40,1
61319475090,-2,0,-2,-3,-4,-8,-1,-1
61319496029,0,-2,-2,-3,-7,-14,-21,-3
61319496029,3,1,1,1,3,17,8,1
61319497552,-5,-5,-3,-4,0,3,-5,-1
61319497552,4,0,1,6,8,6,20,5
61319509711,-5,-3,-2,-17,-23,-23,-73,-7
61319509711,2,-3,-2,22,3,-1,24,3
61319518568,1,1,0,-1,-4,-3,-12,-5
61319518568,-2,0,-1,0,7,18,6,2
61319533514,-6,0,0,4,4,14,26,3
61319533514,4,2,-2,-9,-2,-9,-9,3
61319535063,-5,-5,-4,-4,-12,7,10,1
61319535063,-6,-3,-2,3,-9,-28,-23,-10
61319556065,-1,-1,0,1,1,23,0,3
61319556065,-5,-3,-1,-6,8,1,42,-3
61319557585,2,5,2,2,7,-4,-35,-2
61319557585,-1,0,-1,-4,-3,4,-2,0
61319569736,-3,-1,-3,1,-4,-8,6,-5
61319569736,-4,-2,0,-4,-7,10,2,7
61319578579,0,-4,-1,2,0,1,-1,-4
61319578579,-2,-1,-3,-3,-2,-2,21,1
61319593559,3,1,0,2,7,-5,-12,2
61319593559,-1,0,-2,1,3,-2,7,-5
61319595056,-8,-4,-5,-5,-5,-4,-10,-5
61319595056,7,5,4,2,7,-3,-14,2
61319616091,-2,-2,-1,1,0,-4,3,1
61319616091,-2,-2,-3,-29,-26,2,13,-5
61319617581,0,-1,3,10,6,8,15,9
61319617581,-2,-1,0,-2,2,-13,-16,-6
61319629727,-1,1,0,3,-2,-13,-11,-1
61319629727,2,-1,-2,-2,3,17,12,3
61319638599,-4,0,-2,-7,3,12,23,0
61319638599,-3,-4,0,0,-6,-9,-14,-4
61319653668,-2,-2,0,-2,-4,6,9,4
61319653668,1,0,0,7,11,-5,39,-2
61319655009,3,2,-2,-1,-1,-10,-52,-4
61319655009,0,-1,-2,0,-7,-3,-16,4
61319676090,-1,-2,-3,-6,-7,7,24,-2
61319676090,-2,-1,0,4,6,3,-15,-3
61319677597,-1,-2,-3,-1,2,-8,19,-2
61319677597,1,-1,-1,-6,-18,-7,-9,0
61319689684,-1,2,1,2,6,-6,-7,-4
61319689684,-3,-2,-2,0,-2,2,14,-2
61319698595,4,4,1,-2,10,7,24,8
61319698595,-2,-1,-3,-1,-5,-5,0,-4
61319713484,1,-1,-3,3,4,14,21,0
61319713484,-2,0,-3,-1,-13,-22,-28,-3
61319715023,-1,-2,-2,-2,5,4,-5,1
61319715023,-1,1,0,0,10,-1,14,3
61319736009,4,0,1,0,-9,-10,-11,1
61319736009,6,2,1,1,11,4,-14,0
61319737545,0,-1,-2,-1,-5,12,7,1
61319737545,-7,-4,-3,-3,-5,-4,-1,-4
61319758611,2,-1,-3,-1,3,-3,-9,1
61319758611,-2,-1,-1,-1,0,5,11,2
61319760003,-1,-3,-3,-4,-12,-20,-7,-7
61319760003,-3,-4,0,0,2,3,-3,-4
61319773470,-5,-1,-1,-14,-6,-4,8,-4
61319773470,0,-3,0,28,2,-5,-6,-1
61319775000,-4,-2,-1,-2,-4,2,-4,-4
61319775000,-1,-2,-2,-5,1,2,0,3
61319796034,-1,-2,1,-2,-3,-8,6,-8
61319796034,-2,-1,-1,-7,3,-13,-17,-3
61319797521,3,3,2,5,7,40,19,2
61319797521,3,3,1,0,3,-19,-76,-5
61319818646,-7,-4,-5,-4,-14,-2,-6,-5
61319818646,-2,-1,-1,-4,3,-15,-8,-4
61319820000,-5,-3,-2,3,10,5,13,0
61319820000,4,2,1,-2,-5,5,14,3
61319833589,-6,-3,1,3,0,-3,-36,-4
61319833589,8,1,1,-5,-2,-1,-2,7
61319834999,-3,-3,-1,-3,-3,-6,8,2
61319834999,0,-1,-1,4,7,11,24,-4
61319856092,-1,-2,-1,0,3,-3,16,8
61319856092,-6,-2,0,-5,-13,11,23,-2
61319857598,0,0,-2,-3,-5,-25,-35,-6
61319857598,0,-1,-2,0,-5,5,-6,1
61319878446,-1,0,-1,1,5,7,-9,-1
61319878446,2,-1,-1,2,13,10,12,1
61319879979,3,0,-1,-7,-10,5,-4,2
61319879979,2,1,0,-4,2,-3,3,2
61319892858,-1,-3,-2,21,-11,-27,-29,-10
61319892858,1,2,2,-3,1,25,-4,-1
61319899649,-2,-4,-2,-1,-8,-21,18,3
61319899649,-5,-3,-1,5,2,-6,3,-6
61319916026,4,1,1,-7,4,8,33,10
61319916026,-4,-1,0,-2,2,-7,-30,-9
61319917524,-5,0,-1,3,-6,-18,-52,-4
61319917524,3,-1,-2,-7,4,15,33,2
61319938467,2,-2,-3,-3,3,-4,3,-1
61319938467,-4,-5,-4,-1,-4,-10,11,-1
61319939994,2,3,2,-4,4,10,0,-3
61319939994,-1,-2,-2,1,-5,-1,-2,1
61319952898,-4,-2,-2,-5,-4,-13,-12,-8
61319952898,0,-1,-3,1,7,5,-2,4
61319959659,2,1,2,-1,-6,-2,39,1
61319959659,-1,1,0,-1,2,-4,-52,-3
61319975905,1,1,2,3,-3,8,-1,-3
61319975905,0,-1,-4,-8,4,4,3,6
61319977526,-5,-2,-1,-3,-20,-6,-17,-6
61319977526,-5,-3,-3,0,-8,3,43,2
61319998629,-5,-3,-2,-8,0,-8,-24,-7
61319998629,7,1,2,2,1,-1,-4,-1
61320000078,0,-3,-3,1,3,-9,5,-3
61320000078,1,0,-1,0,0,1,-9,-3
61320012786,3,2,2,-1,4,7,9,5
61320012786,-5,-1,-3,-4,-9,-7,1,-5
61320019564,-2,0,-1,15,10,13,-1,3
61320019564,5,1,0,1,-2,-5,16,5
61320036069,-3,-3,-3,-9,-6,4,9,-4
61320036069,0,1,0,4,0,-20,-33,-4
61320037544,-1,-3,-1,-8,-2,11,13,-1
61320037544,-4,-3,-3,-1,2,-15,15,-3
61320058583,2,0,-1,2,-13,8,-41,-1
61320058583,2,-1,-1,-7,-2,14,27,1
61320060022,2,0,0,-3,4,-11,-5,3
61320060022,-2,-2,-1,-1,3,0,13,-4
61320072807,2,3,-1,0,3,5,-27,-2
61320072807,-4,-2,-3,-4,-8,-2,26,-3
61320079743,-4,0,2,1,3,-2,-14,0
61320079743,1,0,1,2,0,3,-11,-3
61320095977,-2,-3,0,-2,0,-3,19,7
61320095977,-3,-2,0,0,-2,4,-29,-2
61320097586,2,1,0,3,2,-9,11,2
61320097586,4,1,0,-5,-5,-9,-36,-1
61320118586,-4,0,-2,2,3,-3,10,-2
61320118586,-3,-2,-3,-1,0,0,1,4
61320120079,-3,-4,-2,-3,-3,5,8,-3
61320120079,-4,-2,-1,1,16,3,23,-2
61320133329,1,-1,-1,-4,-15,-12,4,3
61320133329,2,1,0,2,3,-9,-19,0
61320139643,-3,-3,-4,-3,6,27,1,-2
61320139643,0,0,-1,-3,-13,-18,-13,0
61320156360,2,1,-1,0,7,15,11,-1
61320156360,-1,0,-1,0,1,-3,21,1
61320162182,-3,0,-1,-3,-2,-4,-41,-6
61320162182,-3,0,-1,0,2,-10,-7,-5
61320178598,-1,-4,0,-3,3,1,10,3
61320178598,0,0,0,-1,-6,-5,-14,-3
61320180026,3,1,-2,-1,-4,11,2,2
61320180026,-7,-5,-3,-1,-1,-1,2,-3
61320192906,0,-1,0,0,-6,-16,-14,-2
61320192906,-1,-1,-1,-2,2,7,-2,-2
61320199670,0,1,-1,0,7,-5,13,-4
61320199670,0,0,0,-3,-13,-13,35,4
61320216104,-5,0,-2,0,1,13,-45,-5
61320216104,-2,-3,-1,0,0,-11,-5,-2
61320217554,4,1,1,-2,-4,-5,4,5
61320217554,2,0,1,-1,2,13,10,6
61320238622,-2,-2,0,1,4,5,7,-5
61320238622,-3,-2,0,0,-3,-8,-17,-5
61320240075,-3,-1,-2,-3,-9,-7,9,0
61320240075,-5,-4,-2,-2,0,-11,-8,-8
61320252051,-1,-1,0,2,2,-4,7,1
61320252051,2,2,1,-4,-2,-5,4,1
61320261092,-3,0,-1,0,2,15,-1,0
61320261092,0,2,1,0,-1,2,-10,3
61320276447,-1,-2,-2,0,0,-3,10,-3
61320276447,-3,-1,-2,-1,-6,-18,-13,-3
61320278055,-1,-1,0,-2,0,19,-2,-2
61320278055,-2,0,-2,-1,-1,7,-14,-1
61320298518,4,0,-1,0,1,-1,14,1
61320298518,0,-1,0,1,-2,8,12,2
61320300021,-2,-1,-1,0,-2,-20,-12,-3
61320300021,-3,-4,-1,-1,0,10,-11,-3
61320312146,-1,-1,-1,0,-4,-3,25,2
61320312146,-4,-2,-2,-2,-2,-2,-11,-3
61320327222,0,3,2,0,1,-5,41,1
61320327222,2,1,-1,-2,-4,-4,-33,-2
61320335972,0,-2,0,-1,2,2,29,0
61320335972,-4,-4,-3,-5,-8,-15,-4,-6
61320337523,0,-2,-2,0,-6,-13,-43,-6
61320337523,0,1,-1,-1,1,9,24,2
61320358566,-3,-3,-3,-2,-5,-2,-7,-3
61320358566,2,1,0,1,4,16,17,3
61320360006,-4,-3,-1,-2,-4,-12,23,-3
61320360006,-1,-1,1,-2,-1,-1,-8,-2
61320372070,-1,0,-2,-2,0,-5,-13,0
61320372070,0,-3,-1,1,-1,9,17,-1
61320387095,0,0,-1,0,0,-7,-14,2
61320387095,0,-3,-2,-1,-3,13,19,-2
61320395909,-1,0,0,-2,-2,-17,-9,-1
61320395909,-2,-3,-2,-2,-1,19,7,1
61320397542,-3,-4,-2,-2,-3,-19,-13,-3
61320397542,2,3,1,-1,2,4,-1,0
61320418524,-1,-2,0,-2,-1,-9,-16,-2
61320418524,-1,-1,-2,0,0,15,23,2
61320420052,2,-1,-1,1,2,10,-21,-1
61320420052,-5,-3,-6,-2,-5,-23,-6,-6
61320432229,0,1,0,-2,-2,-4,-1,0
61320432229,0,-1,0,0,0,-5,-20,-1
61320441108,-1,-1,0,-3,1,6,24,1
61320441108,-2,-2,0,-1,0,1,-18,0
61320455109,-4,-3,-1,-1,-5,-1,-16,-5
61320455109,1,2,0,-2,0,-2,3,2
61320463643,-2,-1,-2,-1,-1,2,9,1
61320463643,1,0,-1,1,-1,-17,-68,-4
61320478406,-3,0,-1,-1,-1,8,30,-1
61320478406,0,-1,0,0,-3,-6,-5,0
61320480089,1,-1,-2,-1,1,-3,-8,1
61320480089,-3,-2,-2,0,1,7,13,1
61320492112,-3,-1,-2,1,1,10,-1,-2
61320492112,-1,0,0,-1,0,-5,-9,-3
61320501089,2,0,0,0,-1,-21,-18,0
61320501089,1,-2,-1,0,1,22,40,2
61320515362,-5,-3,-2,-2,-2,-11,-8,-3
61320515362,-2,1,-2,-1,0,-5,-5,0
61320522152,0,-2,1,-1,-2,-1,-22,-1
61320522152,1,-2,-3,-1,-2,7,19,1
61320538420,1,-2,-4,-1,-1,-10,-4,1
61320538420,-1,-1,-2,-2,0,1,18,-4
61320540076,-1,-1,-2,-2,-3,0,0,-1
61320540076,-1,1,0,0,-1,-1,6,-2
61320552183,-1,1,-1,-2,0,-3,-28,-3
61320552183,-3,-2,0,0,-2,-5,-6,0
61320561047,1,0,0,0,-1,5,12,-1
61320561047,0,-1,2,-1,-1,-2,30,2
61320575553,-1,-1,0,0,0,1,-8,-3
61320575553,-8,-3,-3,-1,-1,3,31,-5
61320582257,4,1,-1,-1,-2,-6,-5,1
61320582257,-3,-3,0,1,-1,-10,-16,-3
61320598574,-2,0,-1,-1,0,29,28,0
61320598574,1,-2,0,-2,-2,-25,-49,-2
61320599998,-4,-3,-1,-1,0,19,19,-1
61320599998,-1,-2,-2,-1,-1,-6,-28,-3
61320612185,4,0,-1,1,0,-3,11,2
61320612185,0,0,0,1,2,5,-19,4
61320621077,-3,-1,0,0,-4,-1,-1,-4
61320621077,1,0,-1,-2,0,16,24,3
61320635411,0,-1,0,-2,-3,-24,-6,-5
61320635411,1,0,-1,-2,1,14,27,2
61320642230,-4,0,-2,-1,0,-5,-19,-2
61320642230,-3,-2,-2,-2,-2,0,7,1
61320658566,-1,-3,-1,0,-1,4,0,-1
61320658566,-6,-3,-1,-1,0,-3,10,-2
61320660049,4,2,-2,-2,0,-1,9,2
61320660049,1,0,-2,-1,-1,0,-22,-4
61320681033,-1,-2,-2,-1,0,-4,-7,2
61320681033,1,-3,-1,-1,0,-4,-22,-3
61320682571,-1,-2,0,-1,1,5,30,1
61320682571,-3,-1,-1,-3,0,-9,-40,-5
61320695492,2,4,1,-1,0,-7,3,1
61320695492,2,0,1,1,0,-3,-10,-1
61320709546,-1,-1,0,1,2,11,6,-1
61320709546,-1,-1,-1,-1,-2,-5,35,2
61320718628,-3,-2,-3,-1,-3,9,-22,-2
61320718628,-1,0,-2,0,-1,-7,6,-1
61320719999,-4,-5,-4,-4,-3,-13,-16,-3
61320719999,0,-1,0,-1,0,-8,-5,-2
61320740896,2,0,0,1,0,7,30,3
61320740896,1,1,-1,0,0,5,-8,-4
61320742485,1,-1,0,-1,-3,1,-8,-3
61320742485,-2,1,-2,0,0,-2,-1,-1
61320755459,-1,-2,-3,-2,0,1,-7,1
61320755459,0,-2,-1,-3,-3,-10,10,-1
61320763021,1,1,1,0,2,3,-23,2
61320763021,-2,-3,-1,-2,-4,-14,-9,-2
61320777834,0,0,0,0,-2,14,-1,2
61320777834,-1,0,-2,0,-2,-6,8,-3
61320778536,-6,0,-1,-1,-1,-11,-26,-7
61320778536,-1,-2,-1,-3,-2,16,42,4
61320800622,1,1,0,0,0,-4,0,-1
61320800622,2,1,1,-1,-3,-10,-16,-4
61320807775,-4,-2,-1,0,0,9,28,3
61320807775,0,0,-1,1,0,1,-24,-4
61320814577,-3,-3,-2,-4,-2,-17,-2,-4
61320814577,3,1,-1,-1,2,17,15,8
61320822732,-4,-2,-2,-2,-2,-6,-4,0
61320822732,1,0,-1,-3,0,-3,-2,-3
61320837833,-1,-1,-1,1,2,5,9,2
61320837833,-1,-2,0,-1,-2,8,-24,-5
61320838562,-3,-3,-1,0,-1,2,8,3
61320838562,-1,-1,-1,1,0,-8,-11,-2
61320860321,-1,0,1,0,0,7,-8,-4
61320860321,-3,-2,-1,-2,1,-5,-1,1
61320861037,1,-1,-1,-1,-1,-2,5,-2
61320861037,5,0,0,0,0,5,8,-1
61320874586,-6,-2,-1,-1,0,-1,12,-2
61320874586,-1,0,-1,0,-1,3,9,-1
61320882926,0,-1,-2,-1,-2,-8,-5,-2
61320882926,1,1,0,-1,-1,-6,-24,0
61320897923,-1,-1,0,-3,-2,8,-10,-6
61320897923,0,-2,-3,-2,-3,-20,24,6
61320898536,-2,0,-1,1,0,9,-10,-9
61320898536,-1,-2,-1,-3,-4,-4,2,-3
61320920385,0,-3,-1,-1,-1,-10,-52,-2
61320920385,-1,-1,-1,-2,-1,-10,11,-3
61320921014,1,-2,-1,-1,-1,22,13,0
61320921014,-6,-2,-2,-1,0,-3,5,-2
61320943604,1,2,0,-1,-3,-3,0,1
61320943604,-3,-2,0,-1,-1,-7,5,-5
61320944224,-2,-2,-2,-1,2,5,-8,2
61320944224,-3,-1,-4,0,-2,12,20,2
61320957945,-3,-3,-1,-1,2,-17,-22,-6
61320957945,6,4,1,1,0,14,-11,6
61320958583,0,-2,1,-1,0,2,6,0
61320958583,-3,-4,-2,-1,-2,2,18,-4
61320980471,-2,0,-3,-2,-2,-7,5,0
61320980471,-4,-1,-1,0,-1,-5,-42,-8
61320981061,-2,-1,-2,-1,0,15,-2,0
61320981061,9,-2,0,-1,0,0,11,8
61320994621,-10,-1,-2,0,-1,-1,30,-9
61320994621,3,-1,0,0,-3,-4,-5,0
61321002775,-4,-3,-1,-2,-2,-11,-9,1
61321002775,2,2,1,1,2,-1,6,-1
61321017760,4,-1,1,-1,-1,6,-29,2
61321017760,-5,-2,-3,-2,0,6,8,-4
61321018535,0,1,1,-1,-4,-19,-10,-1
61321018535,-1,0,0,1,0,9,14,4
61321040446,7,3,2,0,-2,-6,12,5
61321040446,-5,-1,-2,-2,0,11,-39,-6
61321041063,-1,-2,-2,0,1,-6,2,0
61321041063,-5,-2,-2,-3,-3,-11,-17,-7
61321054747,1,-2,-2,1,-1,2,59,1
61321054747,0,0,-2,-5,-1,-9,-74,-1
61321062863,-3,-2,-1,-1,-2,-7,26,-7
61321062863,-1,0,-1,-1,1,2,-3,1
61321077879,-1,0,-3,-1,-2,1,-11,0
61321077879,2,0,-1,1,0,1,32,3
61321078562,1,1,-1,-1,-4,-9,-6,-1
61321078562,-5,-2,-4,0,-2,1,-21,-4
61321100313,-2,-3,-2,-2,-1,-2,-4,0
61321100313,0,2,0,1,1,0,11,0
61321101039,1,-1,-1,-1,-1,6,-26,4
61321101039,-4,-2,0,-2,-2,-5,8,-2
61321114671,3,2,0,0,0,-2,-16,0
61321114671,-2,-6,-2,-1,0,1,23,0
61321122895,0,1,-1,-1,0,-7,-4,1
61321122895,-1,-2,0,-1,-1,3,-10,0
61321138360,-2,-2,-2,-3,-2,-4,-17,-6
61321138360,1,0,-1,-2,0,2,32,5
61321139167,-2,-1,-1,0,-1,-2,10,-4
61321139167,-2,-2,-2,-1,-1,-2,-30,-2
61321160321,0,-2,2,1,-2,-2,16,2
61321160321,-1,1,-3,0,0,-4,5,0
61321161033,0,-1,1,-1,0,-2,4,0
61321161033,0,0,-2,-1,1,17,3,-2
61321174613,-2,-1,-1,-1,1,-3,10,3
61321174613,-3,-1,1,0,-3,-5,-6,-4
61321182740,2,0,-3,-5,0,-4,0,-3
61321182740,1,-2,0,-1,-1,-7,7,-2
61321197820,-1,-2,-2,-1,0,-2,-7,0
61321197820,-2,-2,-1,0,-1,4,0,1
61321198529,-1,0,0,-1,-1,-2,-2,-2
61321198529,0,-1,0,0,-2,-4,-2,0
61321220905,-2,0,0,0,-1,-1,-8,0
61321220905,0,0,0,-2,-2,-3,-3,-3
61321221480,-1,-3,-2,1,-2,-3,1,-2
61321221480,-1,-2,-2,-1,-1,-7,-6,-1
61321234721,-1,-1,-1,-1,-2,2,-1,0
61321234721,-1,-2,-2,-2,0,-3,-2,-1
61321243027,-1,0,-1,0,0,9,35,3
61321243027,-2,-3,-3,-1,-3,-14,-47,-6
61321257872,-3,-1,-1,-1,-2,0,3,-3
61321257872,-1,-2,-2,-2,-1,1,-3,-1
61321258523,-1,0,-1,-1,0,-19,-6,0
61321258523,0,2,0,-1,-1,5,33,1
61321280410,-1,-2,-1,-1,-2,-3,-34,-3
61321280410,-2,-4,-2,0,-2,-3,3,-3
61321281009,-2,-2,-1,0,0,4,-6,-1
61321281009,-2,0,-2,-1,-1,0,8,2
61321294626,-1,-1,-2,-2,-1,-5,0,0
61321294626,0,1,0,0,-2,2,4,0
61321310691,-2,0,0,0,0,-2,-10,-1
61321310691,0,0,-1,0,1,-1,-4,0
61321319185,-3,-1,-1,-2,0,1,9,-1
61321319185,-1,-1,-1,-1,-2,-2,-7,-2
61321320016,0,-1,-1,0,0,0,-6,0
61321320016,-2,-1,0,-2,0,-3,-5,-2
61321340250,-1,-2,-1,-1,-2,-1,7,-2
61321340250,-1,0,-2,-2,0,1,3,-3
61321341204,-1,-2,0,-3,-1,-3,-7,-2
61321341204,-2,0,-1,-1,0,0,10,1
61321354622,0,-2,-2,0,-1,3,-9,0
61321354622,-1,0,1,-1,-2,-2,-1,0
61321362754,0,1,-1,-2,-2,-7,-3,0
61321362754,-1,-1,-1,-1,1,10,6,0
61321377691,0,1,-1,0,0,-1,2,-3
61321377691,-1,0,-1,-1,-2,-2,-3,-3
61321378469,-2,-2,-1,0,0,3,-2,-2
61321378469,-2,0,-1,0,-3,-13,-8,-2
61321400360,-2,-2,-1,-1,1,2,1,2
61321400360,0,-2,0,-1,1,-2,-13,0
61321401046,-1,-2,-2,0,-2,5,0,-1
61321401046,-1,-1,-2,-1,-2,-10,-2,-2
61321414661,2,2,-1,-1,-1,3,-2,0
61321414661,-2,-1,-1,-1,-1,1,3,1
61321422838,0,-1,-1,0,-2,-3,-4,-3
61321422838,-1,0,0,-2,0,11,-5,-2
61321437867,0,0,0,0,-1,-7,3,0
61321437867,-1,-1,0,-2,0,5,3,2
61321438566,-1,-2,-1,0,-3,-4,-4,-2
61321438566,-1,-1,0,-1,-1,7,2,-2
61321460329,0,-1,-2,-2,0,-3,2,-2
61321460329,-2,-1,-2,-2,-2,-4,1,-1
61321461032,-1,-1,-2,-1,-1,4,1,0
61321461032,1,-3,-1,-1,0,-6,-2,-1
61321474713,0,-1,-2,-1,-1,-1,-1,0
61321474713,-1,-1,-3,-1,-1,1,10,0
61321482750,-2,0,0,-2,-3,-8,-22,-1
61321482750,-1,-1,0,0,-3,0,1,-1
61321498340,-2,0,-1,-1,-1,-1,1,0
61321498340,-2,-2,0,0,0,-1,5,-1
61321499080,-2,0,-1,0,0,0,3,0
61321499080,0,0,0,1,0,-4,-2,1
61321520308,-1,-1,-1,-2,-1,1,-2,-2
61321520308,-2,-1,0,-2,-1,-3,-3,-2
61321521028,-2,-3,-1,-1,-2,0,2,-1
61321521028,-1,-1,-1,-3,-2,-6,-7,-1
61321534686,0,-1,-1,-1,-2,1,8,1
61321534686,0,-1,0,0,-2,-1,-3,-1
61321542841,-1,0,-1,-2,-1,1,0,0
61321542841,-1,0,-3,-1,0,0,2,0
61321557872,-2,-3,0,-2,-1,-5,-6,-2
61321557872,0,0,-2,0,-1,-3,0,-2
61321558532,-1,-1,-1,-1,1,0,2,-2
61321558532,-2,0,-1,-1,0,6,-1,1
61321581069,-2,-1,0,-1,-1,-1,1,1
61321581069,-1,-1,0,-1,-1,0,-1,-2
61321581741,-2,-1,1,-1,-2,0,0,-2
61321581741,1,-1,0,-1,0,0,6,-4
61321594664,-2,0,-1,0,0,-2,-21,-3
61321594664,-1,-1,-2,-1,-1,-2,1,0
61321602860,0,0,-3,-2,-1,6,2,-2
61321602860,-2,-1,0,-2,-2,-4,5,-1
61321617821,-2,-1,-1,0,-1,-1,5,-2
61321617821,0,-1,-1,-1,-2,-3,-4,-3
61321618507,-1,0,0,-1,-1,-3,-6,-1
61321618507,0,-1,-2,0,-1,-1,-3,2
61321640954,-1,-1,-3,0,-1,2,-1,-2
61321640954,1,0,-1,0,-3,-9,-5,-1
61321641710,0,-2,-2,-1,1,12,5,-2
61321641710,0,0,-1,-3,-1,-3,-2,-2
61321663513,-1,-2,-2,-1,-2,-1,0,0
61321663513,-2,-1,-3,-2,-2,0,1,0
61321664210,0,-2,-2,1,-1,-4,-1,0
61321664210,-2,-1,0,0,-1,-2,-3,-2
61321677838,0,-1,0,-1,0,3,1,-3
61321677838,-3,0,-1,0,-1,-3,-4,0
61321678517,0,0,-1,-1,-2,-5,-1,-1
61321678517,-3,-1,-2,-2,1,-1,-3,1
61321701069,1,0,1,-2,-3,-5,3,-2
61321701069,2,-1,-3,-1,0,-1,0,1
61321701697,1,0,0,-1,-1,2,1,2
61321701697,0,-2,0,1,-3,-4,-2,-2
61321723679,-2,1,-2,-1,-1,-3,1,1
61321723679,-1,-1,1,-1,-1,1,-3,-1
61321724195,-1,1,0,-1,0,-10,5,0
61321724195,-1,1,-1,-2,-1,13,-18,-4
61321737807,-1,-3,-1,-1,-2,-20,4,0
61321737807,-1,-1,-1,-1,-2,4,2,-2
61321738602,-1,-2,-2,-2,0,-2,-3,0
61321738602,0,-1,-3,-2,-2,-3,5,0
61321760971,-1,0,-2,-1,-1,5,-1,0
61321760971,-1,0,-2,0,1,-3,-2,-2
61321762160,0,-1,-1,-1,-1,0,4,-2
61321762160,0,-3,-1,1,-2,-4,-1,-2
61321783424,-2,0,-1,-1,0,3,-3,-2
61321783424,-1,-1,-1,-2,-1,-2,2,-1
61321784305,-1,0,-1,0,-3,3,-3,0
61321784305,-3,1,-1,0,0,-2,1,2
61321797832,-2,-2,0,0,0,0,0,-3
61321797832,-1,-1,0,1,-1,0,-3,-1
61321798534,0,-1,0,-2,0,1,-1,-2
61321798534,-3,1,0,-3,-2,-2,0,-1
61321820947,-2,-3,-1,0,-2,1,2,1
61321820947,0,1,-1,-1,2,1,-1,-1
61321821648,-1,-2,-3,-1,-2,-11,-2,0
61321821648,0,0,-1,-2,0,9,5,0
61321843567,-1,1,-1,0,0,2,0,-2
61321843567,0,-1,-1,-1,-1,-3,-3,0
61321844213,-1,-1,-3,-1,0,0,-6,-3
61321844213,0,-2,-2,0,-1,-2,6,1
61321857846,-1,-1,-2,0,-2,-2,-2,-3
61321857846,-2,-1,-3,0,-1,1,0,-1
61321858460,-1,1,0,-1,0,-2,-2,-1
61321858460,-1,0,0,0,-1,-4,-3,-2
61321881048,-1,-2,-2,-1,-2,6,0,-1
61321881048,-3,-4,0,-1,-1,-5,-2,2
61321881708,-2,-2,0,0,0,0,-3,-2
61321881708,0,-2,0,0,0,-1,0,0
61321903472,1,0,-1,-2,-2,-4,-1,2
61321903472,-1,-1,-2,0,-1,1,-1,-1
61321904218,-2,-1,-2,-1,0,-1,-1,-1
61321904218,-1,-1,0,-1,0,1,0,0
