61390779701,-2,-2,-1,0,0,-3,5,-1
61390779701,0,-1,-1,-2,-1,-6,-20,-1
61390780540,-5,-2,-3,-3,-1,-3,-7,-4
61390780540,-3,-1,-1,-2,-1,-4,5,-2
61390783212,-3,-1,-1,-1,0,-1,2,0
61390783212,0,-1,0,-2,0,0,2,1
61390784033,1,-1,0,-1,0,0,4,1
61390784033,-3,-2,-1,-1,0,-2,-8,-4
61390789856,1,0,-1,0,-2,1,-5,-2
61390789856,0,-1,1,0,-3,1,4,-1
61390797545,2,0,0,1,-2,-1,-2,2
61390797545,-2,-1,-2,0,-1,-3,2,1
61390811139,-2,-3,-2,-2,-1,0,-3,-1
61390811139,-3,-1,-3,-2,0,-3,0,-3
61390822644,-1,0,0,-2,0,-1,-2,-3
61390822644,-3,-1,0,0,-2,0,-3,0
61390826149,-1,1,-2,-1,-2,1,7,0
61390826149,-1,-1,0,-1,-1,-4,6,-3
61390850391,-2,-1,-1,-1,0,-6,-1,-1
61390850391,0,-1,-1,-1,0,-5,-2,0
61390851086,2,0,0,-1,0,11,-4,0
61390851086,-1,-1,-1,0,-1,0,3,1
61390889357,-2,-2,-1,-1,-3,-3,1,-3
61390889357,-2,-1,0,-1,-1,3,-1,-3
61390890156,-1,-2,-1,0,-1,-3,-2,-1
61390890156,0,-1,-2,-1,-2,-1,-3,-1
61390890965,0,-1,-1,-1,0,0,0,-1
61390890965,-2,-1,0,-2,-1,-2,1,0
61390894127,-2,0,-2,-2,0,0,0,-4
61390894127,-1,-2,-2,-1,-1,1,0,1
61390901026,1,0,-1,-1,-1,-1,1,-2
61390901026,0,-2,-2,-1,-2,-3,-2,0
61390908497,-1,-1,-1,-1,-1,0,-2,-2
61390908497,-2,-2,0,-2,-3,-1,-8,-1
61390917328,-2,-3,-3,0,-2,-1,7,-4
61390917328,-1,-2,-2,2,-1,-1,-1,-2
61390930872,0,0,-2,0,-2,-2,0,-1
61390930872,1,0,-2,-1,-1,-5,-3,-2
61390939967,0,-1,-1,-1,-2,8,-2,-2
61390939967,-2,0,0,-1,-1,4,1,-2
61390953326,0,-1,-1,-1,-3,-3,-1,-1
61390953326,-3,-2,-2,0,-2,1,2,-3
61390962394,-1,0,-3,-1,-1,-5,-6,-2
61390962394,-1,0,-3,-1,-2,-5,-1,-1
61390977194,-1,-1,-1,0,0,4,-1,0
61390977194,-1,-3,-1,-2,-1,0,1,-2
61390978789,-3,-3,0,1,1,0,-2,1
61390978789,5,4,1,2,1,0,-1,1
61390999911,5,1,3,0,1,0,1,1
61390999911,2,1,1,-1,-2,2,4,-3
61391001289,0,1,-1,-2,1,-1,-1,2
61391001289,-2,-4,-1,-2,-1,-1,-1,-1
61391022221,-1,-1,-1,-1,1,-1,-1,0
61391022221,-2,-1,-1,-1,0,0,1,-3
61391023821,-1,-1,0,-3,-1,0,0,1
61391023821,-2,0,-1,-1,-2,-1,2,-2
61391037388,-2,0,-2,-1,-2,-1,0,1
61391037388,-1,-1,-3,0,-2,-3,1,1
61391038823,0,-1,0,-1,-1,-3,-4,0
61391038823,-1,-1,-1,-2,-1,-2,-5,1
61391059794,-2,-2,-2,-2,1,1,1,-2
61391059794,-1,1,-1,1,-1,-2,1,0
61391061321,2,1,1,1,-2,-2,-1,2
61391061321,-1,-1,0,-1,1,-2,3,-2
61391082368,0,-2,-1,-2,-2,-1,-9,-2
61391082368,0,0,0,1,-1,-4,-3,1
61391083819,0,1,0,-1,-2,1,-2,-2
61391083819,-4,-3,-1,-3,-1,-5,-4,-1
61391097354,-4,-4,0,-2,-2,0,1,-2
61391097354,0,0,0,-1,1,2,1,3
61391098816,1,0,0,-2,0,-4,-3,1
61391098816,-1,0,-2,0,0,3,1,-2
61391118916,-1,0,0,2,-2,-10,-3,-1
61391118916,-3,-4,0,-1,-1,10,1,-2
61391127312,-4,1,0,1,-1,-12,-6,-5
61391127312,-3,2,1,-2,-1,14,6,3
61391141232,1,-1,-1,-2,-1,-5,22,-1
61391141232,-5,1,-1,0,-1,-5,-8,-6
61391149853,-4,-5,-3,-3,-1,6,18,5
61391149853,-2,0,0,0,-3,-8,-32,-4
61391157262,10,5,1,2,1,0,-6,6
61391157262,1,-2,-3,-3,-1,-4,22,2
61391158794,-4,-2,-3,-2,-2,8,-24,-11
61391158794,6,-4,-3,0,0,-2,23,3
61391179847,-8,1,-2,-2,-3,11,7,-1
61391179847,5,2,3,-1,0,-18,0,4
61391181322,-4,-2,0,0,0,-7,-11,-3
61391181322,-7,-3,-2,-2,-1,-3,14,-6
61391202250,-2,-7,-4,0,0,-6,2,0
61391202250,1,1,-1,-1,1,22,40,2
61391203812,0,7,2,-1,-4,-8,-55,-7
61391203812,0,1,1,0,1,-9,-1,-5
61391215961,-5,-5,-1,-2,-1,1,-15,-7
61391215961,-4,-3,-2,-1,0,-4,-12,-7
61391224880,11,-3,1,1,2,6,13,12
61391224880,3,-1,-2,-3,0,33,40,0
61391239835,-3,2,1,0,-3,-13,-42,4
61391239835,0,-4,-4,-3,-4,-15,4,-2
61391241322,-6,-7,-3,-2,-2,-1,-30,-8
61391241322,4,-2,-4,-2,-1,-3,12,5
61391262282,-1,5,0,1,1,-2,0,-3
61391262282,7,4,2,3,1,6,22,5
61391263811,6,1,-1,0,-2,7,10,2
61391263811,-12,-7,-2,0,1,-10,3,-8
61391275987,-12,-7,-5,-4,-3,-9,-18,-6
61391275987,-3,0,0,-1,3,9,-8,-2
61391284819,13,-6,-2,-3,-4,3,-6,9
61391284819,-13,5,1,0,-3,-32,-34,-4
61391299656,2,-3,3,0,1,-10,6,5
61391299656,23,7,2,-2,-4,-3,-23,-7
61391301375,-9,-1,-3,-1,-2,6,42,4
61391301375,-2,-5,-2,1,-2,3,-9,-3
61391322343,-4,1,1,0,-1,-6,3,-9
61391322343,25,4,-1,-4,-8,-5,-6,14
61391323799,-19,2,1,0,0,-3,14,-5
61391323799,2,-3,-2,-3,-5,-9,-20,7
61391335972,-8,-12,-4,-3,1,12,53,0
61391335972,-15,-1,-2,0,0,-6,-48,-13
61391344826,0,-5,-3,1,2,6,6,-8
61391344826,3,-1,-2,-2,-2,31,-16,2
61391359790,15,3,3,1,1,-13,25,14
61391359790,-15,-9,-1,0,-3,-7,13,1
61391361385,14,15,0,-2,-1,-18,-21,-5
61391361385,-5,-3,-1,-1,-1,-13,27,-5
61391382334,0,-1,-1,1,3,17,4,-3
61391382334,-4,1,0,-1,1,11,8,10
61391383818,-20,-6,-2,-1,-7,-6,-39,-19
61391383818,14,0,0,-2,2,-12,-2,0
61391395862,11,3,0,0,4,-2,5,10
61391395862,-31,-7,-4,-2,0,13,11,-18
61391404866,3,-5,-1,1,5,12,28,10
61391404866,3,9,0,0,-3,-17,-22,-4
61391419816,9,-3,-1,-4,-11,5,-10,8
61391419816,1,2,1,-1,7,0,-4,2
61391421318,-1,-6,-4,-1,-6,-17,14,-2
61391421318,-8,-4,-2,1,5,27,-1,-6
61391442210,-2,3,-1,2,2,-2,28,-1
61391442210,4,-2,-2,0,-4,-33,-29,5
61391443749,3,4,2,-3,-1,-8,4,2
61391443749,-5,-2,1,-1,-2,-23,6,-3
61391455805,-2,-2,-1,-2,-5,-9,-5,-6
61391455805,11,-3,-4,-1,-2,7,12,5
61391464819,-13,-2,-3,1,4,-12,-20,-8
61391464819,-5,-5,-1,2,9,9,10,5
61391479680,-2,0,-2,-4,-16,-4,-24,-3
61391479680,-4,-3,-1,-1,-8,8,9,-3
61391481304,9,6,0,1,1,-7,17,6
61391481304,2,0,0,1,5,24,-7,-2
61391502188,-6,-2,-3,-3,0,-37,-6,-4
61391502188,-5,-1,0,1,2,49,1,-5
61391503800,4,0,1,-2,10,-14,10,8
61391503800,2,-1,0,2,3,24,36,5
61391515965,-4,-4,-2,3,8,-1,-29,-8
61391515965,-5,-3,-2,0,-3,-57,11,0
61391524848,1,-2,0,-3,1,69,-4,-2
61391524848,0,1,-3,-2,-5,-85,-6,6
61391539839,4,4,-2,-3,-10,31,12,1
61391539839,-4,0,-1,0,8,-10,1,-6
61391541319,-8,-6,-1,-1,-5,13,3,-7
61391541319,-3,-5,-3,-1,-1,3,-20,-4
61391562286,-2,-1,0,0,1,-1,-1,-2
61391562286,-2,0,0,-3,-7,13,-16,-2
61391563798,-1,-1,0,-3,-3,12,4,2
61391563798,5,1,2,2,9,-5,-1,3
61391575960,-6,-3,-2,0,-18,-19,-17,-9
61391575960,-1,-2,-2,-2,16,23,-8,-2
61391584830,-3,-1,-6,-2,4,12,17,0
61391584830,2,-1,2,-4,-10,36,0,2
61391599678,-3,0,1,-3,0,-47,-19,-3
61391599678,-2,-3,-6,5,17,3,-4,-2
61391601343,0,0,1,0,-4,12,-4,-1
61391601343,1,3,-3,-3,-2,14,-4,2
61391622324,-7,-4,8,-4,-10,0,-5,-3
61391622324,7,4,16,0,-8,25,22,7
61391623830,-2,0,-10,-5,7,-23,-42,-2
61391623830,-1,-2,-9,2,-6,12,1,-2
61391635950,-2,-5,-6,4,12,32,4,-3
61391635950,-4,-4,-7,-8,-4,-12,-8,-5
61391644830,1,0,7,-9,-5,-4,11,1
61391644830,1,1,3,-2,-10,-27,-7,-1
61391659783,-1,-2,-24,-6,5,75,5,3
61391659783,-6,-3,4,11,10,-7,-19,-10
61391661361,1,5,40,6,-4,-29,2,1
61391661361,-1,-4,-19,-11,-6,-3,-4,1
61391682701,-2,-2,9,6,3,-7,-1,-2
61391682701,-3,-3,-16,-13,-6,-41,-7,-2
61391684226,4,2,-20,2,-2,0,8,6
61391684226,-2,3,18,11,-2,5,-1,3
61391695948,-3,-3,-12,-4,13,5,0,-4
61391695948,-1,-2,-24,-15,-25,17,1,-1
61391704849,-2,-4,21,2,15,0,2,-4
61391704849,1,1,5,2,2,-53,-2,-1
61391719801,-4,-6,-9,-11,-8,-13,-4,-3
61391719801,0,3,12,6,-2,-12,-6,2
61391721330,5,7,13,3,-10,-64,2,1
61391721330,1,-2,-1,8,14,81,9,1
61391742335,2,-4,-4,-11,-2,-5,-3,-1
61391742335,-5,-6,4,3,1,-15,-3,-1
61391743766,1,1,-3,5,-2,-6,5,6
61391743766,-4,-2,14,3,0,-8,-9,-8
61391755961,3,5,-13,-2,-4,21,0,-3
61391755961,4,0,-27,-4,-4,28,4,7
61391764845,-9,-8,16,1,-6,-28,-3,-7
61391764845,-2,1,8,-3,-8,-23,-7,-2
61391779097,-1,-1,-3,-2,3,1,-1,-1
61391779097,-7,-1,0,-1,0,-8,-3,-5
61391785975,-1,-3,-20,-2,9,21,-2,-2
61391785975,3,-4,-29,-9,-9,0,-4,-1
61391802304,2,4,22,1,-1,-14,5,3
61391802304,0,5,12,4,9,14,5,-2
61391803835,0,-3,-41,-2,-7,-84,-5,-3
61391803835,-3,-4,29,-9,-2,46,-2,-1
61391815811,-2,1,17,17,3,-16,-3,1
61391815811,4,-2,-4,-10,-11,-5,2,8
61391824806,-4,-4,10,3,-5,10,6,-1
61391824806,3,-1,-28,-6,6,5,-4,-3
61391839105,-6,-3,-1,-1,-6,-4,1,-6
61391839105,3,4,18,7,2,-9,0,0
61391845940,2,-2,-22,-4,-1,15,-1,0
61391845940,-2,0,-4,0,-1,-5,-5,-1
61391860960,3,0,8,0,2,12,0,4
61391860960,-2,-4,1,3,0,-17,1,-3
61391869804,0,-3,-7,-6,-6,3,-5,-3
61391869804,-5,0,2,2,-3,5,6,3
61391884761,0,0,0,-2,-6,-31,-7,0
61391884761,0,-3,-10,0,0,11,-4,-1
61391886324,-3,3,6,-3,-3,23,-4,-1
61391886324,-4,-8,-20,1,0,-3,-2,-4
61391907315,3,2,-7,-3,-2,10,2,6
61391907315,5,-4,-2,-3,2,-4,-4,1
61391908803,0,5,23,-2,2,62,9,-1
61391908803,-1,0,-1,0,-5,-24,-2,-2
61391921010,-6,-3,-4,0,-1,-4,-4,-4
61391921010,1,0,-4,0,-5,-6,-5,1
61391929827,-1,-8,-20,2,2,18,4,-1
61391929827,-3,0,-10,-11,-10,-39,2,-1
61391944655,1,-2,3,3,3,18,4,1
61391944655,0,3,24,-4,3,7,-3,-2
61391946293,-2,-3,-3,2,4,-50,-7,-1
61391946293,-1,4,10,0,0,13,1,-3
61391967244,-4,-7,-14,-2,1,31,4,-3
61391967244,2,0,-14,-1,-5,-25,-7,-2
61391968892,-2,-3,22,-1,-5,-6,6,-1
61391968892,2,0,-5,0,1,5,-7,-2
61391981502,0,1,17,4,1,2,5,-2
61391981502,-5,-1,-7,-6,-1,-9,-2,-5
61391988329,0,-2,-9,-4,-3,27,4,1
61391988329,-1,-3,0,-2,-2,-3,-2,-1
61392004648,2,2,0,2,0,1,-2,-5
61392004648,3,-3,-4,-3,-2,6,5,7
61392006323,-3,-1,-4,-4,-3,-5,-7,-4
61392006323,-1,-1,7,4,3,7,-7,-1
61392027260,1,-1,-5,-5,2,-20,3,-1
61392027260,-7,-3,-5,0,-5,-26,-9,-8
61392028771,-6,-4,-4,-2,-4,12,-1,-4
61392028771,3,0,-4,-8,-2,-30,1,3
61392040935,-2,0,-20,-1,0,7,-4,-2
61392040935,-3,1,29,3,1,30,5,-3
61392049855,4,-1,0,7,-1,3,-6,1
61392049855,-7,-5,2,-7,0,0,-4,-8
61392064809,4,5,3,4,-2,-8,0,0
61392064809,-1,0,-33,1,0,6,7,3
61392066322,-2,-5,27,-1,2,-13,-3,0
61392066322,4,0,-3,6,-1,8,4,3
61392087285,0,1,-6,-9,-4,-25,-10,-4
61392087285,-5,-5,-3,-1,-3,-24,-4,-3
61392088781,2,1,-14,0,-1,2,2,2
61392088781,2,3,18,6,4,6,0,3
61392100884,-2,-3,0,-5,-8,-33,-6,-1
61392100884,2,0,3,0,-3,-9,0,-1
61392109812,-1,-3,-51,-6,-1,0,1,0
61392109812,-5,-3,36,7,2,-1,-3,-3
61392124815,3,1,-1,0,-1,-2,7,5
61392124815,1,1,5,-1,-4,-9,-3,-3
61392126341,-2,-1,-7,-3,-1,24,-1,-2
61392126341,-2,-7,-31,-4,-5,-35,-3,1
61392147321,0,4,41,5,0,13,-4,-2
61392147321,0,-1,-7,-3,-1,-8,-4,-4
61392148795,2,-1,3,-1,-2,-38,2,5
61392148795,0,-1,-4,-2,0,20,-1,-5
61392160938,-2,-2,-7,0,2,-10,0,-1
61392160938,-2,-4,-32,-11,-3,0,1,-2
61392169804,0,3,13,1,-2,-9,-2,-2
61392169804,-5,-2,14,-1,0,-1,-4,-5
61392184776,-3,-3,-8,1,-1,-25,-1,2
61392184776,-2,2,24,6,5,36,5,-2
61392186316,-1,-1,-2,-9,-3,-5,-5,-1
61392186316,1,1,-36,-8,0,-1,3,0
61392207212,0,-4,6,-2,2,22,-1,-2
61392207212,5,7,16,1,-3,1,0,3
61392208788,-1,-1,-8,1,-1,-3,1,0
61392208788,-1,-7,-3,0,-5,-32,1,-1
61392220826,-6,-4,0,-1,0,22,-4,-7
61392220826,2,-1,1,4,0,0,-2,4
61392229838,-2,-1,3,-2,-2,-14,-1,-2
61392229838,4,4,-22,-2,-2,4,-1,0
61392244708,-2,-3,4,-4,4,11,5,-1
61392244708,-4,-1,16,4,-1,-8,-7,-6
61392246323,-2,0,5,4,3,61,0,0
61392246323,-3,-5,-20,-10,-3,-8,2,-2
61392267261,-1,1,4,0,-2,2,5,1
61392267261,3,1,1,1,-1,10,1,1
61392268823,-3,-2,6,1,0,17,3,-2
61392268823,-1,2,13,5,0,1,-4,1
61392280821,0,-4,-23,-3,0,8,-3,0
61392280821,-6,-3,11,-2,0,6,0,-2
61392289821,0,1,0,1,-3,0,-1,-2
61392289821,5,-1,-1,-2,-2,-16,-1,2
61392304788,2,0,-3,-4,3,-12,4,2
61392304788,-2,-3,-13,-1,-4,-7,-4,2
61392306327,-2,-3,12,0,-6,-23,-7,-3
61392306327,-6,-5,-20,-9,-2,9,-1,-1
61392327259,-2,6,8,-1,-2,-10,-3,-2
61392327259,4,0,-2,5,4,4,1,3
61392328773,-1,-2,-3,-1,0,1,3,-5
61392328773,0,1,11,3,1,6,-2,0
61392340979,-3,-8,-14,-3,-3,2,-6,-5
61392340979,-4,-4,-10,-4,-1,4,-2,-3
61392349843,3,1,-5,0,-2,-13,1,3
61392349843,-7,-2,16,0,-1,12,-7,-4
61392364818,1,-1,-12,0,-2,-29,-6,0
61392364818,2,0,5,-3,-2,-10,3,1
61392366326,1,0,-4,-1,4,4,-2,1
61392366326,-1,1,-3,-1,-1,3,0,-4
61392387773,-1,-2,-7,2,0,1,-5,-3
61392387773,-6,-4,-13,-4,0,2,0,-1
61392393462,-1,-1,13,-1,0,-41,-5,0
61392393462,-3,1,-2,2,-2,21,5,-3
61392400762,5,0,15,4,-5,-40,-2,3
61392400762,2,6,17,1,2,15,0,-3
61392409818,-4,-10,-20,-8,-5,1,-1,-4
61392409818,0,4,12,2,1,-26,-3,1
61392424810,-2,-6,-9,4,3,25,2,-5
61392424810,1,0,-10,-4,-2,-3,1,1
61392426317,-2,-3,3,-3,-1,4,-6,-3
61392426317,-3,-1,-7,1,3,-4,5,1
61392447171,3,3,9,-4,-2,16,2,6
61392447171,-1,-4,-4,0,0,2,-2,1
61392449039,0,5,2,-2,-1,3,0,-4
61392449039,-1,-5,5,0,-2,25,0,2
61392469647,-2,-2,10,2,2,35,3,1
61392469647,-3,-2,8,4,-1,-1,-3,-1
61392471302,-3,4,6,3,-1,-19,-2,-3
61392471302,1,-3,-12,-3,-1,10,0,1
61392484672,2,3,10,-1,-4,-7,1,1
61392484672,0,-1,-4,-5,0,6,-1,-1
61392486323,-3,-3,-11,1,-3,3,1,-5
61392486323,3,0,3,1,0,-6,-4,4
61392507322,-3,0,-8,-1,-1,0,-2,-3
61392507322,-1,-4,-15,-3,-2,10,-1,-4
61392508760,0,-1,-16,-4,1,-8,-1,4
61392508760,-1,-2,16,3,0,4,0,-1
61392528857,1,2,-5,-1,-1,1,2,3
61392528857,-3,-5,-1,-4,-1,3,-3,-4
61392537324,-1,1,-12,-2,2,18,2,2
61392537324,1,-1,26,1,-2,13,-4,-2
61392544043,-2,-6,2,4,1,-23,0,-2
61392544043,-4,4,-30,-6,-3,24,-1,-4
61392550895,4,1,32,4,-3,1,1,6
61392550895,0,-1,-16,-5,2,0,2,-2
61392567195,-4,-3,-4,-4,-1,-7,-3,-8
61392567195,2,0,8,-3,-2,-12,-2,1
61392568803,1,-2,-12,-4,-5,-31,-1,-2
61392568803,3,2,-1,1,-1,-8,-1,3
61392589834,-1,-3,-10,-2,-2,14,0,-2
61392589834,-5,-5,5,-2,-3,-18,-5,-2
61392591321,-2,2,4,0,0,9,-3,-4
61392591321,-3,-3,-3,-2,-5,-28,0,-1
61392604797,2,-1,0,0,-1,-6,2,1
61392604797,2,0,-6,-3,0,-7,-3,-2
61392606327,-4,-3,0,-2,0,-18,1,0
61392606327,-2,1,-2,1,5,54,4,-3
61392627338,-1,2,1,-2,-7,-24,-3,3
61392627338,-1,-6,-2,5,0,-6,-1,-1
61392628774,0,-1,-27,-4,-1,6,-3,-2
61392628774,1,4,31,0,-2,-7,-1,-1
61392649926,-3,1,-5,-1,-1,8,-4,-3
61392649926,5,0,-8,0,-2,-19,3,4
61392651346,-2,0,6,-1,1,-4,-1,-3
61392651346,-1,0,-19,-3,-2,1,-3,-9
61392664163,-3,-1,-6,-5,0,9,-1,5
61392664163,2,1,20,3,0,20,4,1
61392670933,-3,-5,-11,-6,-6,-3,-2,-2
61392670933,-2,-3,0,1,-1,-5,-4,-2
61392687296,-3,2,-10,0,-1,-1,-7,-4
61392687296,0,0,6,-3,-1,-27,0,1
61392688790,-1,-1,-8,-3,2,20,1,-1
61392688790,0,-2,19,3,-2,-14,-6,0
61392709781,2,0,-2,-2,-1,-9,-1,-1
61392709781,-3,-3,-54,-7,-2,-3,0,0
61392711321,-3,1,58,6,-1,7,-4,-1
61392711321,1,-1,-15,-2,-2,-16,2,3
61392724071,-1,-6,-10,-1,3,5,-3,-2
61392724071,-3,-3,9,-3,-6,-68,-9,-6
61392730933,2,1,-12,-1,1,34,5,1
61392730933,-3,-2,-14,-1,3,9,3,0
61392747258,-1,0,10,-4,-4,11,-1,-2
61392747258,-4,-6,-14,-3,-2,13,-3,-1
61392748840,-2,-2,4,0,-1,-5,0,-4
61392748840,3,0,0,0,0,-11,0,2
61392769738,-3,0,-1,1,0,-27,-2,-3
61392769738,0,-2,8,-1,2,47,3,0
61392771320,-1,-6,-15,-2,1,-6,1,-2
61392771320,0,4,-53,1,0,-10,0,0
61392792160,-5,-2,42,-5,-2,14,1,-4
61392792160,3,5,13,6,-2,-14,-4,0
61392793766,0,1,1,-1,-1,16,-1,2
61392793766,0,-5,1,-4,-2,-6,0,-1
61392807290,-3,-4,-11,1,0,11,0,-1
61392807290,-3,0,12,2,-1,1,-4,-3
61392808774,1,2,5,2,-1,11,-1,1
61392808774,-4,-4,-3,-3,-1,-2,-3,-2
61392829769,1,2,-12,-1,0,12,4,-1
61392829769,-1,-5,20,-4,0,10,2,-2
61392831322,-1,4,-12,0,0,-14,-2,0
61392831322,-1,-2,6,-3,-3,1,0,-2
61392852342,-2,-3,-3,0,-3,-14,-5,-2
61392852342,-1,2,-6,-1,0,10,3,2
61392852943,-3,-2,-6,-2,-4,-29,-8,-1
61392852943,-1,1,11,-2,-4,-1,-2,-2
61392866570,0,0,-6,-1,0,6,-6,1
61392866570,-3,0,-2,1,1,-3,2,0
61392867352,0,-4,-5,-16,-2,2,-1,0
61392867352,-2,-1,13,11,1,2,1,-1
61392889167,-2,-3,-10,-1,-1,-13,1,-2
61392889167,-2,-1,4,2,1,-17,-1,-2
61392889754,4,0,-6,0,1,-1,6,2
61392889754,-1,-4,7,-5,-2,-1,-3,-2
61392911551,4,3,-3,-2,0,-13,-1,0
61392911551,0,-1,4,-2,-2,-7,-3,-3
61392912340,-2,-3,-3,2,0,-2,-1,-4
61392912340,-2,-3,-7,-3,-1,0,-3,-1
61392926586,0,-1,-1,3,-1,8,2,0
61392926586,3,4,1,-1,-2,14,0,0
61392927333,-2,-5,-2,1,0,13,0,0
61392927333,0,1,-1,-2,-1,-13,-5,-2
61392948973,-7,-3,-2,-5,-1,12,-4,-2
61392948973,-1,-3,-5,-1,-1,2,5,1
61392949730,-1,-1,2,2,0,5,2,0
61392949730,0,1,2,-2,-3,-1,-3,-2
61392971406,1,0,0,-2,-1,-5,0,-4
61392971406,-3,-3,-2,-2,-2,-10,-2,-3
61392972195,-2,-2,0,4,-1,-3,-6,0
61392972195,1,2,1,-3,-1,-6,-2,-1
61392986554,0,-2,-5,-1,-1,-12,-1,-1
61392986554,0,1,2,-1,1,15,-1,0
61392987307,-4,-3,2,-2,0,-14,-4,-5
61392987307,-2,-3,-4,-4,-1,2,-14,1
61393008971,0,-2,-1,0,-2,-3,3,2
61393008971,-4,-2,1,-1,1,5,11,-2
61393009797,-2,0,0,-1,-3,-32,-26,-3
61393009797,0,0,0,0,0,16,17,0
61393031559,-3,-2,-1,-1,-2,1,5,-3
61393031559,-3,0,-1,0,-1,-16,-27,-5
61393032370,3,-1,-1,0,-3,24,39,4
61393032370,-4,-1,-1,-2,0,11,27,-4
61393046531,1,0,0,-2,-2,-6,-36,-1
61393046531,0,-1,-2,-1,-1,3,-1,0
61393047370,4,2,-1,0,2,20,41,7
61393047370,-3,-3,0,-3,-3,-16,-25,-4
61393069488,-2,0,-1,0,0,2,20,1
61393069488,0,-1,0,-2,-3,-6,-22,2
61393070214,-4,-2,-2,-1,-2,-5,-18,-3
61393070214,-1,-1,-2,-2,0,2,15,0
61393091631,3,3,0,-1,2,8,12,0
61393091631,-1,-1,-3,-2,-3,6,-20,-5
61393092336,-1,-1,-1,-1,-1,1,3,-2
61393092336,-2,-3,-2,0,-1,0,-8,-1
61393106614,-5,-4,-2,-2,-2,-7,2,-3
61393106614,-2,0,0,0,1,7,19,2
61393107338,6,3,1,0,-3,13,-7,4
61393107338,1,-3,-4,-3,-1,-13,-25,-1
61393129101,-3,-1,-2,0,-4,-24,-9,-4
61393129101,3,0,-2,-2,0,9,39,2
61393129751,-9,-2,-2,-3,-4,-13,3,-3
61393129751,3,2,2,1,0,-5,-35,0
61393152259,3,2,0,0,0,2,6,8
61393152259,-2,-1,-1,0,0,0,12,-4
61393152938,-1,-1,-1,-1,-2,-18,-31,-6
61393152938,-1,0,-1,0,0,8,48,2
61393166629,-2,-3,-2,-4,2,27,-10,-3
61393166629,-1,-1,-1,0,-1,-9,-9,-4
61393167361,-5,-4,-3,-1,1,2,1,-1
61393167361,-1,-1,-2,0,-2,-7,-59,-2
61393189146,4,3,-1,0,1,-2,-16,-1
61393189146,0,2,1,2,-1,-7,2,5
61393189775,-3,-3,-3,-1,0,17,3,-3
61393189775,-1,-1,0,-2,-3,-23,4,-3
61393212300,-4,-3,-1,-1,0,17,24,0
61393212300,4,1,0,-2,-4,-8,-18,2
61393212967,-1,-1,-1,0,0,-6,-6,-1
61393212967,-2,0,-1,-2,-3,-1,5,-3
61393226547,1,-1,0,-1,-1,5,-16,-2
61393226547,-5,-4,-2,-2,0,-9,39,4
61393227197,-2,0,-1,1,2,-2,-24,-6
61393227197,-4,-2,-2,-1,-2,-4,1,0
61393249644,-3,-4,0,-2,-2,-1,-11,-4
61393249644,1,-2,-3,-1,0,6,-22,4
61393250515,10,5,1,0,-2,-5,16,8
61393250515,-4,-2,-2,-1,2,28,32,-5
61393272126,-6,-2,0,-1,-2,-16,0,-2
61393272126,-9,-4,0,-1,-2,-29,-48,-13
61393272903,2,-1,2,-2,3,31,11,2
61393272903,2,2,2,0,1,3,-11,2
61393286593,4,-1,0,2,0,-20,26,3
61393286593,-5,-2,-3,-2,-1,41,0,-5
61393287392,3,0,0,-3,-5,-9,7,-1
61393287392,2,0,0,-2,-3,2,-4,-3
61393308989,-3,-2,-3,0,-1,1,22,0
61393308989,-1,1,0,-1,1,-5,-2,0
61393309744,-6,-5,-3,-1,-1,-8,17,-8
61393309744,-1,-1,-2,-1,0,8,7,1
61393332350,7,2,2,-1,0,-2,-8,5
61393332350,-3,-3,-3,-3,-4,0,56,-6
61393333005,-7,-4,-2,-1,-1,2,-44,-10
61393333005,-1,0,0,-1,-3,-23,-81,-1
61393346593,1,1,-1,-1,1,8,-5,2
61393346593,-1,0,-1,0,2,-1,14,-2
61393347231,-3,-1,-1,0,-1,1,17,2
61393347231,-5,-6,-5,-2,-1,-6,66,2
61393368970,0,1,-2,-4,-4,-11,-46,-6
61393368970,1,-1,-1,3,1,-16,-22,3
61393369706,1,1,1,-1,-2,15,44,4
61393369706,-2,-2,0,0,1,9,-40,1
61393392191,-7,-3,-2,-2,-4,-28,4,-7
61393392191,-2,-1,-3,-1,-2,9,42,0
61393392993,-3,-2,-2,-2,2,1,-20,1
61393392993,7,2,1,0,-2,-1,46,2
61393414818,2,1,0,1,4,14,-40,-1
61393414818,-2,-3,-4,-4,-6,-3,-7,-3
61393415501,0,-1,0,0,0,-10,5,4
61393415501,-3,-1,-2,-1,-1,9,6,-4
61393428993,-3,-1,-2,-2,-2,-1,38,-3
61393428993,1,0,3,-1,-3,-9,-109,-11
61393429768,-3,-4,-2,0,-4,-15,1,-4
61393429768,-1,-1,-1,-5,0,-6,-2,2
61393452167,-3,0,0,1,0,6,9,-4
61393452167,6,-2,-3,-3,0,1,65,12
61393452940,-4,1,0,-1,1,15,-6,-7
61393452940,3,0,1,0,-3,-22,-39,-1
61393466473,-1,-1,0,1,-1,-3,-5,7
61393466473,1,3,0,-1,0,15,12,-4
61393467288,0,-1,-1,-1,0,-8,19,-1
61393467288,-4,-2,-2,0,-3,-6,-67,-10
61393488933,-3,-3,-4,-2,-1,8,6,1
61393488933,-3,0,0,1,2,6,29,7
61393489815,1,0,-1,-2,-1,-4,-22,0
61393489815,-1,0,0,-1,0,7,-1,0
61393512301,2,-1,-3,-7,-5,-37,10,1
61393512301,-7,-4,1,11,0,-2,-13,-6
61393512935,0,0,2,4,-1,-3,39,0
61393512935,1,-3,2,0,-1,9,39,0
61393526616,-2,-4,-2,-1,-1,-3,-72,-11
61393526616,4,2,-2,-8,-1,2,-19,7
61393527333,-3,-4,-2,-6,-6,-22,16,-1
61393527333,-4,-3,-2,5,1,5,7,-5
61393548930,4,4,0,0,0,17,35,8
61393548930,1,-2,-1,-4,0,-5,-27,-5
61393549730,-1,0,0,1,-4,1,-42,-1
61393549730,0,0,-3,-3,-3,-29,31,1
61393572171,-5,-4,-1,1,0,20,40,-4
61393572171,-4,0,0,-3,-3,-1,-71,-9
61393572927,2,-1,-2,1,1,3,4,8
61393572927,0,1,0,-3,-1,5,33,6
61393586409,-1,0,-2,0,0,3,0,1
61393586409,-1,-1,-1,3,0,-14,13,-4
61393587209,-1,3,-3,-9,-4,-6,-65,-8
61393587209,-2,-1,2,12,3,9,25,1
61393609023,-2,-5,-1,3,1,1,-23,-4
61393609023,0,1,0,-1,-2,4,23,1
61393609771,-2,-3,-1,0,1,-7,-68,-5
61393609771,-4,-4,-7,-8,-5,9,40,6
61393632248,0,5,2,-2,-2,0,14,-1
61393632248,1,2,3,4,0,-10,11,0
61393632937,3,0,-6,-4,-1,5,22,4
61393632937,0,1,-2,-2,1,-10,-38,-4
61393646582,-3,-5,-3,-3,-1,6,-1,-3
61393646582,-2,-2,-2,-4,-2,0,-15,1
61393647331,-1,2,1,2,1,2,41,2
61393647331,-3,0,-1,-2,1,3,-33,-5
61393669143,1,0,0,0,-2,-1,17,3
61393669143,3,-2,-3,-4,1,-3,7,1
61393669756,-1,-1,-1,0,0,1,2,1
61393669756,-2,-3,-2,-1,-1,-1,11,-3
61393692212,-5,-1,-1,-4,-3,-2,-22,-2
61393692212,-1,0,0,-2,-1,3,11,0
61393692923,-1,-5,-2,-1,-1,-4,8,0
61393692923,-1,-1,0,-2,0,3,1,1
61393714774,0,0,-2,-1,-1,1,5,2
61393714774,0,-2,0,-1,-1,0,3,0
61393715388,-1,0,0,1,0,-4,-8,-4
61393715388,0,2,0,-1,-1,2,3,-3
61393729087,-1,-2,-1,2,0,2,11,0
61393729087,-4,-4,-2,-3,-3,-8,-36,-3
61393729764,0,-1,0,0,-1,-3,-12,-1
61393729764,0,-1,-2,-2,1,-1,-4,1
61393752341,-1,0,-1,-2,-1,-2,20,-1
61393752341,-3,-1,-3,-2,-1,-4,-12,-1
61393752962,-1,-1,-1,-1,0,-1,6,-1
61393752962,1,-2,-1,-2,-3,0,-6,2
61393766586,0,0,-1,-1,-1,-1,-3,-1
61393766586,-1,-1,-2,-3,2,1,13,0
61393767230,-1,-2,0,-1,-1,0,7,-1
61393767230,0,0,-1,-1,0,-4,-24,-3
61393789174,-1,0,-1,-2,-1,0,-11,-3
61393789174,-3,-2,-2,-2,-4,-2,8,-3
61393789733,-1,-1,-1,-2,0,-6,0,-1
61393789733,-1,2,-1,-2,-2,4,29,-2
61393812230,1,2,1,0,0,2,-9,2
61393812230,-1,0,0,0,-2,3,27,1
61393812934,-2,-1,-1,-2,-3,-3,4,1
61393812934,-1,-1,-1,0,-2,-1,0,-1
61393826591,-1,-2,0,-1,0,-2,-8,-2
61393826591,1,0,0,0,0,0,29,2
61393827341,-2,-3,-2,-2,-1,-4,-38,-3
61393827341,-1,0,-1,-2,1,3,0,-1
61393849197,0,-1,-2,-2,-1,-2,2,-1
61393849197,0,-2,-2,-3,-2,0,-8,-2
61393849760,-1,-1,-1,-2,0,0,5,-2
61393849760,-2,-2,0,-2,-3,11,-6,1
61393871987,-3,-1,-3,-1,0,-15,-6,-1
61393871987,-1,0,0,1,0,3,-3,-2
61393872666,-1,0,-1,1,-1,1,1,0
61393872666,1,-2,-2,-1,1,0,3,-1
61393886588,0,-2,-1,-2,1,2,0,-1
61393886588,-2,0,0,0,-1,-3,-8,-2
61393887337,-2,0,0,0,0,3,9,0
61393887337,-1,-1,0,0,0,-5,-3,-1
61393909004,-2,-3,0,0,-2,-5,-2,0
61393909004,1,-3,-1,-1,-1,3,-6,0
61393909756,1,-1,-1,0,-3,-2,1,-2
61393909756,-1,0,-2,-1,1,-3,0,1
61393932410,0,-1,-3,-2,-2,3,5,-2
61393932410,-3,1,0,-2,-1,-4,-24,-2
61393932934,-1,-2,-1,-2,0,3,8,-1
61393932934,-1,-1,-1,-1,-1,-4,-3,0
61393946476,-1,-2,-1,0,-1,3,5,0
61393946476,-1,1,-1,-1,0,-4,3,-1
61393947240,-1,-1,-1,-3,-1,-1,0,0
61393947240,-1,-1,1,-2,-1,-5,-4,-2
61393969086,2,-1,1,-1,-2,-1,-3,-1
61393969086,1,-1,-1,-2,-1,-3,-1,1
61393969740,-1,-1,-1,-2,0,-1,0,0
61393969740,-1,-1,-2,-1,-2,-12,2,-1
61393992233,-2,1,1,-2,1,12,1,0
61393992233,-2,0,-1,-1,0,-2,-1,1
61393992914,-1,-2,-1,-1,0,1,4,-2
61393992914,-2,-2,-1,-2,-1,-4,-2,-1
61394014773,0,-1,-3,-1,-2,-5,-7,-2
61394014773,0,-1,0,-2,-2,-4,0,-2
61394015478,-2,-1,0,0,1,6,-4,0
61394015478,0,0,-1,-2,-3,1,0,0
61394037258,-1,-2,-1,-1,0,-2,-3,-1
61394037258,-1,-2,0,-2,0,2,5,-1
61394037934,0,-1,-1,0,-2,-5,1,-1
61394037934,0,-1,0,-1,0,1,-2,0
61394052158,0,0,0,-1,-1,0,0,0
61394052158,0,0,-1,-1,-2,-2,0,-1
61394052957,-2,0,-2,0,-2,-3,-7,-2
61394052957,-2,-1,-3,-1,-1,-1,7,0
61394065890,-2,-1,0,-1,-2,-6,-5,-2
61394065890,-1,0,0,-2,0,0,1,-3
61394074083,0,1,-3,-1,-1,0,-1,0
61394074083,0,-1,0,1,0,3,1,-1
61394089039,1,1,-2,-1,-1,-2,-2,-2
61394089039,-1,-1,-3,-2,-1,0,0,-1
61394089791,-1,-1,1,0,0,-1,0,-1
61394089791,-2,0,1,-2,-1,0,-3,-1
61394112237,-1,-1,-1,-1,0,-2,-1,0
61394112237,-1,0,-1,0,-1,0,-2,0
61394112972,-2,0,1,0,-2,-3,-2,1
61394112972,-1,-1,-3,-1,-1,-2,-2,-2
61394125808,-1,-1,1,-1,-1,-2,-1,-2
61394125808,-1,-1,-2,1,0,5,1,-1
61394134156,-2,-3,-1,-3,-1,-2,-1,-3
61394134156,-2,-1,-2,0,-1,0,-1,0
61394149737,-1,0,-1,-1,-2,-6,-3,2
61394149737,-3,0,-1,0,-1,0,1,-4
61394150420,-1,0,-2,-1,-1,0,-1,-1
61394150420,-1,-1,-1,-2,0,0,0,0
61394172211,0,0,-2,1,-1,-4,-1,-3
61394172211,0,-1,-1,-1,0,-3,0,1
61394172893,-1,-2,0,0,0,-1,-2,-2
61394172893,-1,-2,-1,-1,-2,-1,-3,-2
61394185911,-1,-1,-1,-1,0,3,-1,2
61394185911,-2,-1,-1,-1,-1,-1,-1,-1
61394193951,-2,-1,-3,0,-1,-1,0,0
61394193951,0,-1,1,-1,0,-1,-1,-1
61394209680,-1,0,0,-2,0,1,0,-1
61394209680,-2,-3,0,-1,-2,-2,-1,-1
61394210453,1,1,0,-1,-1,-5,-1,0
61394210453,-2,-3,-1,0,-2,-2,-2,-3
61394232085,-2,-1,-2,-1,-1,0,0,-2
61394232085,0,-1,-2,0,-2,-4,-1,-1
61394232972,-2,0,-2,-2,-2,-1,1,-1
61394232972,-2,-1,0,-1,0,-3,-2,-2
61394245971,-2,-3,0,1,-1,1,-1,-3
61394245971,0,1,-1,0,-1,-2,-2,-2
61394254059,0,-2,-2,0,-1,-1,-2,0
61394254059,-1,-1,-2,0,-1,1,-1,1
61394269781,-2,-1,-1,0,1,-4,-4,1
61394269781,-1,0,-1,-1,0,3,2,-1
61394270462,-2,-1,0,-2,-1,-2,1,-2
61394270462,-2,1,0,0,-1,-1,1,-1
61394292263,-1,-1,-1,-1,-2,2,2,-2
61394292263,0,-2,-2,0,-1,-3,-1,-2
61394292969,-2,-1,-1,-1,-1,-1,-1,-1
61394292969,1,0,-3,0,0,1,-2,0
61394305810,0,0,-1,-1,-2,-2,-3,0
61394305810,-2,0,0,-2,0,-2,-1,1
61394314125,0,-1,0,-1,-1,1,0,-1
61394314125,-1,-1,0,1,-1,-2,-2,-3
61394329733,0,-1,0,0,0,1,-1,-1
61394329733,1,0,-2,0,-2,-2,-2,-1
61394330408,-1,-2,-1,-1,-1,-5,-3,-1
61394330408,0,1,-1,-1,1,5,-2,0
61394352243,-1,-1,-3,-2,-1,0,-1,0
61394352243,-2,-2,0,-1,-2,2,1,0
61394352965,-1,-2,-1,0,-2,-2,-1,0
61394352965,0,-1,0,-2,0,-4,0,0
61394374735,-3,-1,-1,-1,-2,1,0,-3
61394374735,0,-4,-2,0,0,-1,-4,-1
61394375429,-1,0,-2,-1,-2,0,-1,-3
61394375429,0,-2,-1,-2,-1,-2,1,-1
61394388497,-2,-1,-2,-1,0,-1,1,-2
61394388497,-1,-1,-1,-1,0,-2,-3,0
61394397320,-2,-1,1,1,-1,0,0,-2
61394397320,0,0,-1,0,0,2,1,-1
61394412286,1,-1,-1,1,-1,-3,0,2
61394412286,-2,-2,-3,-1,-2,0,1,-2
61394413777,-1,-2,-1,-1,0,2,-1,1
61394413777,-3,-1,-1,-1,0,-2,-2,-2
61394434737,0,-1,0,-1,0,0,-1,-2
61394434737,-2,0,0,-2,-2,0,-3,-1
61394436334,1,-1,-4,-2,0,0,-1,0
61394436334,-1,-1,-1,-2,-2,-3,1,-1
61394457559,-1,-1,-1,-2,0,1,-3,-1
61394457559,-2,0,-3,-2,-1,-2,1,-3
61394463432,-1,-2,0,-1,0,-2,-2,-3
61394463432,-2,-3,0,0,-2,-2,-3,1
61394471970,-4,-1,-2,-1,0,-1,-1,0
61394471970,0,-1,0,-1,-1,-2,1,1
61394478478,-1,0,-1,1,0,1,0,-2
61394478478,0,-1,0,-1,-2,-1,3,-1
61394494798,-1,-1,0,-1,-1,-1,-1,0
61394494798,0,-1,-1,-1,1,-4,-3,-1
61394496321,0,-1,-2,-2,-1,4,-1,0
61394496321,0,-1,-2,0,-1,-3,-1,-2
61394509057,0,-1,-1,-2,-1,0,0,-2
61394509057,0,-1,-1,1,-2,-3,-1,-1
61394515940,0,-2,-1,-1,0,-2,-2,0
61394515940,-1,0,-1,0,0,-3,-1,-1
61394532316,-1,-1,-1,-1,0,-4,-2,-3
61394532316,-1,-1,-2,0,0,-1,0,1
61394533778,-1,-2,0,-2,0,-1,0,1
61394533778,-1,-1,-2,-1,-1,-1,-3,-1
61394554841,-1,0,-2,0,0,-1,-2,0
61394554841,-2,-1,-1,-1,0,-2,-2,-1
61394556220,-2,-1,1,-1,0,-2,0,0
61394556220,-1,-2,0,-2,-1,0,-1,-2
61394569070,-1,-1,0,-2,-1,-1,1,1
61394569070,-1,-2,-1,-2,-2,2,0,-1
61394575934,-1,-1,0,-1,-1,-2,-1,-1
61394575934,-2,0,-2,-1,0,0,0,-1
61394592059,0,-2,-2,1,-3,-2,-2,-1
61394592059,0,-1,-2,-1,0,-1,-1,0
61394598454,0,-1,-1,0,-1,-2,-3,-2
61394598454,-2,-1,0,-1,-1,-1,-2,-1
61394614855,-1,0,-2,0,-1,0,0,1
61394614855,-1,0,0,1,0,-4,1,-1
61394616316,0,0,1,0,-2,5,-1,-2
61394616316,0,-1,-3,-1,-2,-4,-3,-1
61394629085,-2,-2,-3,-1,0,10,0,-1
61394629085,-2,-2,-2,0,-1,-2,-1,0
