61731777642,-0.67578125,0.700256347656,-0.103759765625,-0.20556640625
61731801428,-0.675170898438,0.700256347656,-0.1044921875,-0.20703125
61731816500,-0.674865722656,0.699951171875,-0.10546875,-0.208801269531
61731837688,-0.674682617188,0.69970703125,-0.105834960938,-0.209716796875
61731861490,-0.673461914062,0.698303222656,-0.109191894531,-0.216613769531
61731876491,-0.672058105469,0.696960449219,-0.113220214844,-0.223266601562
61731905728,-0.671875,0.696899414062,-0.114318847656,-0.223266601562
61731921441,-0.673400878906,0.6982421875,-0.111145019531,-0.216125488281
61731968452,-0.674926757812,0.699523925781,-0.106994628906,-0.209045410156
61731970566,-0.674987792969,0.699462890625,-0.106811523438,-0.209106445312
61731982127,-0.674682617188,0.699157714844,-0.107604980469,-0.210876464844
61731996443,-0.675659179688,0.699157714844,-0.105834960938,-0.208557128906
61732018363,-0.676025390625,0.698913574219,-0.105346679688,-0.208251953125
61732070682,-0.676086425781,0.698913574219,-0.105285644531,-0.208190917969
61732071470,-0.676086425781,0.698913574219,-0.105285644531,-0.208190917969
61732081612,-0.676147460938,0.698852539062,-0.105346679688,-0.208129882812
61732100679,-0.67626953125,0.698974609375,-0.105041503906,-0.207641601562
61732115035,-0.676635742188,0.699768066406,-0.103698730469,-0.204406738281
61732137395,-0.67626953125,0.699401855469,-0.104736328125,-0.206298828125
61732169456,-0.674743652344,0.697998046875,-0.108947753906,-0.213684082031
61732175008,-0.674560546875,0.697937011719,-0.109436035156,-0.214233398438
61732197443,-0.675598144531,0.698913574219,-0.107177734375,-0.208740234375
61732220048,-0.677185058594,0.700378417969,-0.102844238281,-0.200866699219
61732235066,-0.677307128906,0.700378417969,-0.102416992188,-0.200500488281
61732257534,-0.677062988281,0.700073242188,-0.103149414062,-0.2021484375
61732279984,-0.676696777344,0.699768066406,-0.104125976562,-0.203857421875
61732294982,-0.67578125,0.699279785156,-0.106750488281,-0.207153320312
61732317549,-0.67626953125,0.699157714844,-0.105895996094,-0.20654296875
61732339932,-0.67626953125,0.699096679688,-0.105590820312,-0.206726074219
61732354959,-0.676452636719,0.698791503906,-0.105102539062,-0.207580566406
61732377562,-0.676696777344,0.6982421875,-0.104187011719,-0.209106445312
61732399985,-0.67724609375,0.697448730469,-0.10302734375,-0.210632324219
61732415080,-0.678161621094,0.696411132812,-0.10107421875,-0.211975097656
61732445069,-0.679504394531,0.695251464844,-0.0985717773438,-0.212524414062
61732460003,-0.681274414062,0.694091796875,-0.0962524414062,-0.211669921875
61732474889,-0.683532714844,0.692810058594,-0.0935668945312,-0.210083007812
61732497500,-0.687072753906,0.690979003906,-0.0911254882812,-0.205505371094
61732520035,-0.691833496094,0.688842773438,-0.0867919921875,-0.198303222656
61732543884,-0.697814941406,0.686645507812,-0.0800170898438,-0.187561035156
61732557509,-0.705505371094,0.683654785156,-0.0702514648438,-0.173095703125
61732580034,-0.714660644531,0.679321289062,-0.058837890625,-0.155944824219
61732594935,-0.723876953125,0.674621582031,-0.041748046875,-0.138610839844
61732617413,-0.733337402344,0.669067382812,-0.0202026367188,-0.118896484375
61732640039,-0.743469238281,0.662048339844,0.0037841796875,-0.0945434570312
61732655111,-0.754577636719,0.652587890625,0.0277709960938,-0.06298828125
61732677559,-0.765502929688,0.640747070312,0.05224609375,-0.0267944335938
61732700102,-0.7744140625,0.627624511719,0.0791625976562,0.00933837890625
61732715002,-0.780822753906,0.613891601562,0.105895996094,0.0474243164062
61732744886,-0.784912109375,0.598815917969,0.131591796875,0.0897827148438
61732760023,-0.786315917969,0.58251953125,0.15625,0.134033203125
61732774906,-0.784301757812,0.566650390625,0.179077148438,0.177978515625
61732797552,-0.779174804688,0.551818847656,0.200561523438,0.219421386719
61732819873,-0.771484375,0.539001464844,0.219177246094,0.257385253906
61732834863,-0.762634277344,0.527526855469,0.236389160156,0.290161132812
61732857545,-0.753601074219,0.516723632812,0.251647949219,0.319030761719
61732880016,-0.7451171875,0.505859375,0.264892578125,0.344482421875
61732895056,-0.737243652344,0.495788574219,0.276489257812,0.366333007812
61732933911,-0.730407714844,0.48779296875,0.284606933594,0.384094238281
61732940073,-0.727294921875,0.481506347656,0.289428710938,0.394226074219
61732956415,-0.725463867188,0.475952148438,0.292297363281,0.402099609375
61732977418,-0.7236328125,0.471252441406,0.292358398438,0.410827636719
61733003791,-0.72119140625,0.467590332031,0.291381835938,0.419921875
61733016393,-0.717834472656,0.465942382812,0.290222167969,0.428161621094
61733037450,-0.713500976562,0.466491699219,0.289794921875,0.43505859375
61733060703,-0.707580566406,0.469543457031,0.291076660156,0.440551757812
61733077040,-0.699768066406,0.47509765625,0.294372558594,0.44482421875
61733099564,-0.689697265625,0.483276367188,0.300354003906,0.44775390625
61733120706,-0.67724609375,0.493469238281,0.30908203125,0.44970703125
61733137038,-0.662353515625,0.505310058594,0.320556640625,0.45068359375
61733159510,-0.646606445312,0.518676757812,0.332824707031,0.449523925781
61733180728,-0.63037109375,0.533081054688,0.345092773438,0.446411132812
61733197051,-0.614196777344,0.547973632812,0.356018066406,0.4423828125
61733219502,-0.598999023438,0.562927246094,0.364807128906,0.437255859375
61733240660,-0.585998535156,0.577087402344,0.371398925781,0.430908203125
61733257089,-0.574645996094,0.590393066406,0.377075195312,0.423034667969
61733279539,-0.567077636719,0.601806640625,0.379943847656,0.41455078125
61733300557,-0.563659667969,0.610595703125,0.380981445312,0.4052734375
61733316974,-0.56494140625,0.616638183594,0.3798828125,0.395263671875
61733339519,-0.570983886719,0.619262695312,0.376342773438,0.385681152344
61733360655,-0.581176757812,0.617431640625,0.37158203125,0.378112792969
61733377027,-0.594482421875,0.611694335938,0.365539550781,0.372497558594
61733399484,-0.611022949219,0.602722167969,0.358642578125,0.366943359375
61733420681,-0.63037109375,0.590454101562,0.350646972656,0.361877441406
61733437031,-0.650451660156,0.576293945312,0.342468261719,0.357055664062
61733459515,-0.669860839844,0.5615234375,0.334228515625,0.352478027344
61733480667,-0.687316894531,0.547607421875,0.326171875,0.348327636719
61733497085,-0.702453613281,0.535461425781,0.317077636719,0.345458984375
61733519515,-0.713500976562,0.526916503906,0.308776855469,0.343322753906
61733540766,-0.719848632812,0.522583007812,0.302368164062,0.342407226562
61733557014,-0.721496582031,0.522705078125,0.298583984375,0.342224121094
61733580022,-0.719055175781,0.527404785156,0.296691894531,0.341735839844
61733602015,-0.713317871094,0.536010742188,0.297058105469,0.340026855469
61733617064,-0.704895019531,0.547668457031,0.298828125,0.33740234375
61733639541,-0.693481445312,0.56201171875,0.302551269531,0.334167480469
61733660600,-0.68017578125,0.578247070312,0.305847167969,0.330749511719
61733676343,-0.665588378906,0.595153808594,0.308410644531,0.328002929688
61733699498,-0.650817871094,0.611755371094,0.31005859375,0.325561523438
61733720627,-0.63671875,0.627868652344,0.310791015625,0.322143554688
61733736342,-0.623474121094,0.642761230469,0.310791015625,0.318542480469
61733759566,-0.610778808594,0.656311035156,0.310852050781,0.315490722656
61733780654,-0.599609375,0.667846679688,0.310668945312,0.312866210938
61733796389,-0.590576171875,0.677124023438,0.310363769531,0.310363769531
61733819498,-0.584167480469,0.68359375,0.310302734375,0.308410644531
61733840573,-0.580444335938,0.687561035156,0.310424804688,0.306518554688
61733856420,-0.579162597656,0.689636230469,0.310302734375,0.304321289062
61733879535,-0.579833984375,0.690551757812,0.3095703125,0.301818847656
61733901999,-0.581848144531,0.690551757812,0.308471679688,0.299011230469
61733916341,-0.585144042969,0.690002441406,0.306884765625,0.29541015625
61733939532,-0.58935546875,0.689514160156,0.304931640625,0.290222167969
61733962001,-0.594299316406,0.689453125,0.302368164062,0.282775878906
61733976311,-0.599792480469,0.6904296875,0.298889160156,0.272399902344
61733999446,-0.606689453125,0.691833496094,0.293579101562,0.259033203125
61734021991,-0.615539550781,0.693054199219,0.286315917969,0.242431640625
61734043203,-0.626403808594,0.693542480469,0.276977539062,0.223327636719
61734059515,-0.638671875,0.693969726562,0.265014648438,0.200500488281
61734082042,-0.651733398438,0.694274902344,0.250427246094,0.174560546875
61734103238,-0.664428710938,0.694946289062,0.233215332031,0.145629882812
61734119547,-0.676086425781,0.696044921875,0.212890625,0.114074707031
61734141989,-0.686889648438,0.697021484375,0.189392089844,0.0802001953125
61734163209,-0.696472167969,0.697143554688,0.163940429688,0.045166015625
61734179534,-0.70361328125,0.697082519531,0.137268066406,0.0106811523438
61734202001,-0.708129882812,0.697265625,0.109191894531,-0.020751953125
61734223109,-0.7109375,0.697021484375,0.079345703125,-0.0492553710938
61734239534,-0.712097167969,0.69580078125,0.050537109375,-0.0787963867188
61734262002,-0.711120605469,0.694274902344,0.0233154296875,-0.108276367188
61734283161,-0.708557128906,0.692810058594,-0.0025634765625,-0.133911132812
61734299471,-0.705688476562,0.690856933594,-0.026123046875,-0.155212402344
61734322016,-0.702819824219,0.688110351562,-0.0462036132812,-0.174621582031
61734342998,-0.700012207031,0.6845703125,-0.0643920898438,-0.192932128906
61734359469,-0.698303222656,0.679504394531,-0.0819702148438,-0.209655761719
61734382044,-0.697021484375,0.673278808594,-0.0992431640625,-0.225830078125
61734403217,-0.69775390625,0.667175292969,-0.114379882812,-0.234436035156
61734419534,-0.703857421875,0.667236328125,-0.118225097656,-0.213134765625
61734441956,-0.706848144531,0.670349121094,-0.108642578125,-0.197937011719
61734463055,-0.706359863281,0.671936035156,-0.1005859375,-0.198608398438
61734479623,-0.70458984375,0.671691894531,-0.0938110351562,-0.208862304688
61734502014,-0.703186035156,0.669738769531,-0.0919189453125,-0.220458984375
61734523139,-0.702392578125,0.667541503906,-0.0977172851562,-0.226989746094
61734539453,-0.703063964844,0.664855957031,-0.109497070312,-0.227478027344
61734562038,-0.705993652344,0.661376953125,-0.123291015625,-0.22119140625
61734583173,-0.710083007812,0.658081054688,-0.136047363281,-0.210266113281
61734598908,-0.713684082031,0.655395507812,-0.142639160156,-0.202026367188
61734621987,-0.715698242188,0.653442382812,-0.144287109375,-0.199890136719
61734643209,-0.716003417969,0.652465820312,-0.142822265625,-0.203247070312
61734665652,-0.714721679688,0.652770996094,-0.139221191406,-0.209167480469
61734682014,-0.712646484375,0.654113769531,-0.134948730469,-0.214660644531
61734703165,-0.710754394531,0.655822753906,-0.131164550781,-0.217956542969
61734718824,-0.709533691406,0.657409667969,-0.128356933594,-0.218994140625
61734741970,-0.708740234375,0.658630371094,-0.126647949219,-0.218811035156
61734764495,-0.708129882812,0.659545898438,-0.125854492188,-0.218383789062
61734778910,-0.707641601562,0.660339355469,-0.12548828125,-0.217834472656
61734802009,-0.707397460938,0.660949707031,-0.125061035156,-0.217041015625
61734824693,-0.707275390625,0.661560058594,-0.124389648438,-0.216125488281
61734839540,-0.706970214844,0.662170410156,-0.123291015625,-0.215698242188
61734861959,-0.70654296875,0.662902832031,-0.122131347656,-0.215637207031
61734884506,-0.705993652344,0.66357421875,-0.121154785156,-0.215698242188
61734899514,-0.705627441406,0.664123535156,-0.120422363281,-0.215637207031
61734922010,-0.705383300781,0.664611816406,-0.119689941406,-0.215454101562
61734944505,-0.705139160156,0.6650390625,-0.119140625,-0.21533203125
61734958891,-0.704833984375,0.665466308594,-0.118713378906,-0.215148925781
61734982015,-0.70458984375,0.665832519531,-0.118591308594,-0.214782714844
61735004433,-0.704406738281,0.666198730469,-0.11865234375,-0.214294433594
61735018832,-0.704284667969,0.66650390625,-0.118530273438,-0.2138671875
61735042006,-0.704162597656,0.666748046875,-0.118347167969,-0.213562011719
61735064491,-0.703979492188,0.6669921875,-0.117919921875,-0.213745117188
61735078771,-0.703796386719,0.667175292969,-0.117370605469,-0.213989257812
61735102009,-0.70361328125,0.667419433594,-0.116882324219,-0.214111328125
61735124515,-0.703552246094,0.667602539062,-0.116577148438,-0.214050292969
61735138863,-0.703552246094,0.667602539062,-0.116577148438,-0.213989257812
61735161991,-0.703552246094,0.667602539062,-0.116455078125,-0.213928222656
61735184513,-0.70361328125,0.667602539062,-0.116394042969,-0.2138671875
61735198835,-0.70361328125,0.667602539062,-0.116333007812,-0.2138671875
61735221954,-0.70361328125,0.667724609375,-0.11572265625,-0.213806152344
61735244506,-0.703552246094,0.667846679688,-0.115112304688,-0.213806152344
61735258823,-0.703552246094,0.668029785156,-0.114624023438,-0.213745117188
