61440145271,-0.708129882812,0.664855957031,-0.0894775390625,-0.220397949219
61440160240,-0.708068847656,0.664916992188,-0.0892333984375,-0.220458984375
61440184059,-0.7080078125,0.664794921875,-0.0892333984375,-0.220825195312
61440205421,-0.70703125,0.6640625,-0.0916748046875,-0.22509765625
61440220321,-0.70751953125,0.664367675781,-0.0904541015625,-0.223266601562
61440244012,-0.707946777344,0.664672851562,-0.0894165039062,-0.221618652344
61440266374,-0.7080078125,0.664672851562,-0.0891723632812,-0.221435546875
61440281539,-0.707641601562,0.664367675781,-0.0899658203125,-0.223022460938
61440302893,-0.707275390625,0.664123535156,-0.0910034179688,-0.224731445312
61440358513,-0.707214355469,0.664123535156,-0.0911254882812,-0.224670410156
61440360611,-0.708862304688,0.665283203125,-0.0874633789062,-0.217468261719
61440365659,-0.709228515625,0.66552734375,-0.0864868164062,-0.215942382812
61440386275,-0.709411621094,0.665588378906,-0.0858764648438,-0.21533203125
61440404108,-0.708923339844,0.665710449219,-0.0867309570312,-0.21630859375
61440433516,-0.708923339844,0.665710449219,-0.0867309570312,-0.21630859375
61440460138,-0.708923339844,0.665710449219,-0.0867309570312,-0.21630859375
61440470236,-0.708923339844,0.665649414062,-0.0867309570312,-0.216369628906
61440483987,-0.708923339844,0.665649414062,-0.0867309570312,-0.216369628906
61440505142,-0.708862304688,0.665893554688,-0.0867919921875,-0.2158203125
61440520652,-0.709838867188,0.666076660156,-0.084716796875,-0.212829589844
61440544623,-0.710083007812,0.666198730469,-0.083984375,-0.2119140625
61440565681,-0.710021972656,0.666137695312,-0.0841064453125,-0.21240234375
61440582110,-0.709594726562,0.665832519531,-0.0851440429688,-0.21435546875
61440604691,-0.708374023438,0.6650390625,-0.0885009765625,-0.219360351562
61440625862,-0.709106445312,0.665588378906,-0.0870971679688,-0.215759277344
61440642192,-0.709533691406,0.665893554688,-0.0859985351562,-0.2138671875
61440664613,-0.709655761719,0.665954589844,-0.0856323242188,-0.213439941406
61440679039,-0.708251953125,0.664794921875,-0.0890502929688,-0.220092773438
61440702159,-0.707824707031,0.6650390625,-0.0894775390625,-0.220764160156
61440724665,-0.708068847656,0.664916992188,-0.0894165039062,-0.220397949219
61440738961,-0.708129882812,0.664794921875,-0.0895385742188,-0.220336914062
61440762162,-0.708190917969,0.664733886719,-0.0896606445312,-0.220275878906
61440784604,-0.708251953125,0.664672851562,-0.0897216796875,-0.220336914062
61440798988,-0.708251953125,0.664672851562,-0.0897827148438,-0.220458984375
61440822144,-0.708251953125,0.664611816406,-0.0899047851562,-0.220581054688
61440844668,-0.708312988281,0.664489746094,-0.0902099609375,-0.220520019531
61440858973,-0.708435058594,0.664367675781,-0.090576171875,-0.220336914062
61440882143,-0.708557128906,0.664245605469,-0.0908813476562,-0.220275878906
61440912101,-0.708618164062,0.664123535156,-0.091064453125,-0.220336914062
61440927140,-0.708618164062,0.6640625,-0.0912475585938,-0.220520019531
61440942159,-0.708557128906,0.664001464844,-0.0914306640625,-0.220703125
61440964631,-0.708557128906,0.663940429688,-0.0916748046875,-0.220764160156
61440985814,-0.708618164062,0.663818359375,-0.0919189453125,-0.220825195312
61441002125,-0.708679199219,0.663757324219,-0.0922241210938,-0.220825195312
61441024611,-0.708740234375,0.66357421875,-0.0925903320312,-0.221008300781
61441045922,-0.708740234375,0.663452148438,-0.0928955078125,-0.221130371094
61441062139,-0.708801269531,0.663330078125,-0.0932006835938,-0.221252441406
61441084643,-0.708862304688,0.663146972656,-0.0936279296875,-0.221374511719
61441105772,-0.708923339844,0.663024902344,-0.093994140625,-0.221374511719
61441122078,-0.708984375,0.662902832031,-0.0941162109375,-0.221496582031
61441144605,-0.708984375,0.662902832031,-0.0941162109375,-0.221496582031
61441165780,-0.709045410156,0.662780761719,-0.0943603515625,-0.221557617188
61441182116,-0.709167480469,0.662658691406,-0.0943603515625,-0.2216796875
61441204661,-0.709167480469,0.66259765625,-0.0942993164062,-0.221801757812
61441225657,-0.709167480469,0.662536621094,-0.0942993164062,-0.222045898438
61441242115,-0.709167480469,0.662414550781,-0.0941772460938,-0.222351074219
61441264688,-0.709167480469,0.662292480469,-0.0940551757812,-0.222717285156
61441285850,-0.709167480469,0.662170410156,-0.0940551757812,-0.22314453125
61441309693,-0.709289550781,0.661926269531,-0.0939331054688,-0.223571777344
61441324646,-0.709411621094,0.661743164062,-0.0938110351562,-0.223815917969
61441347148,-0.709533691406,0.661437988281,-0.0936889648438,-0.224182128906
61441362157,-0.709655761719,0.661254882812,-0.0935668945312,-0.224548339844
61441384650,-0.709777832031,0.660949707031,-0.0936889648438,-0.224853515625
61441407119,-0.710021972656,0.660583496094,-0.0936279296875,-0.225219726562
61441422094,-0.710205078125,0.660278320312,-0.09326171875,-0.225708007812
61441450795,-0.710388183594,0.660034179688,-0.0927734375,-0.226013183594
61441467160,-0.710571289062,0.659912109375,-0.0924682617188,-0.226013183594
61441489603,-0.710510253906,0.660034179688,-0.0918579101562,-0.225952148438
61441510771,-0.710388183594,0.660278320312,-0.0912475585938,-0.226135253906
61441527110,-0.710327148438,0.660339355469,-0.091064453125,-0.226135253906
61441549637,-0.710327148438,0.660278320312,-0.0912475585938,-0.226135253906
61441570747,-0.710205078125,0.660339355469,-0.091796875,-0.226196289062
61441587096,-0.7099609375,0.660522460938,-0.0921630859375,-0.226318359375
61441609627,-0.709838867188,0.660766601562,-0.0921020507812,-0.226135253906
61441630807,-0.709594726562,0.661071777344,-0.0914306640625,-0.226257324219
61441647134,-0.709167480469,0.661437988281,-0.0910034179688,-0.2265625
61441669587,-0.708679199219,0.661926269531,-0.0911865234375,-0.226623535156
61441690813,-0.708068847656,0.662536621094,-0.0919799804688,-0.226440429688
61441707147,-0.707580566406,0.6630859375,-0.0929565429688,-0.225952148438
61441729612,-0.707275390625,0.663452148438,-0.0936889648438,-0.225402832031
61441750693,-0.706970214844,0.663818359375,-0.0938720703125,-0.225158691406
61441767125,-0.706420898438,0.664428710938,-0.0935668945312,-0.225463867188
61441789594,-0.705688476562,0.665161132812,-0.0931396484375,-0.225708007812
61441810792,-0.705200195312,0.665893554688,-0.093505859375,-0.224914550781
61441826415,-0.705322265625,0.666381835938,-0.09326171875,-0.223083496094
61441849653,-0.705627441406,0.667114257812,-0.0922241210938,-0.220397949219
61441872106,-0.706237792969,0.668212890625,-0.090087890625,-0.215881347656
61441886501,-0.707885742188,0.669006347656,-0.0866088867188,-0.209411621094
61441909591,-0.7099609375,0.669982910156,-0.0817260742188,-0.201232910156
61441932084,-0.711669921875,0.671508789062,-0.074462890625,-0.192626953125
61441946434,-0.713684082031,0.673156738281,-0.0651245117188,-0.182495117188
61441969616,-0.716674804688,0.674560546875,-0.0546875,-0.168579101562
61441992167,-0.721252441406,0.674926757812,-0.0440673828125,-0.149536132812
61442013236,-0.7265625,0.674499511719,-0.0328979492188,-0.126586914062
61442029619,-0.731018066406,0.674377441406,-0.0203247070312,-0.101867675781
61442052081,-0.734375,0.674377441406,-0.00543212890625,-0.0769653320312
61442073180,-0.736755371094,0.674072265625,0.012451171875,-0.0523071289062
61442089638,-0.738891601562,0.672546386719,0.03173828125,-0.0259399414062
61442112171,-0.740661621094,0.669921875,0.0513916015625,0.00323486328125
61442133167,-0.741394042969,0.666625976562,0.0693359375,0.0346069335938
61442149585,-0.740478515625,0.663330078125,0.0857543945312,0.0660400390625
61442172118,-0.738159179688,0.659790039062,0.101440429688,0.097412109375
61442193309,-0.734802246094,0.655395507812,0.117858886719,0.128845214844
61442210065,-0.730651855469,0.650451660156,0.133666992188,0.158447265625
61442232139,-0.726135253906,0.644897460938,0.14794921875,0.186950683594
61442253315,-0.721496582031,0.638549804688,0.160461425781,0.214416503906
61442269597,-0.716186523438,0.632690429688,0.169982910156,0.240539550781
61442292104,-0.710388183594,0.627319335938,0.177551269531,0.265075683594
61442313344,-0.70458984375,0.622009277344,0.18408203125,0.287719726562
61442329645,-0.699523925781,0.616149902344,0.1904296875,0.307861328125
61442352092,-0.694946289062,0.609924316406,0.1962890625,0.326293945312
61442373289,-0.691223144531,0.604675292969,0.2021484375,0.340087890625
61442389646,-0.688171386719,0.60009765625,0.20751953125,0.35107421875
61442412088,-0.68505859375,0.595947265625,0.212097167969,0.361206054688
61442433124,-0.682250976562,0.592041015625,0.217834472656,0.369567871094
61442449562,-0.679626464844,0.588806152344,0.220947265625,0.377563476562
61442472105,-0.676696777344,0.587097167969,0.224975585938,0.383117675781
61442493334,-0.673461914062,0.5869140625,0.2294921875,0.386413574219
61442509631,-0.670043945312,0.587219238281,0.234680175781,0.388732910156
61442532148,-0.666259765625,0.58837890625,0.239501953125,0.390625
61442553332,-0.661926269531,0.590637207031,0.243530273438,0.391967773438
61442569610,-0.657348632812,0.594360351562,0.24755859375,0.391540527344
61442592088,-0.652954101562,0.598754882812,0.252624511719,0.388977050781
61442613282,-0.649047851562,0.603393554688,0.258422851562,0.384521484375
61442628972,-0.645141601562,0.608337402344,0.264099121094,0.379333496094
61442652087,-0.641540527344,0.61376953125,0.269897460938,0.372619628906
61442673259,-0.638244628906,0.619445800781,0.27587890625,0.364440917969
61442688934,-0.63525390625,0.625427246094,0.281860351562,0.354675292969
61442712074,-0.632385253906,0.631042480469,0.288757324219,0.344177246094
61442733299,-0.62939453125,0.636474609375,0.296752929688,0.332702636719
61442748966,-0.626586914062,0.641723632812,0.304382324219,0.32080078125
61442772112,-0.624877929688,0.646118164062,0.31201171875,0.307739257812
61442793298,-0.624267578125,0.649780273438,0.319519042969,0.293212890625
61442808920,-0.62451171875,0.652465820312,0.326232910156,0.278869628906
61442832087,-0.626220703125,0.653381347656,0.332702636719,0.264953613281
61442854612,-0.628967285156,0.652648925781,0.338745117188,0.252380371094
61442869061,-0.632873535156,0.650146484375,0.345581054688,0.239379882812
61442892048,-0.638366699219,0.645385742188,0.352355957031,0.2275390625
61442914593,-0.64501953125,0.638427734375,0.3583984375,0.218811035156
61442928924,-0.652282714844,0.629455566406,0.365295410156,0.2119140625
61442936381,-0.658813476562,0.62060546875,0.370666503906,0.208129882812
61442957575,-0.663208007812,0.614501953125,0.372009277344,0.209899902344
61442980213,-0.665588378906,0.610717773438,0.371948242188,0.213562011719
61442996486,-0.667236328125,0.608215332031,0.371765136719,0.215881347656
61443017664,-0.669067382812,0.605224609375,0.372253417969,0.217712402344
61443039975,-0.6708984375,0.602600097656,0.372375488281,0.219299316406
61443056531,-0.672424316406,0.600891113281,0.371459960938,0.220825195312
61443077640,-0.673522949219,0.600280761719,0.369445800781,0.222534179688
61443100061,-0.67431640625,0.6005859375,0.3671875,0.223083496094
61443116462,-0.675109863281,0.600891113281,0.365905761719,0.222045898438
61443137589,-0.675903320312,0.601013183594,0.364868164062,0.220886230469
61443160090,-0.6767578125,0.601135253906,0.363525390625,0.22021484375
61443175109,-0.677185058594,0.601745605469,0.361755371094,0.220031738281
61443197709,-0.67724609375,0.602783203125,0.359985351562,0.219970703125
61443220098,-0.677368164062,0.603576660156,0.358764648438,0.219360351562
61443235129,-0.677490234375,0.603698730469,0.358520507812,0.219055175781
61443257719,-0.677429199219,0.603576660156,0.359008789062,0.21875
61443280036,-0.677124023438,0.603698730469,0.359191894531,0.218933105469
61443295091,-0.6767578125,0.604187011719,0.358825683594,0.219482421875
61443317592,-0.676452636719,0.604553222656,0.358520507812,0.219848632812
61443340113,-0.676208496094,0.604858398438,0.358459472656,0.219909667969
61443355094,-0.676391601562,0.604553222656,0.358581542969,0.219970703125
61443377537,-0.676574707031,0.604370117188,0.358215332031,0.220581054688
61443408164,-0.676696777344,0.604431152344,0.357666015625,0.220825195312
61443416460,-0.6767578125,0.605102539062,0.356506347656,0.220825195312
61443437645,-0.677124023438,0.606079101562,0.354431152344,0.220275878906
61443460059,-0.677978515625,0.607299804688,0.351684570312,0.218811035156
61443476437,-0.679077148438,0.609008789062,0.347961425781,0.216491699219
61443497591,-0.680236816406,0.611755371094,0.342895507812,0.213134765625
61443520059,-0.681701660156,0.615661621094,0.335998535156,0.208190917969
61443536439,-0.683654785156,0.620178222656,0.327941894531,0.201049804688
61443557697,-0.686340332031,0.625,0.318359375,0.192199707031
61443580106,-0.689758300781,0.630004882812,0.307067871094,0.181701660156
61443596437,-0.693969726562,0.634399414062,0.295288085938,0.169555664062
61443617588,-0.698791503906,0.637878417969,0.283447265625,0.156494140625
61443640051,-0.703674316406,0.641662597656,0.270080566406,0.141906738281
61443656416,-0.70849609375,0.645812988281,0.255187988281,0.125671386719
61443677428,-0.713073730469,0.650268554688,0.238647460938,0.108276367188
61443700088,-0.717590332031,0.654418945312,0.220886230469,0.0894165039062
61443716443,-0.721923828125,0.658203125,0.201782226562,0.0698852539062
61443737666,-0.726013183594,0.661499023438,0.181457519531,0.0493774414062
61443760138,-0.729370117188,0.664367675781,0.16064453125,0.0277709960938
61443777895,-0.73193359375,0.666931152344,0.139343261719,0.005859375
61443797640,-0.733703613281,0.6689453125,0.117980957031,-0.015625
61443820122,-0.734741210938,0.670166015625,0.097900390625,-0.0374755859375
61443837899,-0.734558105469,0.671569824219,0.0774536132812,-0.0585327148438
61443857575,-0.7333984375,0.672668457031,0.0576171875,-0.0795288085938
61443880156,-0.731018066406,0.674072265625,0.0382080078125,-0.0992431640625
61443897947,-0.727966308594,0.675231933594,0.0194091796875,-0.117065429688
61443917458,-0.724975585938,0.675903320312,0.0006103515625,-0.132385253906
61443940165,-0.721923828125,0.676025390625,-0.0166015625,-0.146728515625
61443957873,-0.718505859375,0.676208496094,-0.0317993164062,-0.159851074219
61443977604,-0.714965820312,0.6767578125,-0.044921875,-0.169555664062
61444000018,-0.712280273438,0.676635742188,-0.055908203125,-0.178039550781
61444017864,-0.710205078125,0.675964355469,-0.0657348632812,-0.185363769531
61444037635,-0.708190917969,0.675537109375,-0.0742797851562,-0.191345214844
61444060001,-0.7060546875,0.67529296875,-0.0808715820312,-0.197265625
61444077955,-0.704406738281,0.674743652344,-0.0863647460938,-0.202758789062
61444097575,-0.703735351562,0.673461914062,-0.0911254882812,-0.207214355469
61444119927,-0.703369140625,0.672302246094,-0.094482421875,-0.210632324219
61444137856,-0.702880859375,0.671813964844,-0.0958862304688,-0.213134765625
61444157705,-0.702514648438,0.672241210938,-0.095458984375,-0.213317871094
61444180114,-0.702270507812,0.673278808594,-0.0949096679688,-0.211059570312
61444197900,-0.701843261719,0.674255371094,-0.0935668945312,-0.209838867188
61444217651,-0.701232910156,0.674865722656,-0.091796875,-0.210754394531
61444240083,-0.700012207031,0.675476074219,-0.0902709960938,-0.213500976562
61444257869,-0.698547363281,0.676147460938,-0.0897216796875,-0.216430664062
61444277652,-0.697692871094,0.676452636719,-0.0906982421875,-0.217895507812
61444300019,-0.697387695312,0.676574707031,-0.0928955078125,-0.217590332031
61444317903,-0.697448730469,0.676574707031,-0.095458984375,-0.216125488281
61444338899,-0.697814941406,0.676391601562,-0.09765625,-0.214538574219
61444355371,-0.698486328125,0.675903320312,-0.09912109375,-0.21337890625
61444377901,-0.699340820312,0.675048828125,-0.0996704101562,-0.212768554688
61444398944,-0.700134277344,0.674255371094,-0.0993041992188,-0.213012695312
61444419963,-0.700439453125,0.673767089844,-0.0984497070312,-0.2138671875
61444437857,-0.700439453125,0.673583984375,-0.0975341796875,-0.214904785156
61444458916,-0.700500488281,0.673400878906,-0.0969848632812,-0.215515136719
61444475378,-0.700744628906,0.673156738281,-0.0971069335938,-0.215576171875
61444497936,-0.701110839844,0.6728515625,-0.0977783203125,-0.215026855469
61444518278,-0.701599121094,0.672424316406,-0.0986328125,-0.21435546875
61444534558,-0.702087402344,0.671936035156,-0.0993041992188,-0.213806152344
61444557038,-0.702514648438,0.671447753906,-0.099609375,-0.213684082031
61444578344,-0.702819824219,0.671081542969,-0.0995483398438,-0.2138671875
61444594581,-0.703063964844,0.670776367188,-0.0992431640625,-0.21435546875
61444617055,-0.703308105469,0.67041015625,-0.0990600585938,-0.214660644531
61444639667,-0.703552246094,0.670104980469,-0.099365234375,-0.214721679688
61444653941,-0.703918457031,0.669738769531,-0.0997314453125,-0.214538574219
61444677068,-0.704223632812,0.66943359375,-0.100158691406,-0.214172363281
61444714593,-0.70458984375,0.669067382812,-0.1005859375,-0.214172363281
61444737113,-0.704528808594,0.6689453125,-0.100463867188,-0.214599609375
61444759550,-0.704467773438,0.668884277344,-0.100402832031,-0.215026855469
61444774559,-0.704467773438,0.668823242188,-0.100402832031,-0.215270996094
61444797043,-0.704406738281,0.668884277344,-0.100463867188,-0.215393066406
61444819543,-0.704284667969,0.6689453125,-0.100463867188,-0.215393066406
61444834613,-0.704223632812,0.669067382812,-0.100463867188,-0.215270996094
61444857134,-0.704162597656,0.669189453125,-0.100341796875,-0.215209960938
61444879651,-0.704040527344,0.669311523438,-0.0999145507812,-0.21533203125
61444893872,-0.703857421875,0.669494628906,-0.0993041992188,-0.215637207031
61444917094,-0.703674316406,0.669677734375,-0.0988159179688,-0.216003417969
61444939491,-0.703552246094,0.669799804688,-0.0985107421875,-0.216247558594
61444962074,-0.703430175781,0.669860839844,-0.0984497070312,-0.216186523438
61444977073,-0.703430175781,0.669921875,-0.0984497070312,-0.216125488281
61445005640,-0.703552246094,0.669860839844,-0.0985717773438,-0.215942382812
61445013883,-0.703735351562,0.669738769531,-0.0986938476562,-0.215759277344
61445037010,-0.703857421875,0.669555664062,-0.0988159179688,-0.215759277344
61445059568,-0.703979492188,0.669372558594,-0.0988159179688,-0.215759277344
61445073956,-0.704162597656,0.669189453125,-0.0988159179688,-0.215881347656
61445097060,-0.704345703125,0.669006347656,-0.098876953125,-0.215942382812
61445119586,-0.704467773438,0.668823242188,-0.098876953125,-0.216003417969
61445133939,-0.70458984375,0.668701171875,-0.0989379882812,-0.216064453125
61445157061,-0.70458984375,0.668701171875,-0.098876953125,-0.216064453125
61445179589,-0.70458984375,0.668701171875,-0.0988159179688,-0.216064453125
61445193908,-0.70458984375,0.668701171875,-0.0987548828125,-0.216064453125
61445217095,-0.70458984375,0.668640136719,-0.0987548828125,-0.216064453125
61445239532,-0.70458984375,0.668640136719,-0.0986938476562,-0.216064453125
61445260688,-0.704650878906,0.668640136719,-0.0986328125,-0.216064453125
61445277096,-0.70458984375,0.668701171875,-0.098388671875,-0.216125488281
61445299578,-0.70458984375,0.668701171875,-0.0980834960938,-0.216247558594
61445320762,-0.70458984375,0.668762207031,-0.0980224609375,-0.216247558594
61445337031,-0.704650878906,0.668701171875,-0.0980834960938,-0.216064453125
61445359580,-0.704650878906,0.668701171875,-0.0979614257812,-0.216064453125
61445380816,-0.704650878906,0.668701171875,-0.097900390625,-0.216003417969
61445397087,-0.704711914062,0.668701171875,-0.097900390625,-0.216003417969
61445419559,-0.704711914062,0.668701171875,-0.0978393554688,-0.216003417969
61445440583,-0.704711914062,0.668701171875,-0.0978393554688,-0.216003417969
61445457153,-0.704711914062,0.668701171875,-0.0978393554688,-0.216003417969
61445479541,-0.704772949219,0.668640136719,-0.0978393554688,-0.215881347656
61445500773,-0.704833984375,0.668640136719,-0.097900390625,-0.215698242188
61445517067,-0.704895019531,0.668640136719,-0.0978393554688,-0.215637207031
61445539531,-0.704895019531,0.668640136719,-0.0977783203125,-0.215637207031
61445560717,-0.704956054688,0.668640136719,-0.0977783203125,-0.215637207031
61445577030,-0.704956054688,0.668640136719,-0.0977172851562,-0.215637207031
61445599526,-0.704956054688,0.668640136719,-0.0977172851562,-0.215576171875
61445620851,-0.704956054688,0.668640136719,-0.09765625,-0.215576171875
61445637033,-0.704956054688,0.668640136719,-0.0975952148438,-0.215576171875
61445659559,-0.704956054688,0.668640136719,-0.0975952148438,-0.215515136719
61445682042,-0.705017089844,0.668640136719,-0.0975341796875,-0.215515136719
61445697032,-0.705017089844,0.668640136719,-0.0974731445312,-0.215515136719
61445719570,-0.705017089844,0.668640136719,-0.097412109375,-0.215454101562
61445742046,-0.705017089844,0.668640136719,-0.097412109375,-0.215454101562
61445757108,-0.705017089844,0.668640136719,-0.0973510742188,-0.215454101562
61445779556,-0.705017089844,0.668640136719,-0.0973510742188,-0.215454101562
61445802028,-0.705078125,0.668640136719,-0.0972900390625,-0.215454101562
