61280243969,-1,0,-1,-1,-2,-3,1,1
61280243969,0,0,0,-1,-1,-1,-1,-1
61280244793,0,-2,-1,-1,0,-6,0,2
61280244793,-2,1,0,0,2,5,-2,-1
61280245587,0,0,0,-1,-1,-6,-1,-1
61280245587,0,0,-2,-1,-1,3,-2,-1
61280249179,0,-1,0,-2,-1,0,-2,0
61280249179,0,-1,1,-1,-1,-12,-4,1
61280255590,-1,-1,-1,0,0,1,-1,0
61280255590,-1,-1,0,-3,-2,-5,-2,-2
61280264276,-2,-3,-3,-1,-4,-3,-2,-3
61280264276,-3,-3,-4,-1,-3,-2,-1,-2
61280271953,-2,-3,-3,-3,0,-2,0,-3
61280271953,-2,-3,-2,1,-1,-4,-1,-1
61280287324,-1,-2,-3,0,-1,-2,-1,-3
61280287324,-3,-2,-2,-2,-2,0,-1,-2
61280293032,-1,0,-3,0,-2,0,-1,2
61280293032,-1,-1,-1,-1,-2,1,-2,0
61280318111,-2,-1,-2,-1,0,-2,-4,-2
61280318111,0,-3,-2,-2,-1,-4,-1,-1
61280320996,-1,0,-1,-2,-1,0,-1,-4
61280320996,-1,-2,-3,-2,-2,-5,-2,-2
61280331649,-1,0,0,-2,0,0,-1,0
61280331649,-2,-2,-1,0,-1,-4,-2,0
61280372105,0,-1,-1,1,-1,-2,1,0
61280372105,-1,2,0,0,-2,-5,0,0
61280372921,-1,-2,-2,-1,0,4,0,-3
61280372921,-3,-1,1,-1,0,-1,-1,-2
61280376060,-1,-1,0,-1,-1,-3,-3,-1
61280376060,0,-3,-1,0,0,-1,-4,-2
61280376716,-2,1,-1,0,-1,-1,-3,0
61280376716,0,0,-1,-1,-1,-2,-3,-1
61280382942,-2,-2,-3,0,-1,-2,0,-3
61280382942,0,0,0,-2,-1,1,0,0
61280393340,2,-2,0,-1,0,-2,0,0
61280393340,-2,-3,-1,-1,0,-2,-3,1
61280405955,-2,-1,1,-1,-1,-2,-1,0
61280405955,-1,-1,-2,-1,-1,-1,-2,-2
61280412885,-2,0,-1,-2,0,-3,-2,2
61280412885,0,-1,-2,-1,0,-4,1,-2
61280420364,0,0,-2,-3,1,8,0,1
61280420364,-2,-2,-1,-2,-2,-1,1,1
61280443683,-1,-1,2,0,-1,-2,0,-1
61280443683,0,-2,-1,0,-1,0,-1,0
61280444198,0,-2,0,-1,-2,-3,-2,-2
61280444198,0,1,0,0,1,-3,-2,-2
61280457776,-2,1,1,-1,-1,-1,-3,-1
61280457776,-1,-1,-2,-2,-3,-5,-1,-4
61280466264,-2,-1,-2,-3,-1,-2,-1,-1
61280466264,-2,-4,-2,-1,-2,-2,-3,-1
61280481080,-2,-4,-3,-2,-1,-4,-3,-2
61280481080,-2,-2,-3,-1,-1,0,0,-2
61280481739,-2,-1,-1,-2,-1,-2,-2,-3
61280481739,-3,-3,-3,-1,-1,-2,0,-1
61280503424,-1,-1,-2,-2,-3,-1,-2,-1
61280503424,-2,-1,-3,0,-2,1,-1,-1
61280504213,0,-2,-2,-1,-2,-4,-3,-3
61280504213,0,-1,-1,-2,0,0,-2,0
61280517897,-2,-2,-1,0,0,-3,0,-2
61280517897,-2,-1,-1,0,-1,13,0,-2
61280533545,1,-1,0,0,-1,-1,1,-3
61280533545,0,1,-1,-1,-1,-1,-1,-3
61280541006,-2,-3,-2,-1,-1,1,1,-2
61280541006,-1,0,1,0,-3,-6,-1,-1
61280541780,-2,-3,-2,-1,-2,0,-1,-1
61280541780,0,0,-2,-1,-3,2,0,-3
61280564288,0,0,-2,-1,0,-2,-1,-2
61280564288,-1,0,-2,-2,-1,0,0,-2
61280564939,-1,-2,-2,0,-1,1,-1,0
61280564939,-1,-2,0,-1,-2,-1,2,-3
61280586719,-1,-2,1,0,-1,-3,-2,-6
61280586719,-2,-1,-2,-1,0,6,-1,-2
61280587383,-2,0,-1,-1,1,5,0,-2
61280587383,-3,-1,-1,-1,0,-1,-3,-3
61280601063,1,-1,0,-2,-2,-2,0,-2
61280601063,0,-2,-1,0,-2,-3,-2,-2
61280601725,1,0,-1,0,-3,-16,-2,0
61280601725,-2,-2,-2,-2,-2,13,2,0
61280624132,1,-2,0,0,-2,-2,0,0
61280624132,0,0,0,0,-1,-1,0,0
61280624918,-2,0,-1,-1,-3,-4,-2,-2
61280624918,0,-2,-2,1,0,-3,-1,0
61280646718,-3,-1,-1,-2,-2,2,0,-1
61280646718,-1,0,-1,-2,-1,-2,-2,0
61280647412,-1,0,-1,-2,-1,0,-1,1
61280647412,1,0,-1,-2,-3,-3,-2,0
61280661031,-1,-1,-1,-2,-1,3,0,2
61280661031,1,-1,-2,-3,0,-5,0,-2
61280661761,-2,-2,-3,-1,1,7,0,-5
61280661761,-1,0,-1,-1,0,-4,-1,0
61280684684,-1,0,-3,0,0,-5,-3,0
61280684684,-1,-2,-1,-1,0,4,1,-2
61280685389,1,-2,-2,0,-2,-1,-2,0
61280685389,-1,0,0,0,-2,-9,-3,0
61280706623,-1,1,-2,0,2,5,-1,-1
61280706623,-2,-1,-2,-1,-1,-4,-1,1
61280707402,-1,-3,-1,-3,-1,-1,-4,-1
61280707402,-2,-1,-1,-2,-2,-2,-1,-1
61280721084,0,-2,0,1,-3,-2,0,-1
61280721084,-2,-2,0,0,-1,-1,-2,-1
61280721765,-1,-1,1,0,-1,-2,0,1
61280721765,-1,-2,-2,-2,0,0,-2,0
61280744165,0,-1,-1,-2,-1,0,-3,0
61280744165,-1,0,-2,-1,-1,-1,-1,0
61280744883,0,-1,-1,0,-1,0,-2,0
61280744883,0,0,-2,-1,0,0,-2,-1
61280766764,-2,-1,-1,-1,-1,-4,0,-1
61280766764,-2,-1,0,0,-1,0,0,0
61280767426,-2,2,0,0,-1,-1,1,0
61280767426,-3,-1,-2,-1,-2,2,0,-2
61280781040,-1,-2,-1,-1,-1,-4,-1,0
61280781040,0,-1,-1,-3,-2,-2,-2,-3
61280781702,-1,0,-1,0,0,-5,-1,-1
61280781702,-1,0,-2,1,-1,-4,2,0
61280804245,0,-2,-2,-1,-1,-1,0,1
61280804245,1,1,-1,-1,-2,-4,-3,-1
61280804916,-2,-3,-2,-1,0,-2,-2,-2
61280804916,-2,-2,-2,-1,0,-2,-2,1
61280826788,0,0,0,-3,-1,1,-3,-1
61280826788,-2,-2,-1,0,1,-3,-1,0
61280827435,-1,-1,1,-1,-1,0,0,-1
61280827435,-1,-1,0,-2,1,0,1,-2
61280841043,0,-2,-2,-1,-4,0,-1,-1
61280841043,-2,-2,-2,-1,-1,-1,0,-1
61280841708,0,0,-1,1,-1,1,0,-1
61280841708,-2,-1,-1,-2,-1,3,1,0
61280864241,-2,1,-2,0,-1,-3,0,-1
61280864241,0,-2,0,0,-2,-3,-4,1
61280864989,-2,-2,-1,-1,0,1,-1,0
61280864989,-3,-2,-1,-1,-2,-6,-1,-1
61280886685,-1,0,-1,0,1,2,-2,-2
61280886685,-1,0,-1,0,0,1,2,0
61280887453,0,0,-1,-4,1,1,0,-1
61280887453,-1,-1,0,1,0,0,-1,-2
61280900935,-3,-1,-2,1,-2,-5,-3,0
61280900935,-2,-1,0,-1,-1,0,0,-2
61280901734,-1,-1,-2,-1,-1,0,-2,-2
61280901734,0,1,-3,0,-1,-1,-1,0
61280924170,-1,0,-1,-1,0,2,0,-3
61280924170,0,1,0,1,-2,-4,-1,0
61280924905,-2,0,-1,-1,-1,0,0,0
61280924905,-1,-2,-1,-1,-1,3,-2,-1
61280946710,-1,-2,-1,-2,0,-3,-2,0
61280946710,0,-1,-1,-1,-2,-3,-1,1
61280947488,-1,0,-1,-1,-4,-3,-2,0
61280947488,0,0,0,-1,-2,-2,-3,0
61280960979,-1,-1,0,-1,0,-2,0,-1
61280960979,0,0,0,-3,1,5,-1,0
61280961706,-2,-1,-1,-1,-1,-1,-1,-1
61280961706,1,-1,-1,-2,0,0,-2,-1
61280984708,-2,0,1,-1,-2,-3,-1,-1
61280984708,-2,-1,-1,-2,-1,-3,0,-2
61280985367,0,0,-2,0,-2,0,-1,-2
61280985367,-1,-1,-2,-1,-2,-3,-1,0
61281007212,-1,-2,0,-1,-2,3,1,0
61281007212,-2,-2,-2,-1,0,0,-2,-2
61281007907,0,-2,-3,0,-1,2,0,2
61281007907,0,-1,-3,-1,-1,-7,0,-2
61281020481,0,0,-1,0,0,4,1,-1
61281020481,0,1,-1,0,0,-2,0,-1
61281028450,-2,-3,0,-1,0,-3,-1,-2
61281028450,-3,0,-2,-1,-1,-2,0,-1
61281044173,-1,-1,-1,-1,0,-4,-3,1
61281044173,0,-1,0,-3,-1,9,0,0
61281044905,1,0,0,0,-1,-5,-1,0
61281044905,-1,-2,0,-1,-1,8,-1,-1
61281066829,0,0,-3,-1,-1,-1,-3,-2
61281066829,-1,-2,-1,0,-2,-6,-2,-2
61281067432,-2,-2,0,-1,-1,-4,-1,-2
61281067432,0,-2,0,-1,-1,-1,-1,-1
61281080248,-2,0,-2,0,0,-3,0,-1
61281080248,-1,-2,0,-1,1,-2,-1,-1
61281088439,-1,-2,-2,-1,0,2,0,-1
61281088439,-3,-2,-2,-1,-2,-1,0,-1
61281104084,0,-2,0,-2,-1,1,0,-1
61281104084,-1,-1,-1,0,-2,-8,0,0
61281104870,-1,0,1,-1,-2,5,0,1
61281104870,0,0,-1,-2,0,6,-1,0
61281126615,0,-2,-3,-3,-1,-3,0,-2
61281126615,-2,-3,-3,0,-2,-1,-2,0
61281127381,0,-2,0,-2,-2,-2,-1,-2
61281127381,-2,1,0,0,-1,-8,-2,0
61281140230,-1,-1,-1,-1,0,-1,-1,-1
61281140230,0,0,-2,0,0,-1,-2,0
61281148441,-2,-2,-2,1,0,3,3,-1
61281148441,0,-1,-1,0,-3,-2,0,-1
61281164162,-3,0,0,-1,-1,-11,-4,1
61281164162,-1,0,0,-1,-1,2,2,0
61281164890,-1,-1,-2,-1,0,-1,-1,0
61281164890,0,-2,-1,-1,-2,7,0,0
61281186725,1,0,-1,-2,-2,-5,-3,0
61281186725,-1,-2,-1,-1,-1,-4,-3,-3
61281187384,0,0,0,-1,-1,4,-1,-1
61281187384,-2,-1,-1,-1,0,-4,-2,-2
61281200372,-1,-2,-3,0,-2,-3,1,2
61281200372,1,1,0,-1,-1,-1,0,0
61281209327,-1,-2,0,-1,-2,-1,-2,0
61281209327,0,-3,-1,0,1,-1,2,-1
61281224294,-1,-1,0,1,-2,2,-5,-1
61281224294,-1,-1,0,0,-1,-3,-1,0
61281225750,-1,0,-1,0,-2,-6,-1,-1
61281225750,0,-1,1,-1,0,6,-1,-1
61281246671,0,-1,-1,-2,-2,-7,0,-1
61281246671,-3,-2,-1,-1,0,5,2,-3
61281248214,-1,1,-2,-2,-1,-5,-3,-1
61281248214,-2,0,-2,0,-3,-1,0,1
61281260321,0,-2,0,0,-2,1,2,0
61281260321,1,1,-1,-2,-1,-3,-4,-1
61281269312,1,0,0,-1,0,4,-2,-1
61281269312,-2,-1,-1,-1,0,-2,-1,-2
61281284230,-2,-2,-1,0,0,4,-1,-2
61281284230,-1,-1,-2,-1,-2,-4,-2,0
61281285697,-1,0,0,-1,0,-1,-1,-1
61281285697,2,-1,0,0,-1,-10,-3,0
61281306668,0,-1,-1,0,0,3,2,-2
61281306668,-2,-3,-1,0,0,-3,-1,-1
61281308264,-2,-3,-2,-2,-1,-5,1,-2
61281308264,-1,-1,-1,-1,-2,-10,-1,-1
61281320397,-1,1,0,0,0,-14,-6,-2
61281320397,0,-2,-4,-2,-2,20,4,-4
61281329329,-3,-1,0,1,-1,-2,-5,0
61281329329,-1,-1,-2,0,1,-2,-1,-2
61281351715,-1,0,0,-1,-2,2,2,1
61281351715,-2,-2,0,-1,-2,-6,-4,1
61281353239,0,-2,-1,-1,-2,-3,-3,-1
61281353239,-1,-3,-1,-2,-1,2,0,-2
61281366090,-1,-1,0,-1,-1,2,-3,-4
61281366090,-1,0,-1,-2,-2,-9,0,-3
61281372821,0,-1,-2,-1,-2,-1,0,-1
61281372821,0,0,-1,-1,-1,-1,-1,-2
61281389209,0,-1,-2,-1,-1,11,2,0
61281389209,-1,0,0,-2,0,-3,-2,-1
61281390748,-1,-1,-1,0,-1,-5,1,-1
61281390748,-2,-1,-1,-2,-1,2,0,-1
61281411680,-1,0,0,-1,-2,-2,0,-2
61281411680,-2,-2,0,0,-2,4,-2,-3
61281413200,-2,-2,-2,-2,-3,-5,-3,-1
61281413200,-2,0,0,0,0,7,0,0
61281425982,1,-1,-3,-2,0,5,0,-1
61281425982,0,-2,0,0,-1,-11,1,0
61281432891,-1,-2,-1,-1,0,12,-9,-1
61281432891,-2,-2,-3,-1,-1,-4,1,-1
61281449283,-2,-2,0,0,-1,-6,-5,-4
61281449283,0,-1,0,1,-2,-23,0,0
61281450744,-1,1,-2,-1,-1,6,3,2
61281450744,2,0,-1,-1,0,-5,-2,-1
61281471726,-1,0,-2,-1,0,4,-1,-1
61281471726,-3,0,-1,-2,0,-7,-5,-1
61281473220,0,-2,-2,-1,-1,-8,3,1
61281473220,-1,-1,0,-1,-1,2,-2,0
61281486070,-1,-1,-1,-2,-3,-10,3,-1
61281486070,-1,-2,0,-2,-1,10,-1,-2
61281492988,-2,-1,-1,-2,0,-1,2,-4
61281492988,-1,-1,-1,0,-1,0,0,1
61281509123,0,-2,0,-2,0,1,-2,0
61281509123,-3,1,-3,-2,-2,1,-2,0
61281510691,-1,0,-1,-1,-1,4,-13,0
61281510691,0,-3,-2,-2,-2,-10,3,-2
61281531722,-2,-2,0,-1,-1,4,-5,-1
61281531722,-2,-3,-1,0,-1,5,7,3
61281533230,2,1,-1,0,0,-6,2,-1
61281533230,-3,0,0,0,-1,1,0,-2
61281545252,0,-2,-1,-2,-1,-7,-3,-2
61281545252,0,-1,-3,-2,0,3,-1,-1
61281561708,-1,0,0,-1,2,-3,-1,-4
61281561708,-2,-2,-2,-1,-3,-1,3,0
61281569080,-1,0,-1,-1,0,-1,4,1
61281569080,-1,1,-1,-1,-2,-4,-4,-1
61281570685,-3,-2,0,-2,-4,0,4,0
61281570685,0,0,1,-1,0,-3,-4,0
61281591603,-1,-2,-1,0,-1,-3,-1,0
61281591603,0,-1,-2,0,-1,3,-3,-1
61281593304,-1,0,0,-1,0,-3,1,0
61281593304,-2,0,0,0,1,0,-4,1
61281605297,-1,-1,-1,-2,-1,3,-1,0
61281605297,0,-1,1,-1,-1,5,6,1
61281614332,-1,0,-2,0,-1,-8,3,-5
61281614332,-1,-1,-2,-2,-1,1,-1,-1
61281629113,-2,-1,-1,0,-2,-3,-2,-1
61281629113,1,0,0,-2,-1,-5,-5,-2
61281630700,-3,0,-2,0,-3,-2,3,0
61281630700,0,-1,-2,-2,-1,2,-1,0
61281651549,-2,-1,-2,-2,-1,0,2,-2
61281651549,0,-2,0,-1,-2,-6,-7,-2
61281653179,0,-3,1,0,-2,6,-1,0
61281653179,-1,-1,-2,0,0,-16,-2,-2
61281665339,-1,-1,-1,0,-1,13,2,1
61281665339,-3,-1,-2,-1,-1,-7,-3,-1
61281674324,-1,-2,-2,-2,0,10,0,0
61281674324,-1,-1,-2,0,-3,-3,4,0
61281689341,2,1,-1,-2,-3,-8,-1,-3
61281689341,-2,-1,-1,0,1,2,1,-1
61281690754,-1,-1,-2,0,1,3,0,-1
61281690754,0,-2,-2,0,-2,-5,-9,1
61281711735,-1,-3,-2,0,-2,0,7,-4
61281711735,-2,-3,-1,-1,-2,5,-9,-1
61281713210,-1,-2,-1,-2,-2,-10,6,-1
61281713210,-2,0,0,0,0,6,-4,-2
61281725831,-2,-1,-3,-2,0,-5,-4,-1
61281725831,-1,1,-3,0,0,-6,-3,-1
61281734231,0,-1,-2,0,0,5,-2,0
61281734231,0,-1,0,-1,-1,13,3,-1
61281749233,0,-1,0,0,-1,-5,0,1
61281749233,3,-1,-1,0,-1,3,4,0
61281750753,-4,-1,-2,-1,0,-1,-5,-2
61281750753,0,-1,0,-2,-2,-2,0,-2
61281771626,-3,-1,-1,-1,0,-4,-1,-5
61281771626,-2,-2,-2,-3,0,16,1,0
61281773223,0,-3,-1,-1,-1,-4,-7,-1
61281773223,-3,-1,-2,-3,-4,-4,2,-1
61281785422,-2,-1,1,-1,-4,-11,1,-2
61281785422,1,-1,-1,-2,-1,-5,-11,-4
61281794224,0,0,-1,0,0,-4,0,0
61281794224,-3,-4,-1,-2,0,3,-3,-2
61281816704,-2,-3,-3,-2,0,2,3,0
61281816704,-1,-1,-3,0,-3,-5,3,1
61281818231,3,-1,0,-1,0,-4,-1,1
61281818231,0,-1,-1,-1,-1,-4,-6,-2
61281831710,-2,-2,0,-1,-1,1,-5,1
61281831710,-2,-2,-1,1,-1,-3,2,-1
61281833232,-2,-2,-1,-1,-1,2,0,-3
61281833232,0,0,-1,0,1,-3,1,1
61281845319,-1,0,0,-2,-2,1,-1,-3
61281845319,0,-1,0,-1,0,2,2,2
61281854346,0,-2,0,-1,-2,-5,1,0
61281854346,0,0,0,0,0,2,-2,-1
61281869222,1,0,0,0,-2,-4,-4,1
61281869222,-3,-1,-1,-1,-1,-2,-1,-2
61281870736,-2,0,-2,-2,0,8,-2,0
61281870736,0,-2,-1,0,-2,-4,-3,-1
61281891741,-2,-3,-2,1,1,-7,8,0
61281891741,0,2,0,-1,-2,0,0,-1
61281893345,-1,-1,1,0,-1,7,-5,0
61281893345,-1,-2,0,-2,0,-4,5,-2
61281905371,-2,-1,-1,0,0,-2,-4,0
61281905371,-1,-3,-1,-1,-1,-3,0,-1
61281914380,-1,-2,0,1,-3,-10,3,-2
61281914380,2,1,-3,-1,-1,16,-4,0
61281929217,0,-2,-1,-3,-2,3,-4,0
61281929217,-2,-1,-1,-2,-1,-4,-6,0
61281930728,0,-1,0,-1,-1,-3,6,1
61281930728,1,-1,-1,0,-1,-5,2,0
61281951786,-3,-4,-2,-2,-1,1,-2,-3
61281951786,0,-1,-1,-1,1,12,-6,1
61281953204,0,0,-1,-1,-1,-10,2,-1
61281953204,-1,0,0,0,-1,-1,4,-5
61281965431,1,0,-1,0,0,3,3,1
61281965431,1,-2,-3,0,0,-5,-1,0
61281974327,-3,-1,-1,-3,-1,2,0,-1
61281974327,-2,-1,-1,0,-2,-3,-5,1
61281990039,0,-2,0,-2,-1,-5,-7,-2
61281990039,-4,-3,0,-1,-1,11,4,-5
61281991357,-1,-1,-2,-2,-2,-5,-6,1
61281991357,-3,-5,-1,0,1,1,-4,-3
61282011731,0,2,0,0,0,-5,-4,-1
61282011731,0,-2,1,-1,-3,-7,-4,-2
61282013193,1,-1,-2,-2,-3,-9,7,-2
61282013193,-4,-1,-1,-4,-2,1,-3,-4
61282034234,-1,-3,0,1,-1,3,3,1
61282034234,1,1,0,0,0,-4,4,0
61282035711,-4,-1,-1,0,0,0,-13,-3
61282035711,-2,-3,-2,-2,-2,-17,-8,-4
61282048583,-2,0,-3,0,0,1,-4,0
61282048583,-2,-1,-2,-1,-1,6,4,2
61282055396,1,-1,0,-1,0,-12,-3,2
61282055396,0,2,-1,0,-3,-3,-6,-1
61282071701,-1,-1,0,-3,-1,4,-4,1
61282071701,3,0,-1,1,-2,-6,-2,0
61282073229,-1,0,-1,-1,-1,-6,-2,-3
61282073229,-1,-3,-2,0,1,-1,4,0
61282094245,1,0,0,1,-1,5,1,1
61282094245,-3,-3,-2,-2,-1,-8,-16,-3
61282095688,-3,-4,-2,-2,-1,5,2,-3
61282095688,0,-1,-1,-2,-1,-2,1,0
61282109151,-1,-1,-1,0,0,0,-6,2
61282109151,-1,-1,1,0,0,-3,30,2
61282110749,-3,-2,0,-2,1,0,-28,-3
61282110749,0,0,1,-1,0,1,4,1
61282131579,-2,-4,-2,-1,-2,7,2,-3
61282131579,12,-2,-1,-2,-2,-3,-4,4
61282133179,-15,-1,0,-1,-1,12,8,-8
61282133179,1,-2,-1,-1,0,2,22,2
61282154111,1,1,0,1,0,11,1,2
61282154111,-1,-1,-1,-1,-1,-10,-20,-2
61282155738,3,-1,-2,-1,-4,-9,13,3
61282155738,-4,-1,-2,0,0,11,-7,-1
61282168417,-2,0,-2,-1,-2,-11,4,-2
61282168417,-3,0,-3,0,0,1,3,-2
61282175337,4,-1,0,0,0,2,-5,3
61282175337,-4,0,-1,-1,-2,-6,-5,-3
61282191712,-1,-4,-1,-2,-2,-5,3,-1
61282191712,-3,1,0,-3,1,-4,-7,-1
61282193228,1,-1,-2,1,-1,-2,-14,-1
61282193228,2,-1,0,-1,0,15,6,3
61282214161,0,0,0,-2,-2,-1,-3,-1
61282214161,-5,-2,-2,-2,0,-2,-3,-2
61282215698,2,-1,-1,-2,0,10,7,1
61282215698,1,-2,-1,0,-2,12,-17,-3
61282228661,-5,-3,-2,-2,-3,-22,3,-3
61282228661,-3,-2,-1,1,0,10,-1,-1
61282235331,0,-1,-2,-3,-1,1,-1,-1
61282235331,0,-1,-1,-1,0,-4,-3,0
61282251754,0,0,0,-1,-1,-7,-9,-2
61282251754,0,-2,-1,-1,0,5,14,-3
61282253229,-2,-2,-2,-1,-2,-11,-6,-1
61282253229,-3,-1,-2,-2,-1,-2,3,-1
61282274129,-1,-1,-1,-1,0,-3,5,2
61282274129,-2,-1,-2,-3,-2,1,-15,-1
61282275732,-1,1,0,1,0,0,0,0
61282275732,0,-2,-1,-2,-2,-11,4,-2
61282288415,1,1,-2,0,-2,4,-9,0
61282288415,-2,0,-1,1,-2,-4,11,-2
61282295405,-3,-1,-1,-3,-2,-6,-20,-5
61282295405,0,0,0,-1,1,4,0,2
61282311725,0,0,-1,-4,0,4,1,-2
61282311725,0,1,-1,-1,-1,-8,-2,0
61282313189,0,-1,-2,-1,0,-3,4,0
61282313189,-2,-1,-2,-1,-1,-4,5,1
61282334289,-3,-1,-1,-1,0,4,-7,0
61282334289,-2,0,0,-2,-3,8,3,0
61282335713,-2,-1,-1,0,-1,1,4,0
61282335713,0,-3,-1,0,-2,-6,-8,-4
61282348493,1,-2,-1,-2,-2,3,6,-3
61282348493,-2,-1,-3,-1,-2,-5,-4,-1
61282355361,-1,-1,-1,-1,-1,-1,5,2
61282355361,0,0,0,-3,-1,-1,-7,-3
61282371777,-2,-3,0,-1,-3,-9,-1,0
61282371777,-2,-2,-1,-3,0,7,-2,0
61282373198,-1,-1,0,-2,-1,7,2,-2
61282373198,-3,0,-1,0,0,-8,-6,-3
61282394233,1,-1,-2,-2,-1,-3,-1,2
61282394233,1,1,-1,1,-1,-8,-2,1
61282395723,-1,1,0,-1,-1,-6,0,-2
61282395723,1,2,-1,-1,0,15,4,1
61282408594,-3,-2,0,0,0,-2,-2,-4
61282408594,-3,-2,-2,-1,0,5,4,-2
61282415374,-1,0,-3,-1,-3,-6,-14,-4
61282415374,-2,-2,-1,-2,-2,-5,-3,-2
61282431535,-1,0,-2,-1,-1,4,-8,0
61282431535,0,-1,0,-1,0,0,13,0
61282437874,-1,-3,-1,0,1,3,1,0
61282437874,1,-1,0,-1,-3,-6,-2,1
61282454243,0,-2,-2,0,-2,3,0,0
61282454243,0,-1,-2,-2,-1,-3,-7,-1
61282455701,2,-2,0,0,0,-2,4,1
61282455701,0,-1,-2,-1,-1,-4,1,0
61282468508,-1,-1,-2,0,1,-3,2,-4
61282468508,-1,-1,1,-1,-4,0,-5,-2
61282475394,-2,0,-1,0,-1,-1,4,1
61282475394,0,2,-1,-1,-1,-10,-17,-2
61282491858,0,1,-1,0,0,6,-1,-1
61282491858,-3,-2,-1,-2,-2,-20,-3,-3
61282493173,0,-2,-1,-1,-1,1,2,-1
61282493173,-3,-2,-2,0,-2,2,-3,1
61282514167,1,-1,1,-2,-2,-6,-4,-1
61282514167,0,-1,-1,1,-2,7,5,-2
61282515722,-1,1,-1,-1,-1,-17,-7,-2
61282515722,-3,-1,-1,-2,1,15,7,-2
61282527805,-2,-1,0,0,2,6,0,-1
61282527805,0,1,0,-1,0,4,3,0
61282536726,-1,-2,-1,-2,-2,0,2,-1
61282536726,-2,0,-1,1,-2,-7,-1,-1
61282551795,0,0,-1,0,-2,1,1,-1
61282551795,-2,-1,-1,0,1,-2,-10,0
61282553206,-1,-2,-1,-1,1,3,10,-2
61282553206,-2,-2,-2,-1,-2,0,14,-2
61282574634,1,-1,-1,0,-2,2,-1,1
61282574634,-2,-1,-1,-2,0,9,-5,-3
61282580371,0,1,-2,1,-2,0,-1,1
61282580371,-1,-1,-2,0,-1,-4,-3,-3
61282587717,-2,0,-1,-2,-2,-15,0,1
61282587717,-1,0,-2,-1,-2,-2,0,-1
61282596774,-1,-2,-1,-1,-2,6,-5,-1
61282596774,-1,0,-1,-1,0,-3,-4,1
61282611735,-3,0,-1,0,1,-2,3,0
61282611735,2,0,0,-2,-1,-6,-8,-2
61282613241,0,0,-1,-1,-2,2,3,0
61282613241,-1,-1,-1,-1,-3,-4,-6,1
61282634054,-1,-1,-1,-1,-1,2,0,-3
61282634054,-4,-3,-1,-3,-1,-3,5,-1
61282635704,1,-2,-1,-1,-1,3,-3,0
61282635704,2,-3,-2,-1,-1,-17,-2,-1
61282647718,-1,-1,-2,0,1,13,-8,0
61282647718,-1,-3,-2,-2,-3,-2,6,-1
61282656719,-4,-2,-1,1,-2,-6,-2,-3
61282656719,-2,0,-1,-1,-1,3,3,1
61282671543,-2,0,-1,-1,-2,-3,1,3
61282671543,0,-1,-2,0,1,-8,-2,0
61282673186,0,0,-1,-1,0,7,4,2
61282673186,-1,-2,-2,-1,-3,17,2,-4
61282694174,1,0,1,-1,-1,-4,1,-2
61282694174,-4,0,-1,0,0,0,-5,-3
61282695733,-1,0,-1,-2,-1,2,3,1
61282695733,-2,-1,0,-1,0,-4,-17,-1
61282707902,-2,-2,-3,-3,-1,0,-2,0
61282707902,1,1,0,1,-1,-4,0,3
61282716724,-1,0,-1,-1,-2,-6,1,-3
61282716724,0,-4,1,-1,1,5,2,0
61282731606,-1,-1,-1,-2,-2,-5,-2,-5
61282731606,-3,-2,0,-1,-2,-1,-5,-1
61282733206,-2,-3,-1,-1,0,0,-7,-1
61282733206,-2,0,-1,-1,0,-2,-2,-2
61282754209,-2,-1,-1,0,-4,0,3,1
61282754209,1,0,-2,0,-1,0,1,1
61282755721,0,-1,1,-2,-1,-2,-1,-2
61282755721,-3,-1,-2,-3,-2,-5,11,-3
61282767840,-2,-2,-1,-1,1,3,-2,-5
61282767840,-2,-2,-3,0,-1,-4,-3,0
61282776753,-2,-2,0,-2,-1,-20,0,-2
61282776753,1,0,-1,1,1,11,-2,1
61282791772,2,0,0,-1,-1,6,-3,0
61282791772,2,1,0,0,-2,8,8,-2
61282793200,-4,-1,-2,-1,0,5,0,-4
61282793200,0,0,0,-2,-3,-11,-5,1
61282814186,-1,-4,-3,0,-1,-5,-3,-2
61282814186,0,-1,0,1,-2,-1,-3,-2
61282815679,-1,0,-1,-2,-3,3,3,-1
61282815679,-2,1,1,1,-1,-3,0,-5
61282827860,-2,-1,-2,-1,0,-4,-3,-2
61282827860,-2,-2,0,0,0,0,-2,-2
61282836753,0,-1,-2,-2,-1,0,1,1
61282836753,0,-1,0,-2,0,-7,-4,0
61282851710,-2,-1,-1,0,-4,-4,0,2
61282851710,-2,-4,-3,-2,1,-5,0,-2
61282853193,2,1,-1,1,0,1,-7,-2
61282853193,0,0,-1,-1,-1,2,0,1
61282874175,0,-1,-1,0,-1,-1,-4,-2
61282874175,-1,1,-2,-2,0,3,3,2
61282875702,-1,-1,-1,-1,-1,-3,-5,-1
61282875702,-3,-4,-2,0,-1,-4,-2,-1
61282887927,-1,0,0,-1,0,4,3,-1
61282887927,2,0,1,-1,-2,-2,-2,0
61282896702,-1,0,-2,-2,-1,-5,-4,-2
61282896702,-1,0,-2,-1,-2,17,-4,-2
61282911737,-2,-1,-3,-2,1,13,9,-2
61282911737,-1,-3,-1,-1,-1,-5,-4,0
61282913223,0,-1,1,-1,0,-8,0,2
61282913223,1,0,0,1,0,-3,2,-1
61282934183,-3,-2,0,-1,-1,-4,1,0
61282934183,-1,0,0,-1,0,-1,-7,-2
61282935694,-4,-2,-1,-3,-2,-2,3,-2
61282935694,-1,-3,0,-1,-1,-2,7,2
61282956728,3,1,0,-2,0,-5,-1,1
61282956728,2,0,-2,1,-3,-5,10,1
61282958226,-2,-3,-1,-1,0,6,-3,0
61282958226,1,-1,-1,0,0,-6,-3,1
61282971783,-1,-1,0,0,-2,-1,-3,-3
61282971783,-3,-2,0,-3,-2,7,-5,-3
61282973242,-1,-1,-2,-2,-1,2,1,0
61282973242,-3,-1,-1,-2,0,0,-1,-3
61282994186,0,0,-2,0,1,-7,-1,-1
61282994186,0,0,0,-1,1,-3,-2,0
61282995717,-1,-2,-1,0,-2,5,4,-2
61282995717,0,-1,-2,0,-2,-20,-15,-1
61283016705,-4,-2,-1,-2,-1,14,-1,-2
61283016705,-2,-2,-2,-2,-1,-5,-9,-1
61283018181,-4,-4,-2,0,-1,27,7,-4
61283018181,4,1,1,1,0,-24,10,8
61283031727,1,2,0,-1,-2,-2,-10,-3
61283031727,0,0,-1,0,-2,-10,-12,0
61283033177,-9,-3,0,-2,-1,-1,4,-5
61283033177,-3,-2,-3,-1,-3,14,5,-3
61283054202,0,-2,-1,0,0,-12,7,-1
61283054202,2,-2,-1,1,-1,8,16,2
61283055693,2,-2,-3,-1,-1,-8,-12,-1
61283055693,-1,0,0,-1,-2,2,-3,-1
61283076706,0,-3,-2,-2,-1,-5,6,-2
61283076706,0,0,1,-1,-1,-6,-8,-2
61283078172,2,-1,2,-1,1,9,0,4
61283078172,1,0,-1,-1,0,2,44,1
61283091097,-5,-2,-3,0,-2,-8,-47,-5
61283091097,-7,-1,-3,-1,-3,-2,18,-6
61283097832,15,1,-2,1,-2,-5,3,9
61283097832,-13,1,-1,-1,0,-1,16,-9
61283114211,0,-3,0,-1,0,12,-13,-1
61283114211,1,-2,-2,-2,-3,-16,4,-6
61283115715,2,0,1,0,1,11,-3,12
61283115715,2,-2,-1,-2,0,-4,-40,2
61283136533,1,2,0,0,-1,-17,14,-3
61283136533,-6,-2,1,0,1,3,-21,-4
61283138152,0,-2,-1,-1,-2,1,21,-1
61283138152,0,-1,1,-2,-1,-2,0,-3
61283150868,-7,-3,1,-1,0,-2,15,-2
61283150868,7,-1,-1,-2,-1,10,-20,2
61283157774,-5,0,-3,1,-2,-12,-12,-12
61283157774,-3,-1,0,-1,-2,6,-10,-1
61283174119,2,-1,0,-2,-1,-2,18,3
61283174119,-4,-2,0,0,2,9,-3,0
61283175779,-6,-3,-2,0,-2,-7,-19,-7
61283175779,6,1,1,0,-2,-5,-2,5
61283196396,10,1,-2,-1,0,-9,-14,9
61283196396,-8,1,-1,-2,-1,21,52,-1
61283202771,-3,0,-1,-2,-1,-6,-22,-5
61283202771,3,-1,0,1,0,1,7,2
61283210364,-3,-3,0,0,-2,-8,-7,1
61283210364,-2,-2,-2,0,0,1,-1,2
61283219226,-2,3,0,-2,-1,-11,18,-3
61283219226,1,0,-2,-1,0,12,-11,2
61283234297,0,-1,-2,-2,-1,27,8,-8
61283234297,4,0,0,-2,-3,-16,21,8
61283235696,-6,2,1,0,-1,-2,16,0
61283235696,-4,-4,-2,-1,-2,-12,-33,-1
61283256586,1,0,-1,1,2,10,6,-2
61283256586,4,-1,-1,-2,0,-9,-2,-3
61283258208,-6,-7,-2,-1,-2,-23,-2,-7
61283258208,5,0,-1,-3,-2,9,5,3
61283270305,-13,1,-2,0,-3,-6,1,-7
61283270305,0,-2,1,0,-1,-8,-13,0
61283279319,0,-1,-1,-2,0,-1,-4,-7
61283279319,-2,-3,-2,-1,-1,-5,-1,-1
61283294207,1,-1,-1,-1,-3,-5,-12,-2
61283294207,-3,0,-1,-1,0,2,-6,3
61283295717,0,1,-1,-3,-1,9,12,1
61283295717,-6,-4,-4,-4,-2,-16,-54,-14
61283316687,5,3,2,-1,0,25,10,7
61283316687,-2,0,-2,-1,0,-2,-16,-3
61283318186,2,0,-2,0,-1,5,21,2
61283318186,0,-2,-3,-3,-3,-10,-43,-6
61283330347,-6,-3,-3,-1,-4,-5,2,3
61283330347,1,-2,-1,0,0,-1,2,-4
61283339209,0,1,1,-1,-2,2,-3,-2
61283339209,-3,-1,0,0,3,4,30,-4
61283354292,3,0,1,-1,-1,-8,11,6
61283354292,-4,-5,-2,-1,-2,4,36,4
61283355670,8,1,0,0,-1,-11,-75,-2
61283355670,0,0,-2,0,-1,5,16,-6
61283376663,-15,-3,-3,-3,-2,-10,-11,-9
61283376663,-3,1,1,-1,-2,-5,2,4
61283378197,6,0,0,1,0,-17,2,5
61283378197,3,3,1,0,1,41,40,7
61283390361,-3,-9,0,-3,-2,-30,-3,-9
61283390361,-2,1,-1,-1,1,4,-21,-5
61283399205,-5,-4,0,0,-1,-1,9,-3
61283399205,-3,-2,-1,-2,0,7,14,12
61283414057,3,2,-1,0,0,1,5,-13
61283414057,-1,-3,-1,-2,-1,3,-32,0
61283415684,-1,1,-1,-1,0,4,4,-1
61283415684,-3,-3,-2,0,-2,-7,-4,-5
61283436744,-3,-4,-4,-1,-2,4,19,2
61283436744,1,1,0,1,-2,-7,1,2
61283438217,3,0,0,0,1,8,-22,0
61283438217,-2,-3,0,-1,-3,-11,16,-2
61283450283,-12,-3,-1,-2,-1,-1,-16,-5
61283450283,4,1,-2,-1,0,-6,28,3
61283459234,-2,-2,-1,-1,-1,-1,-65,-2
61283459234,0,-1,0,0,1,-29,10,0
61283474179,3,1,0,-2,-1,26,-5,0
61283474179,-7,-7,-4,-1,-2,-2,0,-5
61283475710,2,2,1,-2,-3,8,41,9
61283475710,-1,0,-1,-1,-3,-22,-10,0
61283496746,2,0,0,1,-1,-8,7,4
61283496746,0,0,-1,-2,-1,-7,-35,-4
61283498225,-7,0,-2,0,1,7,23,-1
61283498225,-1,2,1,1,-2,-4,-2,-4
61283510337,-2,0,-2,-4,-5,-6,7,2
61283510337,-5,-5,-3,-2,-1,9,16,-2
61283526720,-3,-4,-2,0,-1,-9,-37,-8
61283526720,-5,-4,-2,-1,0,3,34,-3
61283534150,2,-2,-2,1,1,9,-10,2
61283534150,1,4,1,-2,-3,-25,-22,-4
61283535734,-2,-3,-2,-3,-4,-9,23,14
61283535734,1,0,0,-1,0,18,-4,-10
61283556666,0,-2,0,-1,-1,-28,-4,3
61283556666,6,0,-2,0,1,25,-6,0
61283558197,-3,-2,-1,-1,-2,3,21,1
61283558197,-5,0,-2,-2,-3,-7,-15,-3
61283570338,-4,-2,0,-1,0,-5,-8,2
61283570338,3,4,1,-1,0,-4,3,2
61283579323,2,0,-1,-1,-1,-2,14,-3
61283579323,-3,-3,-2,0,0,8,-8,3
61283593482,-3,0,-1,0,-2,2,-4,-8
61283593482,0,0,1,-1,-1,-3,19,5
61283600344,0,-2,0,-1,1,8,19,-3
61283600344,0,-2,0,-2,-1,-1,-17,1
61283616684,5,2,-1,-3,-1,4,12,4
61283616684,-6,-1,-1,0,-2,-7,-27,-13
61283618228,-2,-2,-1,-1,-1,3,13,-2
61283618228,-1,0,0,-1,-1,-3,6,-6
61283638457,-1,-3,-1,2,1,6,-10,9
61283638457,-2,-2,-1,-2,-2,1,8,3
61283639187,-1,0,-2,-1,-1,-8,-9,-5
61283639187,-6,-1,-1,0,0,20,-2,-5
61283653524,9,1,2,-2,-4,-4,11,7
61283653524,-4,-2,-1,-1,-2,-7,-10,-5
61283654189,2,0,0,0,-1,0,8,-1
61283654189,1,-1,-1,0,0,0,7,3
61283676016,-2,-2,-2,-1,1,-7,-4,-4
61283676016,-2,-2,0,0,-3,22,2,14
61283676675,-1,-1,-2,-3,-2,-6,-32,-13
61283676675,-1,0,-1,-2,-1,-6,0,2
61283698486,0,-2,-1,0,0,2,17,-2
61283698486,-3,-1,-1,-2,1,1,-30,-9
61283699164,0,-2,-2,-1,-1,11,2,5
61283699164,7,3,0,-2,-2,-4,-4,4
61283713405,3,1,1,0,0,-7,-18,0
61283713405,2,-2,-2,-1,2,-1,19,-3
61283714180,-8,-3,-3,-1,-1,1,14,-3
61283714180,-2,0,-3,-1,-1,-12,-45,-6
61283735957,-1,1,-1,-1,-2,5,28,-1
61283735957,-2,-1,-1,-1,1,-5,0,-3
61283736638,-6,-4,-1,-1,-5,1,12,2
61283736638,-2,-3,-1,-1,-2,-2,-1,-2
61283758549,-7,-1,-2,-2,-3,-13,-68,-11
61283758549,0,-3,-2,-2,-4,-5,7,1
61283759190,2,-2,-1,-2,0,1,-3,-7
61283759190,1,1,-1,0,0,11,11,13
61283773395,1,2,1,0,0,15,16,4
61283773395,-1,1,-1,-2,-2,-1,1,-3
61283774172,-5,-4,-1,-1,1,-6,0,-2
61283774172,7,1,-2,0,0,-2,4,13
61283795995,0,-1,-2,-1,-1,-6,-9,-5
61283795995,0,-2,-1,0,-1,1,14,6
61283796661,3,2,1,0,-1,-2,-7,2
61283796661,-5,-4,-1,0,1,-6,-12,-12
61283818494,-4,-4,-2,0,-3,-4,19,7
61283818494,1,-1,1,0,-3,-9,-30,-5
61283819164,-5,-2,-2,-2,-1,2,10,-1
61283819164,-2,0,0,-3,-3,-20,8,0
61283833406,0,-2,-2,-2,3,13,-24,3
61283833406,9,3,2,0,0,3,17,-2
61283834169,4,3,1,-1,1,1,-23,1
61283834169,-3,-1,-2,-1,-3,0,30,0
61283855939,-10,-8,-3,-1,1,0,8,-6
61283855939,-1,1,-1,-1,-4,-4,-10,1
61283856659,2,1,-1,0,5,6,-10,7
61283856659,-3,-4,0,-1,-10,3,1,3
61283878417,1,-2,0,-3,3,-5,-18,-2
61283878417,-3,-4,-4,-1,1,-4,-3,-3
61283879157,1,-2,-1,-1,1,-1,-5,-2
61283879157,-6,-2,1,-1,7,6,13,-2
61283893431,3,1,0,3,-6,6,-4,0
61283893431,-7,-3,-1,-1,4,-2,26,1
61283894163,-1,-2,-1,-2,0,-16,-3,-6
61283894163,-3,-2,-2,-2,-6,8,1,-4
61283915878,-4,-3,-4,-6,-1,10,14,-6
61283915878,-2,-1,-1,-2,-2,-10,-17,-2
61283916692,8,2,2,0,6,0,15,6
61283916692,-3,-2,-2,1,-2,0,-8,-2
61283938474,-3,4,2,1,-3,-5,-5,-1
61283938474,2,1,-2,0,3,-5,-5,-3
61283939155,-4,-4,-4,-1,-2,5,-1,0
61283939155,2,0,0,-2,-3,-32,-25,4
61283953517,-1,-1,0,-3,-9,24,22,-2
61283953517,-4,-1,-1,1,2,9,13,-3
61283954219,0,-1,2,1,9,-30,-21,0
61283954219,2,-1,-2,1,-5,22,16,-5
61283976012,-1,-2,-1,-1,3,3,-23,1
61283976012,-7,-6,0,3,2,-1,11,-3
61283976671,6,4,1,-3,-20,-14,-33,-4
61283976671,-4,-3,-2,-3,10,-26,9,7
61283998509,7,2,-1,3,0,-12,-7,7
61283998509,4,0,-2,-4,-4,-22,5,0
61283999191,-4,-2,-2,3,0,47,7,2
61283999191,-2,-1,-1,-2,0,3,-3,-7
61284013524,2,0,2,-1,5,-16,-2,-2
61284013524,0,-2,-1,-1,-3,11,14,8
61284014199,-4,-4,-4,-1,4,-8,-6,-16
61284014199,-1,2,3,0,-17,11,0,-6
61284036016,-4,-5,-2,0,2,-10,-2,6
61284036016,4,4,1,0,5,29,-13,-7
61284036685,-5,-1,-1,-4,2,-24,-2,-2
61284036685,-6,-3,-3,-3,5,-2,-21,-13
61284058537,-1,-2,-1,1,4,-10,10,4
61284058537,-1,-4,-3,-2,-10,-3,0,-5
61284059194,-9,-3,-1,-2,-2,0,-32,10
61284059194,10,5,2,0,6,-3,4,7
61284073469,-2,-2,-1,-2,0,7,12,-11
61284073469,-4,-4,-4,0,5,0,-7,0
61284074211,4,2,0,-1,-11,-12,29,7
61284074211,-6,-3,-1,1,4,7,-8,0
61284096055,-3,0,-4,-3,-8,-1,-6,-13
61284096055,4,2,2,0,-3,-5,-11,4
61284096682,-6,-3,-4,-3,1,4,-8,-16
61284096682,0,0,1,0,-4,4,-2,5
61284118536,-9,-4,-3,1,5,-5,-6,-9
61284118536,12,5,-2,0,6,10,9,-4
61284119183,-6,-5,5,0,-16,6,16,6
61284119183,7,0,2,0,4,8,-4,7
61284133381,-1,1,-1,-4,-17,-17,3,-6
61284133381,-7,-5,-5,-1,10,-4,-9,-3
61284134221,4,3,10,7,20,16,4,4
61284134221,8,5,3,-1,-19,-5,-5,-8
61284155978,-2,-2,2,-4,2,11,17,9
61284155978,-8,-4,-8,-7,-9,-8,-26,11
61284156661,-3,-1,-10,-4,6,1,5,-24
61284156661,-5,-3,2,3,11,-39,1,-2
61284178565,-5,-3,25,24,4,54,25,26
61284178565,3,2,-5,-17,-10,5,13,-12
61284179160,-3,-4,-26,-11,-23,-34,-4,6
61284179160,-4,-4,-6,1,15,0,-7,-7
61284193396,5,2,2,-5,-15,-14,-8,-1
61284193396,-1,-4,9,8,13,13,-22,-5
61284194155,4,2,-5,-2,-14,-16,11,5
61284194155,2,-2,-8,-5,1,23,13,5
61284215858,-3,0,-5,-1,-6,14,-13,0
61284215858,1,1,3,2,1,-24,-10,-10
61284216634,6,2,-16,-4,3,4,5,-4
61284216634,-9,-9,-5,1,4,5,-6,-7
61284238652,9,8,31,2,-2,8,-3,1
61284238652,-9,-3,-5,-3,-6,-34,-5,-4
61284239166,-2,-3,7,-4,-10,24,-3,1
61284239166,-8,-3,-15,-8,3,-13,-6,5
61284253446,7,-1,-14,-6,5,-4,9,3
61284253446,1,1,2,1,-5,10,13,8
61284254156,-1,-2,4,7,15,30,-12,-2
61284254156,8,2,7,4,-5,-16,3,5
61284275961,-11,-3,-15,-8,-3,9,-11,-19
61284275961,-6,-1,0,3,-4,-28,9,2
61284276657,1,-6,-1,1,1,-6,-2,9
61284276657,3,0,-1,-4,-11,3,1,-8
61284298444,2,1,-2,2,7,-16,-8,1
61284298444,12,-2,-18,0,0,11,-2,11
61284299148,-10,-3,30,-3,2,-12,10,-3
61284299148,-5,-2,1,2,-5,76,-4,-5
61284313459,4,-1,6,7,12,-20,6,-1
61284313459,-9,0,-9,-9,-15,10,1,-2
61284314172,7,3,-13,-4,4,-14,-6,1
61284314172,10,2,5,-3,-1,-7,-7,2
61284335966,-7,-2,-1,5,0,-14,1,1
61284335966,-1,-4,-4,-4,-1,18,-4,-6
61284336653,-3,0,-2,2,0,1,0,5
61284336653,-7,-1,-1,-5,-5,-1,0,-10
61284359121,7,0,-8,-4,-4,-20,-10,-10
61284359121,1,1,8,4,1,24,9,-8
61284359857,-1,2,2,1,-2,-22,5,1
61284359857,2,-3,-1,0,-1,-16,-8,7
61284373543,2,-1,-11,-4,-1,-3,2,1
61284373543,-9,-4,9,0,1,19,-1,-4
61284374172,3,3,1,-3,-14,-31,-2,-10
61284374172,-8,-4,-6,1,-2,30,0,1
61284395992,1,0,0,-8,-2,12,-2,-1
61284395992,1,-4,-4,-2,-6,-26,-3,-12
61284396748,-3,2,16,5,3,27,7,15
61284396748,5,2,-10,0,7,-10,-3,-4
61284419176,-5,-3,16,4,-9,-32,-7,-7
61284419176,-16,-4,-16,-3,4,2,4,9
61284419849,12,-1,1,-5,-3,12,-16,-13
61284419849,3,3,6,5,3,-2,0,-6
61284433435,-1,-3,-32,-2,0,-1,2,7
61284433435,1,2,22,2,-3,-32,-1,13
61284434207,-10,-4,-12,1,9,13,3,-1
61284434207,-3,-1,0,-6,-15,-14,-1,-3
61284455970,-3,-3,-9,-5,0,-6,-3,-4
61284455970,7,1,7,1,-8,-20,-9,-2
61284456662,-2,0,-1,-1,2,-20,2,-6
61284456662,1,2,3,3,2,-6,1,-6
61284479359,-15,-7,-4,-6,2,27,6,-1
61284479359,3,1,-7,-1,2,6,-12,-17
61284479857,3,0,0,1,-2,-8,3,0
61284479857,-5,-1,7,-2,-2,-16,1,6
61284492874,-3,1,5,3,2,0,-1,-6
61284492874,2,-1,0,-2,-1,-10,-1,5
61284501012,0,-1,-5,-1,-1,15,3,-2
61284501012,-6,-5,-8,-3,-1,-13,-3,-8
61284515890,0,-2,0,-2,-1,9,-3,0
61284515890,11,5,4,2,0,2,3,9
61284516697,-8,-4,-27,-6,-10,24,-6,-7
61284516697,3,-5,11,1,1,-19,3,11
61284539155,4,2,-2,-4,3,30,7,-2
61284539155,-3,-2,-26,-4,-10,-2,0,1
61284539840,-2,-1,22,-1,1,2,-3,-10
61284539840,4,0,8,5,6,-38,-5,4
61284552854,-3,-3,1,-3,-3,10,0,4
61284552854,-3,2,-1,3,7,10,-3,-4
61284561036,6,1,-7,0,-3,8,7,11
61284561036,-1,1,-3,-1,-6,15,3,1
61284575955,-3,-2,13,2,-1,-1,-6,6
61284575955,-9,-2,-3,-4,0,-31,3,-3
61284576691,-7,-5,2,0,-2,-27,-5,1
61284576691,7,2,-6,-8,-5,8,2,0
61284599217,1,-3,-13,-2,-1,12,-3,-2
61284599217,-3,0,9,3,1,11,2,-4
61284599859,0,0,13,3,-2,-24,4,1
61284599859,-8,-2,-11,-5,3,24,-2,5
61284612872,2,1,-3,-2,-6,-31,-5,-8
61284612872,5,-2,3,2,1,-7,-3,2
61284620881,-5,-1,-24,-3,0,17,4,6
61284620881,2,-1,4,-2,-2,6,-1,-2
61284635871,-6,-2,17,1,3,-19,-6,-3
61284635871,-2,-2,2,-2,-8,26,-2,-6
61284636649,2,0,-3,3,3,-3,0,1
61284636649,-3,-2,-7,0,-3,-7,-3,6
61284659011,4,0,-12,-3,-1,17,3,-5
61284659011,-5,-4,-14,-3,-1,9,1,3
61284659806,-1,-2,23,-3,0,22,5,1
61284659806,-8,-2,6,5,-5,-58,-6,-7
61284672791,3,4,-6,-12,3,25,9,8
61284672791,-2,0,-3,-6,-14,-11,-4,-2
61284681078,-2,-3,-27,-5,-6,30,1,3
61284681078,-2,-3,6,-1,1,-50,-4,-3
61284696063,0,0,4,7,-1,-19,-6,-7
61284696063,5,1,3,2,15,8,0,0
61284696666,-2,0,-5,-5,-9,-45,-8,-4
61284696666,0,-2,0,-2,-3,39,6,5
61284719178,1,0,-10,2,-2,-23,-5,-5
61284719178,-4,-1,15,1,1,5,3,-3
61284719826,-2,-1,5,2,4,-2,-5,-6
61284719826,-1,-2,-7,-2,2,22,-4,-5
61284732823,2,-1,-2,-2,-3,-9,-3,6
61284732823,-10,-4,-3,-4,1,5,-1,3
61284741012,1,0,4,1,0,2,1,-2
61284741012,2,2,-6,-2,-1,31,3,2
61284756009,-2,-1,-5,-2,-2,-13,-5,-3
61284756009,-3,0,2,2,-1,-8,-9,-13
61284756694,-5,-2,1,2,0,-3,2,9
61284756694,6,0,-3,1,-4,50,-8,-16
61284779345,1,-1,5,-4,0,-43,-2,2
61284779345,-4,1,1,2,3,-3,8,12
61284779811,-3,-3,-13,-2,-2,-26,-6,-7
61284779811,-1,-1,-19,1,3,-15,1,6
61284792806,2,1,36,-1,-3,31,6,-6
61284792806,2,-2,-7,-4,-9,2,1,4
61284801150,2,2,-1,-1,-1,-14,-13,-9
61284801150,-2,-4,-9,-4,-3,5,4,9
61284815959,-4,-1,-14,1,0,-19,-4,-3
61284815959,-5,-3,1,-2,4,-22,5,4
61284816719,4,4,5,3,10,32,6,-2
61284816719,1,-1,-3,-3,-4,-22,-6,-8
61284839086,-3,-2,-3,1,-1,17,1,7
61284839086,7,3,9,2,-1,-41,-10,-12
61284839839,2,-3,-4,-2,-2,27,2,2
61284839839,5,3,9,-1,1,-2,4,6
61284860635,-6,-5,-9,-3,2,-9,-10,-2
61284860635,1,0,-5,-2,-3,0,2,4
61284868362,-6,-4,2,1,0,-9,-2,-10
61284868362,1,2,7,2,-1,0,8,2
61284875797,3,0,-8,-2,-2,-5,-7,-7
61284875797,-2,-4,2,5,-1,17,0,-2
61284876594,0,-1,-4,-8,-3,-27,-10,3
61284876594,-7,-1,-17,-6,-1,19,-6,-8
61284899143,0,-2,19,-1,-1,-2,2,2
61284899143,0,-1,11,6,2,4,-2,-7
61284899836,0,0,-2,-1,-3,-1,1,2
61284899836,-7,-5,5,-2,-2,-13,-5,6
61284921667,1,-2,-18,-2,-5,24,1,4
61284921667,6,3,3,-2,-1,15,0,-6
61284922406,1,0,-1,-2,-2,-12,-2,1
61284922406,-9,-5,0,-3,-3,5,-1,-5
61284935965,-4,0,15,6,-4,-16,-2,-6
61284935965,-5,-3,-14,-11,-2,7,-1,6
61284936627,-2,0,2,3,4,2,-2,-1
61284936627,0,0,-11,-4,2,-20,2,1
61284959073,10,5,0,3,-1,-2,-4,5
61284959073,-4,-3,-6,-2,-5,-1,-2,-3
61284959860,-1,1,7,-4,-2,3,2,-6
61284959860,7,-1,12,6,2,29,-2,5
61284981670,0,-2,-13,-4,0,26,7,1
61284981670,10,5,5,-1,0,15,4,6
61284982306,-3,-4,-1,2,-1,3,-1,-3
61284982306,1,0,4,0,-10,-5,0,1
61284995964,-5,-1,-5,-2,3,-9,-5,5
61284995964,-4,-1,-7,-2,-1,-44,-2,1
61284996664,-5,-5,-1,-1,1,33,1,-4
61284996664,-3,2,5,2,2,-17,9,1
61285019088,-3,0,-7,-2,-1,-21,-10,-13
61285019088,0,-2,-2,-1,-2,-4,-2,0
61285019821,2,0,3,-1,-2,-9,-2,4
61285019821,-6,-4,-4,-3,0,-5,-5,-6
61285041774,-2,1,-1,-1,-1,-22,6,10
61285041774,1,0,8,7,7,27,-7,-14
61285042362,2,-1,-32,-7,-3,12,3,8
61285042362,-3,-2,13,-2,1,-29,-6,-11
61285055960,1,-3,-19,-3,1,0,5,-3
61285055960,-1,1,25,6,-5,-2,0,2
61285056659,-5,0,12,4,4,29,0,-11
61285056659,0,-1,-21,-3,0,4,-2,-4
61285079137,-2,-2,14,1,-2,-3,-4,3
61285079137,-1,1,-15,-9,-6,-2,-2,3
61285079813,-2,-1,-1,1,-6,-8,0,-8
61285079813,-1,2,1,0,2,-3,-6,-5
61285101517,-2,-3,-1,0,3,15,0,-7
61285101517,-3,-4,-4,7,1,17,3,8
61285102327,-1,0,4,-6,-4,-34,-9,-4
61285102327,5,3,0,1,-3,7,6,3
61285124143,-1,-6,-9,-6,-2,-4,-2,11
61285124143,0,-1,2,3,1,-1,4,-5
61285124806,0,0,4,3,-3,-7,-1,3
61285124806,-2,-3,-10,0,1,15,0,-2
61285139068,-4,0,8,-1,-2,-1,0,1
61285139068,-2,-2,-6,1,-1,1,-2,-1
61285139837,-4,-2,0,-2,-4,-9,1,5
61285139837,-1,-2,-1,1,4,0,-2,-7
61285161704,0,2,4,4,3,6,4,-1
61285161704,-6,-4,-8,-6,-7,-2,-6,-3
61285162331,-5,-3,-3,-2,0,-18,0,-4
61285162331,-1,1,3,1,-2,-30,-3,-1
61285175345,-4,-4,-5,-3,-3,-4,0,0
61285175345,-3,-3,-18,-7,1,7,2,-3
61285184183,-1,-1,7,1,1,10,0,0
61285184183,0,1,21,6,-2,-7,4,8
61285199134,-3,-1,-2,-1,5,-11,-5,-7
61285199134,-2,-1,-5,-2,-8,-3,1,-2
61285200657,5,-1,-23,-8,-3,0,4,3
61285200657,-3,-1,14,0,7,-2,-7,-4
61285221728,-5,-3,9,3,-1,6,-1,-8
61285221728,9,3,-2,-2,6,-6,3,12
61285223180,-2,0,3,1,0,-11,-3,10
61285223180,-5,-6,-12,-4,-9,18,4,0
61285235387,0,-1,-8,-2,4,2,-1,-3
61285235387,-1,-2,6,-2,-2,-42,-4,3
61285244203,-4,-1,2,3,2,45,3,1
61285244203,3,2,-3,-1,3,14,-3,-5
61285259138,3,-2,-1,0,-9,-5,-1,4
61285259138,1,-2,-3,-2,-2,-13,-5,-4
61285260666,0,-2,3,1,-1,-3,3,0
61285260666,-7,-2,-5,-2,-2,-10,0,3
61285281775,4,-2,-3,-3,-3,2,0,3
61285281775,-2,0,2,-1,4,9,0,-10
61285283175,-1,-1,-1,2,0,-11,-5,-2
61285283175,0,-2,0,-1,-5,-2,-2,3
61285295272,-3,0,-4,-1,-1,-16,-5,-4
61285295272,-4,-2,-3,-4,-4,-9,-5,-4
61285304215,0,-1,1,0,0,9,-1,-4
61285304215,-2,-1,-12,-1,-1,-8,1,-5
61285319027,-1,0,14,4,0,2,1,-2
61285319027,-1,-1,-6,-7,-3,11,-2,-1
61285320641,0,2,-9,-3,-6,5,-6,-2
61285320641,-3,-3,4,-1,-2,-8,-2,0
61285341664,1,1,-5,-1,-2,11,2,0
61285341664,-6,-2,1,-1,2,12,-2,0
61285343123,4,-2,2,-1,2,-8,-1,0
61285343123,-1,0,-6,-4,-4,0,1,-1
61285355235,0,0,-2,-2,-3,-2,-2,-2
61285355235,-3,-3,3,-1,-1,9,-1,-2
61285364207,-2,-1,-1,0,-2,-6,0,-2
61285364207,-2,-3,-2,-2,0,2,-3,-4
61285379187,-1,-1,-3,0,1,9,-2,-4
61285379187,-2,0,-1,1,-1,3,1,2
61285380674,-2,-1,3,0,0,-6,-2,-2
61285380674,0,0,2,0,1,9,3,0
61285401585,-2,0,-2,-3,-3,-9,0,0
61285401585,-1,-1,-2,-1,-1,7,-1,-2
61285403169,0,-1,2,-1,-3,-3,-2,-2
61285403169,0,-1,1,-1,-2,-7,-1,0
61285415312,-2,-1,-6,-3,-2,-7,-5,-3
61285415312,1,-2,0,-1,1,5,-4,-5
61285424182,-3,-3,1,-1,2,-7,3,-1
61285424182,0,0,-2,-2,-4,5,-3,-4
61285439177,2,0,-3,1,0,-9,-1,1
61285439177,-3,-1,-1,-1,1,0,-1,-2
61285440615,3,3,0,-2,1,2,-2,2
61285440615,-4,-5,0,0,-3,-3,9,-3
61285461669,-2,-2,-2,-3,-2,-6,-13,-3
61285461669,-4,-4,-1,2,-3,-14,-9,-4
61285463164,0,0,-1,3,3,25,6,1
61285463164,-1,0,-2,-2,-2,-8,-7,-5
61285475336,0,-2,3,12,0,-9,29,0
61285475336,-3,-1,-4,-15,-3,4,-44,-5
61285484165,-2,-2,-1,-5,-4,-14,5,-2
61285484165,-2,0,-1,-1,-2,-3,-19,-2
61285499244,0,-1,-3,-3,-3,17,39,5
61285499244,-2,-1,1,6,0,-9,-30,-3
61285500642,1,0,1,-1,-2,10,10,-1
61285500642,3,0,1,-2,2,13,13,0
61285521700,-5,-2,-3,-7,-3,-9,-11,-5
61285521700,0,-1,-2,2,0,6,65,1
61285523173,-2,0,1,1,0,8,-10,-1
61285523173,-2,0,0,1,-2,-20,-15,-3
61285535320,1,0,-3,-7,-1,1,-28,-1
61285535320,1,0,-1,5,0,5,15,1
61285544175,-1,-3,-1,-1,-1,-12,-6,-3
61285544175,1,-1,-2,0,0,-3,16,-1
61285559115,-2,-1,-2,-1,0,-4,-4,-1
61285559115,-1,0,0,-2,-3,-8,-8,0
61285560641,0,0,0,0,1,4,12,1
61285560641,-2,-2,-1,0,0,-6,0,-1
61285581706,0,-1,-1,-4,-2,9,3,-1
61285581706,-2,-3,-1,0,1,7,-30,0
61285583177,-2,-1,-1,1,0,3,53,1
61285583177,1,0,-1,-2,0,-5,-52,1
61285595177,-5,-3,-2,1,1,-11,-32,-3
61285595177,1,2,0,0,0,-4,10,-1
61285604213,-2,-3,-3,-3,-4,-11,-11,-2
61285604213,1,2,0,-1,0,-4,5,4
61285618512,-1,-1,0,-2,-1,2,23,0
61285618512,0,0,-3,-1,1,-7,-3,3
61285625280,1,0,-1,0,-1,-9,-8,-6
61285625280,-3,-2,-2,-1,-2,8,29,0
61285641769,1,-1,0,-1,-1,4,-13,-1
61285641769,-2,0,0,-2,0,11,-1,-2
61285643153,-1,0,0,0,1,-6,-9,0
61285643153,-4,-2,-3,-1,-1,0,-24,-2
61285655227,1,0,-3,-2,-2,-2,12,4
61285655227,0,1,-1,0,-1,2,26,3
61285664151,-2,-1,-1,0,-2,-37,4,3
61285664151,2,0,1,0,1,-3,-36,-2
61285678457,-2,-1,-2,-2,-5,-9,-14,0
61285678457,1,-1,0,-1,-3,-17,23,0
61285685335,-6,-1,1,-1,-1,13,4,0
61285685335,-3,-2,-2,0,-1,-2,18,2
61285701543,-4,0,1,-2,-2,2,-39,-9
61285701543,-1,-4,-1,-3,-3,-7,-5,0
61285703128,1,1,-2,-2,0,19,-7,-1
61285703128,0,0,-2,-3,-8,-48,25,-4
61285715288,1,1,0,1,2,15,18,2
61285715288,-6,-3,-4,-1,-1,9,8,-6
61285724203,3,-2,-2,-1,0,-1,-9,2
61285724203,-2,1,-2,-1,1,29,30,1
61285738603,-1,1,0,1,-1,-2,-18,-1
61285738603,1,1,0,-1,-4,-19,-12,3
61285745320,-2,-2,-2,-1,-4,2,37,-1
61285745320,-4,-4,-2,-3,-2,-15,-54,-6
61285761696,-4,-3,-1,0,1,-4,12,-2
61285761696,-1,1,0,0,3,11,-13,1
61285763162,0,-2,-1,-1,-2,-13,-8,0
61285763162,-1,-1,0,-1,-2,8,-15,3
61285784037,-8,-4,0,-1,-2,-15,-67,-15
61285784037,1,1,-1,-1,-1,10,23,3
61285785623,3,2,-1,-1,-4,-18,-5,-4
61285785623,-3,-3,-1,0,-2,9,20,0
61285798496,-2,-4,-4,0,-2,-1,27,5
61285798496,2,1,-1,1,-2,-3,33,-3
61285805307,-6,-4,-2,-5,-3,-12,-10,-9
61285805307,-1,-1,0,0,1,11,23,2
61285821656,5,1,-2,-1,0,3,-1,1
61285821656,-10,-3,0,1,2,13,-9,-2
61285823180,2,0,1,0,-2,4,-14,1
61285823180,-1,-2,-1,0,-1,5,9,-2
61285844123,4,3,0,-1,0,5,19,4
61285844123,1,-2,-1,-2,1,40,-5,-1
61285845676,-4,-3,-1,1,0,1,11,-1
61285845676,3,-2,-1,-1,0,5,-18,-1
61285858369,5,1,1,1,0,-4,-7,0
61285858369,1,1,-1,-1,-3,-14,-39,-5
61285865313,-4,-2,-2,-2,0,-2,-26,-2
61285865313,-4,-1,-2,-1,0,-14,27,-2
61285881487,-4,-3,-1,-1,1,46,11,2
61285881487,2,-1,-1,1,-3,-28,-1,0
61285883108,-3,-3,-3,-3,-4,-2,0,-1
61285883108,2,1,1,1,2,2,14,4
61285904164,-2,-4,-2,-2,1,-3,13,-4
61285904164,-4,-3,-2,-2,-1,-5,-25,-6
61285905679,1,0,-2,-1,-1,10,18,0
61285905679,4,2,0,0,0,-1,-60,0
61285918488,-4,-3,-1,-1,2,4,27,1
61285918488,-2,-1,-1,-1,-2,-19,1,-3
61285925160,1,0,-1,-4,1,4,-28,-6
61285925160,-3,-1,-2,-2,-3,-10,-33,-2
61285941714,2,2,0,-1,1,-2,22,4
61285941714,0,0,-1,0,-1,-8,2,3
61285943136,1,0,-1,0,-1,-4,21,0
61285943136,-3,-1,1,0,-1,-11,-28,-3
61285964069,0,-1,-2,-2,0,7,1,-2
61285964069,-4,-2,-4,-2,-3,0,35,-2
61285965668,-2,-1,-1,-1,-2,3,-19,-1
61285965668,2,1,0,1,2,8,4,0
61285977738,-6,-4,-4,-4,-8,-48,27,-10
61285977738,2,0,-2,-4,1,3,-40,-2
61285986673,1,1,-1,-1,-1,6,37,6
61285986673,-2,-3,-1,0,-1,-4,-7,-2
61286001639,1,0,2,2,0,6,-4,1
61286001639,-2,-1,-1,-2,3,-6,8,-6
61286003147,-2,-1,-1,-1,-1,5,-20,-2
61286003147,-3,-3,-2,-2,-1,4,37,1
61286024062,1,0,-2,-5,-3,5,1,0
61286024062,6,-1,-1,0,-2,1,25,3
61286025627,-10,0,-1,-1,-3,-13,-45,-9
61286025627,1,0,-1,-1,1,10,6,0
61286037753,1,-1,0,-1,0,-8,-13,2
61286037753,-2,-2,1,-1,-1,-4,-7,-3
61286046700,-2,-3,-2,0,-2,-1,31,-1
61286046700,2,-1,-3,-3,-1,16,29,4
61286061667,-1,1,0,0,0,12,10,-1
61286061667,0,0,1,0,0,-11,-15,-3
61286063155,1,-3,-1,-2,-3,-10,-14,1
61286063155,-4,1,-2,-1,-1,-6,38,1
61286084137,-4,-3,-2,1,-3,4,-10,-2
61286084137,-2,0,-1,0,1,4,-20,2
61286085622,1,-1,-2,2,0,10,23,-2
61286085622,-3,-2,0,0,-3,-3,9,-4
61286097799,0,-1,0,-1,-1,-16,-22,2
61286097799,-1,-1,1,3,-1,2,-13,1
61286114184,-1,-2,-1,1,1,-6,1,-2
61286114184,0,-1,-2,-9,-1,3,-28,-2
61286121664,-3,-1,-2,-2,-3,0,-13,-3
61286121664,0,0,-3,-5,-1,2,11,2
61286123197,1,1,1,3,2,11,-3,3
61286123197,-1,-1,0,2,-2,-11,5,-5
61286144174,1,-1,0,0,-2,-5,6,-1
61286144174,-6,-4,-4,-3,-4,-1,-35,-7
61286145643,2,2,0,-2,1,-10,9,0
61286145643,-2,0,1,3,-2,16,-9,-2
61286157719,-2,0,-2,-2,-2,-12,10,0
61286157719,0,-2,1,-3,0,-2,2,1
61286166675,-1,-1,-2,-2,-3,-3,-15,1
61286166675,-2,-2,-2,-3,-1,-15,-18,-2
61286181583,-1,-2,-1,1,1,4,-21,-3
61286181583,-2,-2,0,1,-2,0,34,0
61286183134,0,-3,-1,-3,-2,1,-22,0
61286183134,-1,-3,-2,-2,-3,-14,31,-3
61286204156,-1,-1,0,-2,-4,11,-19,-1
61286204156,-2,-1,1,2,0,-7,6,1
61286205642,2,0,0,-1,2,0,4,1
61286205642,-3,0,-1,-1,0,5,-37,-3
61286217731,-4,-1,-1,-2,-1,-9,-15,-6
61286217731,0,1,-3,-2,1,2,0,1
61286232788,-2,-4,-3,-2,-2,-1,4,-2
61286232788,-1,-3,1,5,0,5,1,1
61286241764,-3,-2,1,4,-2,-7,5,1
61286241764,0,0,-1,-8,-4,-20,-6,2
61286243148,1,0,-2,-6,1,7,-9,0
61286243148,1,-1,-2,-3,0,-6,1,0
61286264280,-3,-3,-1,-2,-1,8,-3,-2
61286264280,-1,-2,-3,0,-3,-9,21,0
61286265623,3,2,0,1,0,1,-1,0
61286265623,-1,-1,-1,-2,-1,2,12,-2
61286277787,1,-1,-1,0,2,-11,-19,-4
61286277787,-4,-2,-2,0,-2,13,1,0
61286286643,-5,-3,-1,0,1,-4,-3,-1
61286286643,2,2,1,3,2,-1,-23,2
61286301545,0,0,-3,-4,3,10,28,5
61286301545,-2,-2,-1,0,-2,17,-4,-7
61286303176,-3,0,0,2,-1,-4,-19,-2
61286303176,-2,-1,-2,-2,-2,-6,5,-2
61286324002,-1,0,0,-2,-1,1,-3,-1
61286324002,-2,-2,-2,-3,0,8,-1,0
61286325618,1,4,4,-1,1,35,7,1
61286325618,-1,-1,1,-1,-1,-32,1,0
61286337674,0,-1,-3,0,0,8,5,-1
61286337674,-2,0,-1,-13,1,-1,7,0
61286346626,0,0,0,2,-2,0,-12,0
61286346626,-2,0,2,24,1,2,4,-1
61286361640,-1,-3,-5,1,-1,-8,3,2
61286361640,0,-6,-4,-1,0,-2,-15,1
61286363119,-2,4,0,-3,-2,-10,-2,-1
61286363119,-3,-2,-2,-12,-2,3,3,-1
61286384199,2,2,1,2,-1,-7,1,-1
61286384199,-3,-2,0,7,-3,2,-8,-3
61286385657,-3,-5,-3,-5,0,-13,2,-1
61286385657,1,2,-1,-1,-1,6,7,0
61286397771,-1,-2,0,-4,-1,2,-6,-2
61286397771,2,2,-1,-1,-3,-15,-1,0
61286406679,-3,-3,-3,1,-1,5,-3,-3
61286406679,-3,-3,-2,-7,-1,8,-2,-2
61286420991,-3,0,-1,-1,0,0,-1,-1
61286420991,-1,0,0,3,0,-3,2,1
61286427688,0,-1,0,0,-2,-14,-6,-1
61286427688,0,-2,-2,-1,0,10,-10,0
61286444040,-1,1,-2,0,-2,-12,13,-1
61286444040,-1,-1,-2,2,-2,-12,-1,-2
61286445619,-2,-3,-4,-2,-1,6,-1,-1
61286445619,-2,0,-1,-4,-1,-1,-1,3
61286457755,0,1,1,-3,-2,-4,-2,-1
61286457755,-1,0,0,1,1,0,1,0
61286466700,0,-3,-1,-1,-3,-5,-2,-2
61286466700,-3,-1,-2,-2,-2,-3,1,-4
61286481768,1,-2,-2,-1,-1,-2,2,0
61286481768,2,1,-1,-1,0,6,0,-2
61286483169,-1,0,-1,0,-2,-7,-6,1
61286483169,-2,-2,0,-2,-3,10,3,-1
61286503801,-3,-1,0,-2,-2,-2,-4,-4
61286503801,0,0,1,0,0,1,-6,0
61286510194,0,-1,-2,-1,0,0,1,-3
61286510194,1,0,-1,-3,-3,-9,0,-1
61286517767,0,0,-1,0,3,12,2,-2
61286517767,0,-1,0,1,-1,-1,5,0
61286526668,0,-2,1,-1,-2,-6,-3,0
61286526668,-1,-2,-1,-1,-1,-3,2,-1
61286541646,-1,-1,-2,-1,0,8,-4,-1
61286541646,-2,1,1,-1,0,0,2,-1
61286543132,1,2,-1,0,-1,-8,-3,1
61286543132,0,0,-2,-2,1,14,-1,0
61286564108,-2,-1,-1,-2,-2,-22,-1,0
61286564108,0,-2,-2,0,-1,20,0,0
61286565618,-2,-3,-3,-4,-1,-4,-2,-2
61286565618,-2,-1,-1,0,-1,-2,-2,-2
61286577796,0,0,-2,1,-2,-5,-3,1
61286577796,-4,-3,-2,0,-1,-4,-4,-2
61286586705,-1,-2,0,-1,-1,8,2,-1
61286586705,-1,-1,-2,-2,-1,4,-3,-1
61286601554,-1,-1,-2,-2,0,0,-4,-1
61286601554,0,0,-1,-1,-4,-11,-3,-2
61286603157,-1,-1,0,-1,-1,-4,-3,-3
61286603157,-1,-2,-2,-2,0,-4,1,-2
61286624147,1,-1,2,-1,-1,-3,-3,-2
61286624147,-1,0,0,0,-1,0,-2,-2
61286625621,-1,2,-1,0,-3,-8,2,0
61286625621,-1,0,-1,-2,-2,-1,0,-1
61286637838,-1,0,-1,-2,-2,-4,-3,-2
61286637838,-2,-2,0,-1,1,-1,0,3
61286646652,-1,-1,-1,1,0,-2,-2,-2
61286646652,1,0,0,-1,1,1,-3,1
61286661657,-2,0,-3,0,1,4,1,-2
61286661657,0,-1,-2,-2,-3,-2,-2,0
61286663150,-2,-2,-1,-1,-1,-2,-2,-1
61286663150,-1,-2,0,-1,-1,-2,0,-3
61286684189,-1,-1,0,1,0,2,1,-3
61286684189,0,0,-1,0,-3,0,0,1
61286685676,0,-2,0,-2,0,-1,-1,0
61286685676,-1,-1,-3,0,-1,-1,0,-1
61286697797,-1,-1,-2,-1,0,-2,-2,-2
61286697797,-2,-1,-1,-1,-1,-3,-1,-1
61286706650,-2,-2,-2,-1,-1,1,-1,0
61286706650,-3,-2,0,0,0,-5,-1,-2
61286721613,0,-4,-1,-2,-3,-1,-1,1
61286721613,-1,-1,-1,0,0,-1,0,0
61286723105,0,0,-3,-1,-1,-4,0,0
61286723105,-1,-1,-1,-2,-1,-3,1,-1
61286744054,-1,-1,1,-1,1,-3,-1,-2
61286745661,-1,-1,-3,0,0,6,2,1
61286745661,0,0,0,-1,-2,6,-2,0
61286766541,0,-2,-1,-3,-3,-23,-4,2
61286766541,-1,-2,-1,-1,-3,0,-2,-4
61286768139,-3,-3,-1,-2,-2,-2,-1,-3
61286768139,-1,0,-2,0,0,-6,-2,1
61286781613,0,1,0,-1,0,7,3,2
61286781613,-1,-2,0,-2,-1,-2,-1,0
61286783128,-1,2,-1,-2,1,-3,-1,-1
61286783128,-1,-3,-3,-2,-1,-1,-1,-2
61286804064,-1,-1,-2,-1,0,3,-2,-2
61286804064,0,-1,0,-2,-1,0,0,0
61286805647,-2,-2,-2,-2,-2,-2,-1,-1
61286805647,-2,-1,0,-2,0,-3,-2,-1
61286826639,-1,-1,-1,-1,0,4,0,-1
61286826639,1,0,-3,-1,0,-1,0,0
61286828100,-1,-2,-1,-1,-2,-1,0,-3
61286828100,-1,-2,-2,0,-1,-4,-1,0
61286841689,-2,-4,0,-1,0,2,-3,-1
61286841689,-3,-1,-2,-1,-1,1,-2,-1
61286843149,1,0,-2,-1,-1,-3,-3,-1
61286843149,0,-1,-2,0,-2,-3,0,-1
61286864085,1,0,-2,-1,-1,2,-2,-1
61286864085,-2,-2,-1,0,-1,-8,-3,-2
61286865622,-2,-1,-1,-3,-4,1,-2,-4
61286865622,-1,0,-1,-1,3,6,1,-1
61286886590,0,-1,-3,0,1,6,3,-2
61286886590,-3,-2,0,-1,1,-4,-3,-3
61286888153,-2,-1,-1,0,-2,-2,-1,-1
61286888153,0,0,-2,-1,-1,-7,0,-3
61286900968,-1,1,0,0,-1,-3,-3,-3
61286900968,0,-3,-1,-1,1,3,0,1
61286907766,0,-2,0,0,0,-6,1,1
61286907766,-1,1,0,-2,-3,4,-2,-2
61286924111,-1,0,0,-3,-1,1,-1,1
61286924111,-4,-2,-1,-1,0,2,0,-2
61286925733,0,-1,0,0,-3,0,0,1
61286925733,0,-2,-1,-1,-3,-5,-1,0
61286946605,-1,-1,-3,0,0,-14,0,-2
61286946605,0,0,-1,-1,0,1,-1,-2
61286948140,1,3,-1,-2,-1,-5,-2,0
61286948140,-1,-1,-2,-1,0,5,6,0
61286960979,0,0,-1,0,-3,1,-3,1
61286960979,2,0,-1,0,0,0,2,0
61286967786,-2,-1,-2,-1,0,-16,-2,-4
61286967786,-3,-1,-1,0,0,7,0,-2
61286984191,-4,-4,-1,-2,-2,-2,6,-1
61286984191,0,0,-1,-2,-1,-4,-4,2
61286985658,-1,0,-3,-3,-2,-3,1,2
61286985658,-1,0,0,-2,-1,-2,-3,1
61287006546,-2,-1,-1,1,-1,0,-3,-1
61287006546,-5,0,-1,-1,-4,2,-2,-4
61287008163,-2,-4,-1,-1,-1,4,1,-2
61287008163,0,-4,-1,0,0,-7,-1,2
61287020963,1,1,0,0,0,8,-3,0
61287020963,2,1,2,0,-1,-4,-1,1
61287027788,-1,-1,-2,-2,1,4,-3,-2
61287027788,-2,0,-1,-1,0,0,0,-3
61287044106,1,-2,-1,-2,-1,-4,-1,0
61287044106,-1,-1,-2,-1,-1,3,1,0
61287045595,1,0,0,1,2,4,0,-1
61287045595,-2,0,-2,0,-1,-14,-6,0
61287066627,-3,-1,-3,0,-1,13,5,-3
61287066627,-3,0,0,-2,-1,-12,-3,-1
61287068116,-1,-3,-1,0,-2,2,-1,0
61287068116,-1,0,-1,-2,-2,-6,1,1
61287081016,0,0,1,0,-1,-5,-3,0
61287081016,-1,-3,-1,-2,-1,4,0,-2
61287087795,-2,-1,-2,0,-4,-7,-2,-3
61287087795,0,-1,1,-1,0,16,-1,-3
61287104110,-3,-2,-1,-3,-1,-17,-2,0
61287104110,-1,-2,-2,0,-1,4,0,-1
61287105640,1,0,0,0,1,1,-2,2
61287105640,-1,-1,0,-2,-2,3,-1,-1
61287126672,0,-1,-1,0,1,-1,-1,-2
61287126672,-1,-2,-1,-1,-2,14,0,-1
61287128155,-5,-1,0,-2,0,-1,-2,-2
61287128155,-2,-2,-1,-1,0,-6,-2,-2
61287140999,-1,-1,-2,0,1,4,0,4
61287140999,1,1,-1,0,-1,-7,-1,-1
61287147651,0,0,-2,-1,0,8,3,-1
61287147651,-3,-2,-1,-1,-2,-2,-1,-3
61287164059,-2,0,-1,-2,-4,-2,-3,-1
61287164059,-2,-2,-3,-1,0,5,1,-1
61287165615,0,-2,-1,-1,1,9,-1,2
61287165615,-1,-1,-3,0,-1,-9,0,-1
61287186643,1,-1,0,-1,0,3,1,0
61287186643,1,-1,-2,0,0,4,0,-1
61287188126,-2,-1,-1,0,0,-7,-2,-1
61287188126,-1,0,0,1,2,9,2,-2
61287201016,-2,-2,-1,-2,-1,-3,-3,1
61287201016,-4,-2,-1,0,0,-3,-1,-2
61287207933,3,0,0,-1,1,-2,1,3
61287207933,-1,-1,-2,-2,-2,-5,-1,1
61287224139,-2,-1,-1,0,-1,12,2,-2
61287224139,-1,1,-1,-2,-1,2,-3,-1
61287225645,-3,0,-1,-1,-2,-2,-25,-4
61287225645,-2,-1,-2,-2,0,-3,3,-1
61287246662,2,1,1,0,1,6,2,0
61287246662,0,0,0,-1,-3,-10,-5,0
61287248100,-5,-3,-2,-1,-2,-2,14,-2
61287248100,3,0,-1,1,-3,1,-3,0
61287260261,-3,-1,-3,-1,0,-8,-5,-3
61287260261,-1,-1,-2,0,-2,-8,-2,-1
61287269135,-1,0,0,-1,0,0,1,-2
61287269135,-1,0,0,-1,-1,-3,2,0
61287284159,0,-1,-4,1,-2,-2,4,-2
61287284159,-2,-1,-2,-2,-1,-3,-1,0
61287285643,1,0,-2,-2,-1,-4,-2,-1
61287285643,-3,-1,-1,1,-1,7,4,1
61287306638,-1,-1,0,-1,0,-2,-17,-2
61287306638,0,0,-2,0,-2,1,2,0
61287308122,-2,-2,-1,-2,-2,-2,1,0
61287308122,0,-1,-1,0,-3,-5,-6,0
61287320241,1,0,0,-1,-2,-18,2,0
61287320241,-1,0,0,-1,0,15,5,-4
61287329152,1,0,-1,0,-3,-15,-1,0
61287329152,-2,-3,-1,-1,1,31,-4,-1
61287344088,-2,-1,-2,-4,-4,-3,2,-2
61287344088,-4,-3,-3,-2,-2,-12,-9,-1
61287345597,-1,-1,-1,0,0,-2,-2,-2
61287345597,0,0,0,-1,1,-8,-1,-3
61287366678,-2,-1,1,1,0,2,0,-1
61287366678,1,-1,0,1,-2,1,1,0
61287368122,0,-1,-2,0,0,5,-1,0
61287368122,-2,0,-1,-1,-1,-11,-4,-3
61287380235,-2,-1,1,-1,0,7,2,-1
61287380235,0,0,-1,-1,0,-10,-3,0
61287389162,-4,-1,0,0,-1,3,0,-1
61287389162,-2,-1,-1,-2,-2,-6,-16,0
61287404126,2,0,-1,-1,-1,-3,0,0
61287404126,1,-1,0,-1,1,5,0,0
61287405627,-1,-2,-2,-1,0,4,-1,-2
61287405627,-2,-1,-2,-1,2,-4,1,-1
61287426670,-2,0,-2,0,0,-4,-1,0
61287426670,2,2,0,-1,-1,4,0,0
61287428145,0,0,-1,-2,-2,0,0,0
61287428145,-1,-2,0,-2,-3,-9,2,-1
