55377982112,0.0947265625,0.4267578125,0.85009765625
55378014121,0.0341796875,0.42138671875,0.88720703125
55378020319,0.8369140625,0.5244140625,1.158203125
55378043165,-0.42431640625,0.4150390625,0.3291015625
55378064513,-0.3583984375,0.3994140625,0.28125
55378079610,0.02734375,0.515625,0.53173828125
55378102026,0.5146484375,0.6015625,0.98291015625
55378117059,0.77099609375,0.57666015625,1.4033203125
55378171538,0.64697265625,0.4677734375,1.509765625
55378173660,0.1923828125,0.3251953125,1.21533203125
55378185545,-0.3251953125,0.24560546875,0.7099609375
55378203397,-0.10693359375,0.2900390625,0.93310546875
55378223477,0.013671875,0.45068359375,0.828125
55378252841,0.08642578125,0.41162109375,0.85595703125
55378296944,0.0966796875,0.42236328125,0.8642578125
55378307050,0.0986328125,0.41943359375,0.85986328125
55378307829,0.06884765625,0.42626953125,0.8408203125
55378320804,0.5185546875,0.54541015625,0.767578125
55378341991,-0.21728515625,0.2685546875,0.837890625
55378358261,-0.18212890625,0.255859375,0.8603515625
55378382259,-0.49853515625,0.2373046875,0.48388671875
55378401820,-0.560546875,0.31689453125,0.20458984375
55378419719,-0.20654296875,0.46484375,0.34130859375
55378442228,0.384765625,0.5888671875,0.8544921875
55378461900,0.76220703125,0.59228515625,1.3837890625
55378480162,0.62255859375,0.4599609375,1.49560546875
55378502222,0.107421875,0.30224609375,1.11376953125
55378521923,-0.00244140625,0.39111328125,0.97607421875
55378539764,0.087890625,0.43994140625,0.85009765625
55378562214,0.10888671875,0.41455078125,0.85986328125
55378581962,0.0859375,0.435546875,0.84423828125
55378599783,0.111328125,0.4384765625,0.84423828125
55378622239,0.095703125,0.44091796875,0.8486328125
55378641899,0.09765625,0.4501953125,0.83935546875
55378659762,0.1005859375,0.44140625,0.84619140625
55378682294,0.09716796875,0.45458984375,0.8427734375
55378701808,0.09814453125,0.4794921875,0.849609375
55378719760,0.10400390625,0.45068359375,0.8330078125
55378742260,0.09375,0.42236328125,0.85009765625
55378761948,0.10498046875,0.3935546875,0.85498046875
55378779757,0.1201171875,0.3798828125,0.859375
55378803328,0.109375,0.3857421875,0.853515625
55378823293,0.064453125,0.3994140625,0.880859375
55378847264,0.04541015625,0.42578125,0.8798828125
55378862228,0.07861328125,0.4697265625,0.86669921875
55378882583,0.068359375,0.45263671875,0.84521484375
55378898285,0.07470703125,0.44921875,0.8046875
55378921496,0.15478515625,0.44189453125,0.87841796875
55378942463,0.16796875,0.3564453125,0.9140625
55378958270,0.14892578125,0.390625,0.89794921875
55378981447,0.08154296875,0.45751953125,0.88623046875
55379002605,0.05029296875,0.4228515625,0.9140625
55379018945,0.03955078125,0.41357421875,0.923828125
55379041476,0.0078125,0.4697265625,0.88671875
55379062608,-0.02587890625,0.4931640625,0.880859375
55379079384,-0.05126953125,0.42724609375,0.896484375
55379101457,-0.0703125,0.42236328125,0.89794921875
55379124382,-0.12158203125,0.4453125,0.89794921875
55379138201,-0.15087890625,0.4404296875,0.890625
55379161497,-0.16748046875,0.4072265625,0.8798828125
55379183922,-0.19873046875,0.41064453125,0.8779296875
55379198284,-0.2060546875,0.39111328125,0.87158203125
55379221471,-0.2275390625,0.3828125,0.8662109375
55379243940,-0.26806640625,0.40673828125,0.8505859375
55379258249,-0.29150390625,0.3984375,0.82568359375
55379287566,-0.3056640625,0.3671875,0.83837890625
55379303917,-0.31494140625,0.35498046875,0.81494140625
55379326485,-0.34423828125,0.3828125,0.82080078125
55379347639,-0.35205078125,0.38037109375,0.79443359375
55379363916,-0.3603515625,0.375,0.79541015625
55379386469,-0.357421875,0.35888671875,0.787109375
55379407593,-0.3720703125,0.353515625,0.78759765625
55379423907,-0.3984375,0.35693359375,0.78271484375
55379446417,-0.41552734375,0.37841796875,0.78369140625
55379467645,-0.4150390625,0.375,0.77587890625
55379483983,-0.42529296875,0.37353515625,0.77490234375
55379506892,-0.43896484375,0.36181640625,0.76025390625
55379527607,-0.43017578125,0.34912109375,0.76708984375
55379543891,-0.45068359375,0.3564453125,0.76904296875
55379566422,-0.47119140625,0.37255859375,0.77294921875
55379587443,-0.46484375,0.36279296875,0.75244140625
55379603204,-0.47509765625,0.3564453125,0.76708984375
55379632644,-0.48779296875,0.35595703125,0.7646484375
55379647620,-0.5,0.36328125,0.72998046875
55379663243,-0.517578125,0.3701171875,0.7373046875
55379686440,-0.4931640625,0.36572265625,0.7490234375
55379708899,-0.50146484375,0.369140625,0.73388671875
55379723889,-0.505859375,0.37646484375,0.74609375
55379748568,-0.49609375,0.3798828125,0.74267578125
55379768863,-0.51220703125,0.39501953125,0.74658203125
55379783881,-0.5078125,0.4150390625,0.7197265625
55379806472,-0.5224609375,0.388671875,0.71728515625
55379829020,-0.50830078125,0.39013671875,0.72314453125
55379843211,-0.50732421875,0.3974609375,0.7451171875
55379866442,-0.50634765625,0.42333984375,0.72900390625
55379888918,-0.509765625,0.3935546875,0.7529296875
55379910071,-0.5234375,0.43212890625,0.7021484375
55379926448,-0.5146484375,0.40576171875,0.72705078125
55379954960,-0.51513671875,0.39697265625,0.73779296875
55379963277,-0.54150390625,0.3916015625,0.70556640625
55379986446,-0.52001953125,0.4150390625,0.71533203125
55380009368,-0.52587890625,0.42724609375,0.6982421875
55380023254,-0.560546875,0.416015625,0.70166015625
55380046518,-0.56201171875,0.39501953125,0.68505859375
55380068925,-0.51611328125,0.39306640625,0.69921875
55380083252,-0.52197265625,0.44384765625,0.70263671875
55380106385,-0.5,0.4013671875,0.71435546875
55380128883,-0.482421875,0.3935546875,0.73193359375
55380143253,-0.47802734375,0.408203125,0.75830078125
55380166433,-0.48876953125,0.41943359375,0.7421875
55380188942,-0.46484375,0.39013671875,0.767578125
55380210027,-0.447265625,0.40625,0.763671875
55380233897,-0.533203125,0.4169921875,0.72705078125
55380248900,-0.47119140625,0.41796875,0.76025390625
55380270066,-0.47705078125,0.42138671875,0.744140625
55380286471,-0.5068359375,0.4072265625,0.736328125
55380308955,-0.50439453125,0.43798828125,0.71875
55380329960,-0.48876953125,0.41650390625,0.7392578125
55380346457,-0.50048828125,0.41748046875,0.734375
55380368879,-0.4833984375,0.43701171875,0.73828125
55380389915,-0.48876953125,0.43359375,0.73681640625
55380406389,-0.50341796875,0.4208984375,0.72216796875
55380428894,-0.4599609375,0.3974609375,0.74267578125
55380449926,-0.46533203125,0.42138671875,0.75048828125
55380467018,-0.4912109375,0.431640625,0.732421875
55380488949,-0.47265625,0.416015625,0.7451171875
55380511442,-0.49169921875,0.416015625,0.74658203125
55380526396,-0.48388671875,0.42724609375,0.74072265625
55380548909,-0.4970703125,0.41943359375,0.734375
55380570092,-0.490234375,0.41259765625,0.72998046875
55380586431,-0.4697265625,0.4169921875,0.74853515625
55380608955,-0.49609375,0.43310546875,0.74169921875
55380631422,-0.49951171875,0.4208984375,0.72900390625
55380646371,-0.51171875,0.41064453125,0.7177734375
55380669030,-0.45849609375,0.41796875,0.74951171875
55380698951,-0.4765625,0.44140625,0.744140625
55380706344,-0.49755859375,0.42919921875,0.74072265625
55380728894,-0.478515625,0.3974609375,0.7490234375
55380751456,-0.4716796875,0.404296875,0.755859375
55380766410,-0.470703125,0.419921875,0.74462890625
55380788919,-0.46484375,0.421875,0.748046875
55380811375,-0.47509765625,0.416015625,0.740234375
55380832564,-0.49462890625,0.41064453125,0.72998046875
55380848947,-0.47265625,0.4248046875,0.73583984375
55380872046,-0.48095703125,0.427734375,0.74072265625
55380885766,-0.48095703125,0.41259765625,0.74169921875
55380908944,-0.47509765625,0.419921875,0.73828125
55380931365,-0.4912109375,0.423828125,0.73828125
55380945744,-0.4609375,0.41943359375,0.74560546875
55380976499,-0.47119140625,0.41748046875,0.74609375
55380991372,-0.48095703125,0.4267578125,0.7421875
55381005706,-0.4814453125,0.408203125,0.7421875
55381028884,-0.474609375,0.4033203125,0.74267578125
55381051456,-0.4697265625,0.42919921875,0.74560546875
55381066275,-0.46728515625,0.42529296875,0.73291015625
55381088891,-0.4853515625,0.4072265625,0.7177734375
55381111364,-0.458984375,0.4111328125,0.7255859375
55381132546,-0.45068359375,0.41845703125,0.7412109375
55381149422,-0.455078125,0.416015625,0.74267578125
55381171431,-0.45361328125,0.427734375,0.75
55381192538,-0.46826171875,0.40771484375,0.72412109375
55381208898,-0.44091796875,0.38720703125,0.740234375
55381231394,-0.4091796875,0.3984375,0.7548828125
55381252548,-0.4228515625,0.4130859375,0.7578125
55381268841,-0.42333984375,0.4150390625,0.765625
55381298926,-0.41796875,0.3974609375,0.7587890625
55381312514,-0.404296875,0.396484375,0.75341796875
55381328854,-0.365234375,0.40234375,0.79150390625
55381334369,-0.3173828125,0.3974609375,0.798828125
55381356863,-0.35009765625,0.419921875,0.78515625
55381379287,-0.37890625,0.43310546875,0.7783203125
55381394371,-0.3369140625,0.41015625,0.79541015625
55381416985,-0.283203125,0.3876953125,0.82861328125
55381439270,-0.28271484375,0.40087890625,0.82080078125
55381454299,-0.3095703125,0.4423828125,0.7958984375
55381476737,-0.2666015625,0.4521484375,0.83203125
55381499271,-0.20849609375,0.41357421875,0.85546875
55381514294,-0.20166015625,0.40087890625,0.8583984375
55381536791,-0.2177734375,0.43798828125,0.84228515625
55381559327,-0.18408203125,0.4423828125,0.845703125
55381574437,-0.15283203125,0.43408203125,0.87646484375
55381596895,-0.115234375,0.439453125,0.88623046875
55381619265,-0.12744140625,0.4345703125,0.85205078125
55381634424,-0.1328125,0.451171875,0.845703125
55381657024,-0.08544921875,0.4375,0.8896484375
55381679364,-0.02734375,0.4521484375,0.89599609375
55381694247,-0.05029296875,0.48046875,0.8701171875
55381716871,-0.09326171875,0.48388671875,0.83154296875
55381739244,-0.06005859375,0.44482421875,0.85205078125
55381754405,0.0263671875,0.4013671875,0.90087890625
55381776787,0.0263671875,0.4541015625,0.873046875
55381799451,-0.03076171875,0.52490234375,0.81396484375
55381814396,-0.04443359375,0.494140625,0.81787109375
55381836886,0.0322265625,0.4150390625,0.8408203125
55381859310,0.09375,0.396484375,0.88427734375
55381874232,0.1044921875,0.46435546875,0.9013671875
55381896780,0.048828125,0.52978515625,0.86767578125
55381919240,0.052734375,0.525390625,0.86279296875
55381934379,0.0810546875,0.47705078125,0.8671875
55381956993,0.0703125,0.4560546875,0.86376953125
55381974706,0.0458984375,0.45849609375,0.83984375
55381994408,0.044921875,0.46484375,0.83154296875
55382016739,0.07080078125,0.4482421875,0.84130859375
55382034708,0.08837890625,0.45703125,0.84521484375
55382054281,0.05712890625,0.47607421875,0.8408203125
55382076895,0.04296875,0.47314453125,0.8310546875
55382094716,0.0625,0.48974609375,0.8486328125
55382114469,0.1083984375,0.4912109375,0.8720703125
55382137014,0.09375,0.4775390625,0.82861328125
55382156110,0.072265625,0.47021484375,0.802734375
55382177172,0.095703125,0.4736328125,0.82470703125
55382196759,0.16748046875,0.45751953125,0.833984375
55382214713,0.125,0.4482421875,0.83935546875
55382235735,0.05126953125,0.48681640625,0.8193359375
55382256871,0.07373046875,0.5,0.82275390625
55382274698,0.091796875,0.4833984375,0.82470703125
55382295701,0.0927734375,0.47412109375,0.83154296875
55382316780,0.0947265625,0.46875,0.83984375
55382334699,0.1005859375,0.47412109375,0.82275390625
55382355747,0.095703125,0.47802734375,0.826171875
55382376831,0.09326171875,0.47802734375,0.8291015625
55382394696,0.10107421875,0.48095703125,0.81982421875
55382415716,0.10498046875,0.46533203125,0.82373046875
55382436748,0.099609375,0.46923828125,0.8232421875
55382454717,0.10009765625,0.47412109375,0.82470703125
55382475769,0.0966796875,0.48291015625,0.828125
55382496896,0.095703125,0.486328125,0.833984375
55382514732,0.09716796875,0.47607421875,0.8203125
55382537162,0.0908203125,0.47509765625,0.82861328125
55382556944,0.091796875,0.48046875,0.8203125
55382574766,0.09521484375,0.48291015625,0.826171875
55382597184,0.09423828125,0.47705078125,0.830078125
55382616712,0.09375,0.4716796875,0.83056640625
55382634684,0.0859375,0.4814453125,0.83056640625
55382657171,0.09716796875,0.4755859375,0.82861328125
55382676737,0.09521484375,0.47509765625,0.83251953125
55382694727,0.09033203125,0.474609375,0.82666015625
55382717195,0.08984375,0.4697265625,0.8251953125
55382736900,0.09326171875,0.4765625,0.84033203125
55382754755,0.0888671875,0.47265625,0.83203125
