55447490820,0.149230957031,0.17822265625,0.8427734375,0.4853515625
55447505850,0.149169921875,0.17822265625,0.8427734375,0.4853515625
55447530788,0.149230957031,0.178161621094,0.8427734375,0.4853515625
55447551786,0.151916503906,0.174194335938,0.84375,0.484313964844
55447565864,0.145385742188,0.178833007812,0.843017578125,0.485900878906
55447589493,0.140258789062,0.181884765625,0.842407226562,0.4873046875
55447618853,0.135070800781,0.186889648438,0.841491699219,0.488525390625
55447625795,0.13330078125,0.191650390625,0.840454101562,0.488952636719
55447649483,0.136413574219,0.1923828125,0.840209960938,0.488220214844
55447679013,0.137939453125,0.191467285156,0.840393066406,0.487854003906
55447679827,0.143005371094,0.185546875,0.841735839844,0.486328125
55447702716,0.143798828125,0.181823730469,0.842651367188,0.485961914062
55447717828,0.139953613281,0.182983398438,0.842529296875,0.48681640625
55447739102,0.138732910156,0.185974121094,0.841613769531,0.487609863281
55447762862,0.138793945312,0.186157226562,0.841552734375,0.487548828125
55447815800,0.138916015625,0.186157226562,0.841613769531,0.487548828125
55447816603,0.139404296875,0.185913085938,0.841491699219,0.487670898438
55447823543,0.1396484375,0.185607910156,0.841430664062,0.48779296875
55447837104,0.1376953125,0.186096191406,0.841247558594,0.488525390625
55447859643,0.132507324219,0.186401367188,0.841247558594,0.489807128906
55447896425,0.136596679688,0.180969238281,0.842224121094,0.489013671875
55447904583,0.138000488281,0.177185058594,0.842956542969,0.48876953125
55447927716,0.135131835938,0.177612304688,0.842834472656,0.489685058594
55447950244,0.130249023438,0.18212890625,0.841796875,0.491027832031
55447955811,0.127685546875,0.1875,0.840637207031,0.491638183594
55447978163,0.130493164062,0.188903808594,0.840454101562,0.490783691406
55448000637,0.136901855469,0.185180664062,0.841369628906,0.488830566406
55448015622,0.1416015625,0.180236816406,0.842590332031,0.487182617188
55448038208,0.147216796875,0.181030273438,0.842468261719,0.485534667969
55448060600,0.148620605469,0.182067871094,0.842407226562,0.484802246094
55448075638,0.149536132812,0.184509277344,0.84228515625,0.483825683594
55448098318,0.150207519531,0.186401367188,0.841918945312,0.483459472656
55448120706,0.147827148438,0.185302734375,0.841674804688,0.485107421875
55448135715,0.144104003906,0.183227539062,0.84130859375,0.487548828125
55448158201,0.141296386719,0.182922363281,0.840637207031,0.489685058594
55448180599,0.138610839844,0.183959960938,0.839538574219,0.492004394531
55448195701,0.13525390625,0.183898925781,0.838745117188,0.494201660156
55448221054,0.129943847656,0.184814453125,0.838195800781,0.496337890625
55448240651,0.122192382812,0.185913085938,0.837890625,0.498352050781
55448255751,0.113220214844,0.187805175781,0.837341308594,0.500732421875
55448278219,0.103576660156,0.190124511719,0.83642578125,0.50341796875
55448300629,0.0934448242188,0.194213867188,0.835266113281,0.505798339844
55448315752,0.0814208984375,0.19775390625,0.834289550781,0.508056640625
55448338339,0.06884765625,0.201538085938,0.832946777344,0.510620117188
55448360642,0.0564575195312,0.206604003906,0.831359863281,0.5126953125
55448375668,0.0439453125,0.212463378906,0.829467773438,0.514587402344
55448398202,0.031494140625,0.218444824219,0.827331542969,0.516479492188
55448420700,0.0195922851562,0.224731445312,0.824829101562,0.518371582031
55448435712,0.00836181640625,0.231872558594,0.822082519531,0.519897460938
55448458157,-0.0028076171875,0.239074707031,0.819030761719,0.521484375
55448480764,-0.0136108398438,0.246032714844,0.815795898438,0.523193359375
55448495736,-0.0236206054688,0.253234863281,0.812377929688,0.524658203125
55448518104,-0.033203125,0.259826660156,0.809265136719,0.525695800781
55448540593,-0.0418701171875,0.266052246094,0.806213378906,0.526672363281
55448555593,-0.050537109375,0.271789550781,0.803039550781,0.52783203125
55448578195,-0.0591430664062,0.277465820312,0.799926757812,0.528686523438
55448600738,-0.0667114257812,0.283447265625,0.796813964844,0.529357910156
55448615660,-0.0741577148438,0.289428710938,0.79345703125,0.530151367188
55448638131,-0.0814819335938,0.294982910156,0.790405273438,0.530517578125
55448660834,-0.088134765625,0.300048828125,0.787963867188,0.5302734375
55448675613,-0.0941162109375,0.305419921875,0.785217285156,0.530334472656
55448698226,-0.099853515625,0.311096191406,0.782287597656,0.5302734375
55448720579,-0.104553222656,0.316589355469,0.779968261719,0.529479980469
55448735791,-0.109008789062,0.321228027344,0.777954101562,0.52880859375
55448758134,-0.113159179688,0.324768066406,0.776611328125,0.527709960938
55448780651,-0.115844726562,0.329162597656,0.775512695312,0.526000976562
55448797052,-0.11865234375,0.333068847656,0.774169921875,0.52490234375
55448818204,-0.121215820312,0.337158203125,0.77294921875,0.523559570312
55448840678,-0.124145507812,0.340393066406,0.771789550781,0.522521972656
55448859980,-0.126708984375,0.343566894531,0.770935058594,0.52099609375
55448878215,-0.12939453125,0.346374511719,0.770385742188,0.519348144531
55448900708,-0.132446289062,0.348388671875,0.769775390625,0.51806640625
55448917093,-0.135375976562,0.350280761719,0.76904296875,0.517150878906
55448938226,-0.137756347656,0.351989746094,0.768188476562,0.5166015625
55448963554,-0.139953613281,0.353454589844,0.767272949219,0.516418457031
55448978577,-0.141479492188,0.354675292969,0.766174316406,0.516845703125
55448998244,-0.141540527344,0.354553222656,0.765380859375,0.51806640625
55449016069,-0.139526367188,0.354187011719,0.7646484375,0.519897460938
55449038532,-0.135437011719,0.351989746094,0.765075683594,0.521850585938
55449058107,-0.131408691406,0.348388671875,0.76611328125,0.523803710938
55449076167,-0.12841796875,0.345458984375,0.766845703125,0.525390625
55449098596,-0.125244140625,0.34375,0.767639160156,0.526123046875
55449118065,-0.123291015625,0.342956542969,0.76806640625,0.526489257812
55449135980,-0.123291015625,0.34375,0.767639160156,0.526550292969
55449158523,-0.123779296875,0.34423828125,0.768005371094,0.525573730469
55449178113,-0.124084472656,0.343933105469,0.768371582031,0.525207519531
55449196015,-0.124694824219,0.344299316406,0.768127441406,0.525146484375
55449218518,-0.125,0.344604492188,0.76806640625,0.524963378906
55449238257,-0.125122070312,0.344116210938,0.768188476562,0.525146484375
55449256000,-0.124572753906,0.343688964844,0.768127441406,0.525573730469
55449283249,-0.124145507812,0.34326171875,0.76806640625,0.526123046875
55449298160,-0.123962402344,0.3427734375,0.768005371094,0.526489257812
55449315999,-0.123779296875,0.341613769531,0.768249511719,0.526977539062
55449338515,-0.123291015625,0.340881347656,0.768188476562,0.527648925781
55449358268,-0.123291015625,0.340637207031,0.767944335938,0.528198242188
55449377235,-0.123718261719,0.340209960938,0.76806640625,0.528137207031
55449398497,-0.1240234375,0.339538574219,0.768249511719,0.528259277344
55449418081,-0.123901367188,0.339233398438,0.768249511719,0.528442382812
55449435985,-0.123962402344,0.339050292969,0.768249511719,0.528564453125
55449458547,-0.123901367188,0.338745117188,0.768371582031,0.528564453125
55449478084,-0.12353515625,0.338623046875,0.7685546875,0.528503417969
55449496024,-0.123107910156,0.338745117188,0.768737792969,0.528259277344
55449517749,-0.123352050781,0.338745117188,0.7685546875,0.528442382812
55449538300,-0.123046875,0.338623046875,0.768798828125,0.528259277344
55449561253,-0.122497558594,0.33837890625,0.768981933594,0.528259277344
55449578046,-0.12255859375,0.33837890625,0.768737792969,0.528625488281
55449606334,-0.122192382812,0.338500976562,0.768798828125,0.528564453125
55449615216,-0.1220703125,0.337890625,0.768981933594,0.528686523438
55449637732,-0.121887207031,0.337646484375,0.76904296875,0.52880859375
55449658823,-0.121704101562,0.337585449219,0.768981933594,0.528930664062
55449675226,-0.121398925781,0.337280273438,0.769165039062,0.528991699219
55449697749,-0.121398925781,0.3369140625,0.769287109375,0.529052734375
55449718875,-0.121276855469,0.336608886719,0.769348144531,0.529174804688
55449735247,-0.121154785156,0.336364746094,0.769287109375,0.529357910156
55449757787,-0.121154785156,0.336242675781,0.769287109375,0.529541015625
55449778733,-0.120910644531,0.335876464844,0.769287109375,0.529724121094
55449795197,-0.120544433594,0.335510253906,0.769348144531,0.530029296875
55449817717,-0.120422363281,0.335205078125,0.769348144531,0.530212402344
55449838877,-0.120361328125,0.334716796875,0.769409179688,0.530456542969
55449855205,-0.1201171875,0.334045410156,0.76953125,0.530700683594
55449884043,-0.119750976562,0.333679199219,0.769714355469,0.530822753906
55449898781,-0.119384765625,0.333068847656,0.769897460938,0.531005859375
55449915208,-0.118896484375,0.332153320312,0.770141601562,0.531311035156
55449937692,-0.118286132812,0.331787109375,0.770385742188,0.531372070312
55449960249,-0.117919921875,0.331420898438,0.7705078125,0.531494140625
55449975218,-0.117553710938,0.330993652344,0.770751953125,0.531494140625
55449997713,-0.117309570312,0.330444335938,0.771057128906,0.531494140625
55450020226,-0.117126464844,0.330078125,0.771179199219,0.531555175781
55450035195,-0.116882324219,0.329650878906,0.771423339844,0.531433105469
55450057672,-0.116760253906,0.328918457031,0.771789550781,0.531433105469
55450080208,-0.11669921875,0.327758789062,0.772277832031,0.531494140625
55450094517,-0.116516113281,0.32666015625,0.772644042969,0.531677246094
55450117690,-0.116638183594,0.325500488281,0.772888183594,0.531982421875
55450140201,-0.116577148438,0.325012207031,0.772827148438,0.532348632812
55450161284,-0.115905761719,0.324096679688,0.773254394531,0.532531738281
55450177716,-0.114440917969,0.323059082031,0.773681640625,0.532775878906
55450200197,-0.113159179688,0.321594238281,0.774230957031,0.533142089844
55450214542,-0.111694335938,0.3203125,0.774719238281,0.533508300781
55450237720,-0.109741210938,0.318969726562,0.775451660156,0.533630371094
55450260205,-0.107727050781,0.317260742188,0.776489257812,0.533569335938
55450274505,-0.105224609375,0.3154296875,0.777709960938,0.533386230469
55450297738,-0.102722167969,0.313354492188,0.779052734375,0.533142089844
55450320198,-0.0997314453125,0.311279296875,0.78076171875,0.532409667969
55450341402,-0.0964965820312,0.308715820312,0.782836914062,0.531433105469
55450357998,-0.0926513671875,0.305786132812,0.785278320312,0.530212402344
55450380178,-0.0881958007812,0.302307128906,0.788024902344,0.528930664062
55450401374,-0.0831909179688,0.298400878906,0.790771484375,0.52783203125
55450417723,-0.0775756835938,0.294616699219,0.793701171875,0.526428222656
55450440706,-0.0716552734375,0.290954589844,0.796569824219,0.525024414062
55450461366,-0.0648193359375,0.28759765625,0.799133300781,0.523803710938
55450477748,-0.05810546875,0.283569335938,0.8017578125,0.522766113281
55450500247,-0.0511474609375,0.279663085938,0.804321289062,0.521667480469
55450521421,-0.044189453125,0.275512695312,0.806945800781,0.5205078125
55450537784,-0.0367431640625,0.27197265625,0.809020996094,0.519653320312
55450560166,-0.0291137695312,0.2685546875,0.811279296875,0.518432617188
55450581389,-0.0216674804688,0.265014648438,0.813354492188,0.517333984375
55450597723,-0.0142211914062,0.260620117188,0.815551757812,0.516357421875
55450620167,-0.0062255859375,0.256408691406,0.817504882812,0.515563964844
55450641211,0.00238037109375,0.253173828125,0.819152832031,0.514587402344
55450657699,0.0108642578125,0.249389648438,0.820922851562,0.513488769531
55450680175,0.0189819335938,0.245483398438,0.822509765625,0.512634277344
55450701207,0.0267333984375,0.242309570312,0.823852539062,0.511657714844
55450718224,0.0342407226562,0.239318847656,0.825134277344,0.510498046875
55450740186,0.0413208007812,0.236022949219,0.826538085938,0.50927734375
55450761303,0.0477905273438,0.232238769531,0.827697753906,0.508544921875
55450777038,0.0547485351562,0.229309082031,0.828552246094,0.507751464844
55450800190,0.0614624023438,0.226745605469,0.829284667969,0.506958007812
55450821346,0.0674438476562,0.224731445312,0.830078125,0.505859375
55450837003,0.0733032226562,0.22216796875,0.830871582031,0.504760742188
55450860227,0.0787353515625,0.21923828125,0.831665039062,0.504028320312
55450882721,0.0838623046875,0.216674804688,0.832214355469,0.503356933594
55450897024,0.0890502929688,0.215087890625,0.832641601562,0.502380371094
55450920171,0.093994140625,0.21337890625,0.833190917969,0.501342773438
55450942791,0.098388671875,0.211242675781,0.833801269531,0.500305175781
55450956997,0.1025390625,0.209655761719,0.834411621094,0.499206542969
55450980196,0.106567382812,0.207641601562,0.834899902344,0.498352050781
55451002713,0.110595703125,0.205688476562,0.835510253906,0.497253417969
55451017067,0.115051269531,0.204223632812,0.836059570312,0.495910644531
55451040179,0.119262695312,0.202880859375,0.836547851562,0.494689941406
55451062778,0.123474121094,0.201843261719,0.837036132812,0.493225097656
55451077069,0.127197265625,0.200561523438,0.837646484375,0.491821289062
55451100172,0.130493164062,0.199340820312,0.838073730469,0.490661621094
55451122726,0.133361816406,0.199035644531,0.838439941406,0.489379882812
55451143854,0.135925292969,0.199096679688,0.838806152344,0.488037109375
55451160150,0.137939453125,0.198974609375,0.839111328125,0.486999511719
55451182750,0.139770507812,0.198974609375,0.839538574219,0.485778808594
55451196989,0.141906738281,0.198974609375,0.840026855469,0.484252929688
55451219999,0.144409179688,0.199157714844,0.840454101562,0.482727050781
55451242721,0.146728515625,0.199279785156,0.8408203125,0.481384277344
55451257066,0.148620605469,0.199279785156,0.840942382812,0.480529785156
55451280227,0.149597167969,0.198120117188,0.841125488281,0.480407714844
55451302715,0.15087890625,0.196716308594,0.841125488281,0.480590820312
55451317035,0.152160644531,0.195373535156,0.841064453125,0.480773925781
55451340165,0.1533203125,0.194152832031,0.841064453125,0.480895996094
55451362720,0.153686523438,0.19189453125,0.841491699219,0.481018066406
55451383819,0.154052734375,0.1904296875,0.841674804688,0.481201171875
55451400164,0.154296875,0.189208984375,0.842041015625,0.480895996094
55451422720,0.1552734375,0.188598632812,0.842102050781,0.480712890625
55451443971,0.155822753906,0.188537597656,0.841918945312,0.48095703125
55451461705,0.156555175781,0.189147949219,0.841552734375,0.481018066406
55451482701,0.1572265625,0.189086914062,0.841247558594,0.481384277344
55451503878,0.157653808594,0.18896484375,0.841003417969,0.481750488281
55451520193,0.157775878906,0.188659667969,0.840881347656,0.482055664062
55451542469,0.158020019531,0.188720703125,0.840698242188,0.482238769531
55451563852,0.158508300781,0.18896484375,0.840393066406,0.482543945312
55451580191,0.159118652344,0.189208984375,0.840087890625,0.482788085938
55451602740,0.159484863281,0.189331054688,0.83984375,0.482971191406
55451623927,0.159606933594,0.189147949219,0.839782714844,0.483154296875
55451640130,0.15966796875,0.189025878906,0.839660644531,0.4833984375
55451662720,0.15966796875,0.188903808594,0.839538574219,0.483581542969
55451683725,0.159912109375,0.188903808594,0.839416503906,0.483764648438
55451700163,0.160034179688,0.188842773438,0.839294433594,0.484008789062
55451722722,0.16015625,0.188659667969,0.839172363281,0.484191894531
55451743910,0.160034179688,0.188415527344,0.839050292969,0.484497070312
55451760189,0.160034179688,0.188232421875,0.838989257812,0.484741210938
55451782718,0.159973144531,0.188110351562,0.838928222656,0.484924316406
55451805195,0.159912109375,0.188293457031,0.838806152344,0.485107421875
55451827722,0.159912109375,0.188293457031,0.838806152344,0.485107421875
55451842698,0.159912109375,0.188293457031,0.838806152344,0.485107421875
55451865224,0.159912109375,0.188293457031,0.838745117188,0.485107421875
55451880178,0.159912109375,0.188293457031,0.838745117188,0.485107421875
55451902716,0.159912109375,0.188293457031,0.838806152344,0.485107421875
55451925190,0.159912109375,0.188293457031,0.838806152344,0.485107421875
55451940220,0.160095214844,0.188171386719,0.838745117188,0.485107421875
55451962742,0.160095214844,0.188171386719,0.838745117188,0.485107421875
55451985175,0.160095214844,0.188171386719,0.838745117188,0.485107421875
55451999522,0.160095214844,0.188110351562,0.838745117188,0.485107421875
55452022716,0.160095214844,0.188110351562,0.838745117188,0.485107421875
55452045195,0.160095214844,0.188110351562,0.838745117188,0.485107421875
55452059494,0.160095214844,0.188171386719,0.838745117188,0.485107421875
55452082665,0.160095214844,0.188171386719,0.838745117188,0.485107421875
55452105151,0.160095214844,0.188110351562,0.838745117188,0.485107421875
55452119523,0.160095214844,0.188110351562,0.838745117188,0.485107421875
55452142715,0.160278320312,0.188232421875,0.838745117188,0.485046386719
55452165111,0.160278320312,0.188232421875,0.838745117188,0.485046386719
55452179518,0.160278320312,0.188232421875,0.838745117188,0.485046386719
55452202748,0.160278320312,0.188232421875,0.838745117188,0.485046386719
