55378179721,-3,0,5,3,3,-1,1,2
55378179721,4,2,3,-1,3,2,2,1
55378180420,-6,-5,-5,-6,-6,-2,-5,-5
55378180420,0,-2,-1,1,0,-2,1,-4
55378181254,2,4,3,1,1,2,1,-1
55378181254,-5,-2,-3,-4,-3,-3,-1,-5
55378182074,-2,0,1,-1,-1,-3,-2,0
55378182074,3,3,4,2,2,2,1,1
55378187138,-1,-3,-1,-4,-3,-1,-3,1
55378187138,-3,-3,-1,1,-4,-1,-3,-3
55378201324,2,0,3,2,1,2,2,5
55378201324,4,-2,0,0,0,-1,-3,-3
55378207192,-7,-2,-6,-3,-3,-4,-4,-2
55378207192,36,2,0,0,0,-1,1,14
55378222786,3,3,0,0,0,1,1,-5
55378222786,-2,-2,-3,-4,-4,-2,-2,-2
55378230846,-1,-5,-1,-1,-2,-1,0,2
55378230846,-10,0,2,2,2,2,0,-4
55378245842,0,-3,-3,-1,1,0,-1,2
55378245842,-2,-1,-2,-4,0,-4,-2,-1
55378253575,5,-1,1,3,0,0,1,1
55378253575,-2,1,-1,-1,-1,0,-1,0
55378266887,0,-2,1,-3,-3,-2,-1,-2
55378266887,-7,0,0,-3,-1,0,-1,-1
55378308616,-6,-6,-7,-5,-4,-6,-3,-4
55378308616,1,1,2,2,2,1,2,2
55378309497,0,2,2,-2,-1,0,0,-2
55378309497,-4,-4,-5,-5,-7,-2,-5,-3
55378312562,1,-1,2,2,1,1,-1,0
55378312562,3,3,3,-2,0,2,-1,-3
55378313214,-3,-2,-5,-6,-4,-1,-2,0
55378313214,-10,-3,3,0,-1,-1,-1,-4
55378320060,-16,2,4,2,3,3,1,-7
55378320060,-1,-2,-3,-3,-3,-4,-1,-2
55378326845,-3,-2,0,-1,0,-2,-2,0
55378326845,2,-1,2,1,3,1,0,6
55378334413,1,1,1,-2,-2,-1,0,-1
55378334413,-5,-4,-1,0,-2,-3,-4,-4
55378349360,-3,-1,0,2,1,1,0,-1
55378349360,4,1,3,-1,2,0,2,1
55378357614,-4,-2,-2,-1,-2,-1,0,-4
55378357614,0,-2,-3,-2,-3,0,1,5
55378380686,5,1,2,3,1,-1,1,3
55378380686,2,2,-2,-2,-2,0,0,-1
55378381443,3,0,1,-2,-2,1,-1,2
55378381443,0,0,4,-1,1,-1,1,-1
55378394996,-3,1,0,-3,2,-1,-4,-3
55378394996,-3,1,-2,-1,-3,-4,-3,-4
55378395772,3,-3,-2,-2,-2,-3,-2,-6
55378395772,-2,-1,-3,-3,-1,-1,-1,-4
55378418183,-5,-5,-1,-2,-2,-3,-3,-3
55378418183,1,-3,-2,1,-1,-1,0,1
55378418925,5,-2,1,-1,-2,-1,-1,3
55378418925,-3,-1,-3,-1,-2,-3,-1,-1
55378440632,1,-2,-2,-1,-1,-3,1,-2
55378440632,-10,-3,-5,-3,-2,-2,-4,-9
55378441414,1,-2,-4,-5,-1,-2,-1,9
55378441414,10,4,1,8,2,2,2,-2
55378454904,5,-5,-4,-6,-7,-3,-4,-6
55378454904,-1,-1,-3,-10,-5,-3,-3,-5
55378455675,-5,4,1,10,2,3,2,-1
55378455675,-5,-5,0,-3,-3,-3,-3,-2
55378478584,-7,-3,-6,-10,-8,-3,-5,-6
55378478584,1,1,-1,9,1,0,2,3
55378479351,2,-1,-3,5,1,-2,0,0
55378479351,-5,-7,-4,-7,-6,-3,-4,-1
55378500565,-2,0,-4,3,0,0,1,-2
55378500565,1,-1,-2,7,3,-1,2,3
55378501513,-3,-3,-3,-6,-4,-4,-3,-4
55378501513,-3,-1,-4,-4,-4,-2,-1,1
55378515050,2,3,1,7,3,0,3,6
55378515050,3,-2,-1,-5,-2,-1,-3,-3
55378515742,0,-2,-2,-7,-4,-5,-4,-5
55378515742,-2,1,-1,3,2,0,0,1
55378538272,0,-1,4,1,1,0,0,2
55378538272,-4,-3,-2,-5,-2,-3,-2,-1
55378538947,-3,-1,-5,0,-1,-2,-1,3
55378538947,-8,1,-1,1,2,0,-1,-4
55378560684,-2,-2,0,-4,0,-3,-1,-4
55378560684,0,-1,-1,-1,-2,-1,-2,-1
55378561413,14,0,0,1,1,1,2,2
55378561413,0,-2,-2,-2,-2,-3,-1,-2
55378575113,6,0,-1,-3,-4,1,0,3
55378575113,1,1,-1,0,1,0,0,-2
55378575722,-6,0,1,-1,-2,0,-2,-2
55378575722,3,-2,2,-3,-1,-2,-1,-1
55378598276,-1,0,-1,0,0,-1,0,-2
55378598276,6,-3,-1,0,1,-1,0,2
55378598937,-4,-3,0,-2,-1,0,-4,2
55378598937,-2,1,-4,-1,-1,-1,-2,-4
55378620770,-1,-2,-1,3,0,-2,-1,1
55378620770,-3,-1,0,-2,-1,-1,-1,0
55378621446,-1,0,-1,2,-1,2,0,-3
55378621446,-3,-2,-1,0,-1,0,-2,0
55378635106,7,-1,-1,-2,0,-1,0,-3
55378635106,-2,0,-1,-3,0,-4,-1,-2
55378635747,-5,-1,-2,0,-3,-2,-1,-2
55378635747,1,-1,1,0,1,1,1,1
55378658231,-3,-1,0,-1,-2,0,-1,-2
55378658231,-1,-2,0,-4,-4,1,-1,-3
55378658877,0,-1,-3,-2,0,-4,0,-1
55378658877,0,-2,-1,-3,1,-3,-1,-1
55378680744,-3,-1,-1,1,-1,-1,-1,1
55378680744,2,0,0,5,2,2,-1,-3
55378681456,0,-2,-1,-1,-2,1,-2,0
55378681456,-1,0,-3,-5,-4,-1,-1,3
55378695013,-2,0,-1,3,2,-1,-1,-2
55378695013,-4,-1,-1,-3,0,-2,0,-2
55378695712,2,-1,-1,-1,-1,-1,-1,-3
55378695712,1,-2,1,1,-1,-3,0,-1
55378718253,-6,-2,-1,-6,-3,-2,0,-1
55378718253,5,-1,-1,-2,-1,0,-1,2
55378718904,0,3,-1,1,1,1,0,-1
55378718904,1,-2,-2,1,-1,1,-1,0
55378740741,-12,-7,-2,1,-3,-2,-1,-3
55378740741,8,1,-1,-4,-4,-1,0,0
55378741439,-2,-1,-1,-4,2,-2,-1,-3
55378741439,1,0,-3,1,0,0,-1,-2
55378755122,4,3,-1,-2,0,-2,-1,-1
55378755122,-7,-3,0,-1,0,-2,-1,0
55378755719,-2,-4,0,-1,-3,-2,-2,-2
55378755719,-2,2,1,-2,-4,-2,-2,-2
55378778150,-1,-3,-2,-5,-4,0,-1,-2
55378778150,0,3,5,5,1,1,2,0
55378778927,17,9,0,-2,-1,-1,4,2
55378778927,-11,2,-1,-1,-1,0,-6,-4
55378801728,2,-4,-2,-2,0,-1,-2,1
55378801728,-24,-9,-5,-5,-5,-1,-2,-5
55378802514,-3,-4,0,-1,1,0,-2,-2
55378802514,25,-1,1,2,2,0,2,2
55378814293,14,14,-4,-5,-3,-2,-3,-1
55378814293,3,5,0,2,0,0,-1,1
55378822587,-8,-6,-3,-2,-4,-1,0,0
55378822587,-10,-12,-2,-7,-4,-2,0,-5
55378845743,-9,-2,-10,1,1,2,0,-2
55378845743,20,14,7,4,1,3,0,2
55378846422,-7,-9,-2,8,2,-3,-4,-4
55378846422,0,-1,1,-7,-4,-3,-1,2
55378860637,-7,-9,-3,-10,-5,-3,-1,-2
55378860637,-17,-3,-13,-2,1,-2,-2,-1
55378861461,-8,-5,-6,-3,-1,-2,-1,-2
55378861461,3,-4,6,1,-2,-1,0,-1
55378874381,-20,15,-6,-2,-2,0,-1,-3
55378874381,45,4,11,3,0,0,-1,3
55378883266,-36,-13,0,-3,-2,0,0,-1
55378883266,0,2,-5,2,0,-2,0,1
55378897591,-8,-12,-1,2,1,-1,-1,-1
55378897591,0,-2,-3,-8,-7,-6,-1,-2
55378904296,20,-4,-4,-5,-2,0,-1,1
55378904296,-17,12,1,-2,2,1,0,-1
55378920605,6,-2,12,15,6,1,-1,1
55378920605,-17,-10,-4,0,0,0,-1,-1
55378922238,15,14,2,4,-2,1,1,1
55378922238,-11,-13,-1,-7,-3,-4,-4,-3
55378934237,7,-9,-4,-4,-3,-3,0,-2
55378934237,2,18,5,1,5,3,1,1
55378943257,9,-1,3,1,-4,0,0,0
55378943257,-9,-6,-2,-6,-3,-3,-3,-2
55378957616,0,7,5,10,3,1,-1,1
55378957616,-6,-4,-9,-14,-11,-3,0,0
55378964360,3,14,13,13,5,-2,-2,-2
55378964360,8,1,1,1,1,1,-2,0
55378980892,7,23,7,4,5,0,0,-1
55378980892,-14,-24,-13,-6,-6,-3,-2,-4
55378982230,5,16,-11,-15,-6,-2,-3,-2
55378982230,-18,-29,1,5,7,1,1,-2
55378994388,0,-1,2,2,2,1,-1,1
55378994388,-5,0,-1,1,0,-2,-2,-2
55379003275,-4,2,6,-5,-6,-1,3,1
55379003275,10,-6,-4,6,0,2,1,2
55379018191,-3,6,-15,-23,-12,-6,-5,-3
55379018191,-3,5,6,18,6,-2,0,-3
55379019717,-2,-9,1,-1,1,0,-2,0
55379019717,-1,2,-5,-3,-2,-3,0,-2
55379040710,-2,-25,-20,-8,-2,-3,-1,0
55379040710,2,19,14,2,1,2,2,1
55379042239,0,-1,-3,-8,-7,-4,-2,-1
55379042239,-6,7,-1,-2,-6,0,-3,-1
55379054411,12,0,4,3,1,3,2,3
55379054411,-8,-20,-4,-3,-6,-4,-1,-1
55379063265,3,4,-11,-5,13,-4,-2,-2
55379063265,-6,-22,-14,-10,-2,-3,-1,-4
55379078743,-10,3,11,8,4,4,1,3
55379078743,0,-7,10,4,3,0,-3,-2
55379080195,0,-6,2,4,-4,1,-1,-1
55379080195,2,0,1,1,5,0,1,2
55379100613,0,11,3,-6,0,-4,-2,-3
55379100613,-5,-16,-14,-4,-3,-2,-4,-1
55379102210,-2,1,-6,-5,-5,-1,1,-1
55379102210,10,15,5,7,1,0,-2,1
55379123563,-4,-18,6,-3,-3,-3,1,-2
55379123563,2,7,12,2,5,0,-1,0
55379125162,0,4,-15,1,0,0,0,-1
55379125162,-2,-12,-9,-4,-6,-2,-1,-1
55379137395,0,12,19,4,9,0,1,1
55379137395,8,14,1,2,-6,-2,-2,-1
55379144285,-12,-34,-14,-11,-2,-2,-2,-1
55379144285,6,13,7,1,2,-4,1,1
55379160684,1,7,1,3,-10,3,0,-2
55379160684,6,-10,-7,-2,-10,0,-1,-1
55379162289,-2,1,11,5,10,-1,-3,-2
55379162289,6,5,2,-1,-6,2,1,0
55379183374,-6,-19,2,6,15,-4,-2,-1
55379183374,-5,29,-1,-7,-2,-2,-1,0
55379184785,-2,-20,-8,-6,-7,-1,-1,-5
55379184785,-4,-14,-6,3,-1,0,0,-1
55379197565,-2,-5,-6,-4,-6,-3,-3,0
55379197565,-6,-17,-8,-9,-7,1,0,-2
55379204408,1,-4,18,13,11,2,0,1
55379204408,-5,19,4,-4,-4,-1,-2,-3
55379220616,10,-7,-10,-2,4,-1,-1,3
55379220616,-1,-10,-15,-6,-1,-4,-1,-2
55379222194,-4,15,10,-11,-10,-3,0,-1
55379222194,-9,-25,-12,3,4,2,-3,-3
55379243265,-1,31,24,-1,-7,-1,-1,-3
55379243265,3,-8,11,12,-3,1,1,3
55379244746,0,15,-2,-2,-2,-2,-1,1
55379244746,3,13,-10,-1,0,-3,-2,0
55379257435,-5,-28,-12,-10,-27,-1,-3,-2
55379257435,2,2,-3,-1,10,-1,0,-2
55379271880,1,-6,3,3,-4,1,1,-1
55379271880,3,26,11,-3,2,-4,-3,-2
55379279484,-12,-31,-24,-11,-7,-1,-1,-2
55379279484,-5,2,9,8,16,-2,-2,-1
55379288268,0,1,-6,-2,-6,-1,0,0
55379288268,-1,-14,2,-7,1,-1,1,0
55379303254,1,26,1,11,5,-2,-1,2
55379303254,-1,7,10,-1,-2,0,1,-1
55379304711,-2,-8,-6,1,10,0,-1,-1
55379304711,4,19,-6,-2,-4,-3,0,-2
55379325676,1,-10,-1,-1,2,-4,-1,-2
55379325676,-1,2,-4,-5,-5,-1,-3,0
55379327267,-2,-9,0,2,-4,0,-2,-1
55379327267,3,17,0,-2,0,0,0,1
55379339272,0,-12,-4,0,2,2,3,-3
55379339272,-8,-11,-8,-3,-1,-2,-3,-2
55379348274,-5,-9,9,-1,2,-1,1,-1
55379348274,1,-4,-12,-10,-12,-3,-3,-1
55379363153,3,3,-27,2,5,2,-1,1
55379363153,-2,21,10,2,-2,-4,0,-1
55379364762,-12,-15,-3,-9,-10,-2,-2,-3
55379364762,12,7,4,11,17,5,-1,-1
55379385740,-1,0,3,-5,-7,-4,-2,-2
55379385740,-8,-25,-9,-10,-7,-1,-2,-2
55379387271,5,13,-2,8,-1,0,1,2
55379387271,-4,-11,6,-2,-9,-3,-3,-2
55379399336,3,12,5,2,-5,-2,-2,-1
55379399336,3,0,-2,1,3,0,-1,0
55379408283,1,9,-1,-2,1,-1,-1,0
55379408283,-9,-14,-14,-7,-5,0,0,-3
55379423115,2,3,19,0,0,0,1,1
55379423115,-2,4,-12,2,4,2,2,-2
55379424718,1,7,9,1,-8,-1,-1,-2
55379424718,-1,-3,-3,-2,0,1,-1,-2
55379445741,-1,20,9,3,-3,0,1,0
55379445741,-3,-27,-9,-9,-6,-1,-2,0
55379447209,-1,5,0,8,3,-2,-2,-1
55379447209,-5,28,3,1,3,1,0,1
55379459290,8,-28,12,-8,0,-4,0,-1
55379459290,-6,7,-5,1,5,-2,1,-1
55379468297,8,7,-7,-1,-2,-1,-1,1
55379468297,-2,10,24,10,-4,-1,-1,-1
55379483210,-6,-7,-23,-4,1,0,-1,-1
55379483210,1,19,14,10,-8,0,-1,1
55379484772,6,2,-1,-4,3,-2,-1,-3
55379484772,-5,-16,1,-2,12,-5,0,0
55379506266,-2,7,-6,-2,-9,0,1,-1
55379506266,1,-9,-24,-12,-2,1,-1,0
55379507696,-2,2,13,5,3,-1,0,0
55379507696,-1,4,19,15,3,-1,0,1
55379519418,-4,12,-16,-9,-2,-5,-4,-4
55379519418,-14,-1,15,-9,-1,-3,-1,-2
55379528232,15,-12,-26,-2,-2,0,0,2
55379528232,-11,-39,-9,-9,-14,-1,0,-2
55379543186,0,31,8,10,30,-1,0,1
55379543186,2,-18,8,-5,-5,-2,-2,-2
55379544699,-8,-6,-10,-3,2,-2,0,-1
55379544699,7,-11,-19,-12,-3,-4,-2,-1
55379565758,-1,-10,18,-7,-10,0,-3,1
55379565758,-6,-3,4,23,18,1,-1,-2
55379567220,-5,-1,14,0,1,1,-1,1
55379567220,10,8,-25,-12,-10,0,0,1
55379579295,-5,-19,-15,-11,-41,1,1,-3
55379579295,-23,-59,-22,-5,1,-6,-2,-6
55379588224,1,18,36,3,1,-1,0,-4
55379588224,-6,-25,-39,-1,1,-2,-1,0
55379602431,1,-15,14,6,2,-1,-1,1
55379602431,14,52,11,-6,-2,0,0,0
55379609260,-16,-33,-7,-10,-11,0,-1,-2
55379609260,1,38,25,13,4,2,-2,-3
55379624851,-3,-18,-34,-2,8,1,-2,-3
55379624851,34,63,13,-7,24,0,0,6
55379633311,-17,-44,-41,-10,-9,-4,-2,-3
55379633311,10,-5,10,5,-3,1,0,2
55379639444,-19,-11,-2,-10,4,-2,-1,-3
55379639444,-7,-37,-20,4,1,-1,-3,-8
55379648240,-8,24,17,-2,5,2,-3,-3
55379648240,7,-1,6,3,-11,-2,0,1
55379662558,1,-26,-8,5,18,1,1,-1
55379662558,2,8,11,-14,-22,0,0,1
55379669393,22,58,26,23,14,2,1,4
55379669393,-20,-50,10,7,-8,-1,0,-6
55379685718,-1,12,0,-6,-5,-2,0,-1
55379685718,0,-17,22,8,18,-3,0,4
55379687260,0,-24,-24,-12,-1,-1,-1,-2
55379687260,13,63,18,0,27,0,-2,4
55379708097,-1,-10,2,-3,-18,-2,-3,-1
55379708097,4,36,33,18,3,12,4,2
55379709736,-6,-46,-66,-21,-14,-8,-6,-5
55379709736,-7,-5,-7,0,2,-4,-1,-2
55379723073,0,-5,14,-7,2,6,0,1
55379723073,14,49,-7,4,4,-8,-1,0
55379724670,11,-17,-22,-9,-13,2,-3,2
55379724670,-28,-50,-23,-10,6,-6,-1,-2
55379747702,-6,-35,-48,-11,2,-6,-4,-4
55379747702,-2,11,11,-7,-22,-2,-2,4
55379749334,-7,-3,20,15,39,4,3,-1
55379749334,18,67,20,2,-17,2,2,1
55379768198,-12,-7,17,6,-14,-3,-3,-3
55379768198,-6,-59,-12,-6,10,3,3,6
55379769821,-26,-38,-14,-16,6,3,-6,-9
55379769821,26,-2,-22,-4,1,3,3,6
55379783115,-39,-9,7,3,-5,-16,-2,-10
55379783115,-11,-43,13,6,-15,0,-3,-8
55379784680,-17,-1,-5,-9,-5,-13,-4,-3
55379784680,20,-26,2,-1,-4,17,7,10
55379805741,-31,40,15,8,5,16,-6,-8
55379805741,31,71,-51,-33,-31,-31,-16,-8
55379807276,30,67,50,14,5,24,6,6
55379807276,-36,-40,-35,-8,-5,-26,-8,-11
55379828195,0,-13,88,32,2,37,10,11
55379828195,-10,-32,-16,-7,7,-4,12,-6
55379829729,8,29,-50,-8,-15,-10,-10,2
55379829729,-27,-16,13,-3,-5,-3,-5,-10
55379842450,9,-29,-2,3,19,-8,2,9
55379842450,-3,-6,9,5,5,14,-1,-4
55379849435,2,2,-17,-13,-7,-12,2,-9
55379849435,-2,50,28,6,-2,34,6,2
55379865793,8,-22,-29,-5,-10,-15,-5,1
55379865793,6,-2,-1,10,4,-5,0,-1
55379867263,-40,-45,18,1,-10,-22,-5,-3
55379867263,16,11,63,15,-18,1,-2,2
55379888246,-33,-24,-82,-26,14,14,-8,-29
55379888246,28,-23,-12,-5,-1,12,19,8
55379889701,18,55,53,22,26,0,-3,5
55379889701,10,16,20,8,9,-15,-8,-7
55379902294,16,16,-6,9,35,6,-5,5
55379902294,1,10,125,28,15,-3,2,5
55379910745,-24,-66,-81,-21,11,-5,1,-11
55379910745,-24,-41,0,-9,-18,-8,-4,-7
55379925570,5,8,8,12,15,-3,4,3
55379925570,26,89,-67,-22,15,0,-3,2
55379927207,47,-33,39,21,10,2,7,3
55379927207,83,127,5,-12,-55,-18,-3,4
55379947192,28,-69,-19,-8,10,-21,5,1
55379947192,-71,-69,-65,-16,-25,-17,-16,-10
55379955730,-12,-9,-98,-22,-17,16,13,4
55379955730,5,28,-4,-20,-15,11,-12,-6
55379962502,20,52,124,45,17,-13,8,7
55379962502,52,-36,15,12,-34,-19,1,15
55379969298,-57,-52,-15,-30,-26,0,7,-13
55379969298,-28,-128,-13,12,67,13,-5,1
55379985768,4,47,-73,-43,42,-5,-17,-13
55379985768,-3,63,34,16,-1,25,3,1
55379987409,61,38,92,17,-37,-8,-2,20
55379987409,-29,-56,-73,-18,-17,3,6,-8
55380008693,30,79,17,-5,-5,3,-2,8
55380008693,5,61,47,35,11,10,4,0
55380010185,-5,20,14,9,-10,21,0,-1
55380010185,17,114,60,25,44,6,3,11
55380022478,-4,-38,-35,-11,-31,-7,6,0
55380022478,55,-14,-90,-36,9,0,-1,4
55380029332,6,71,94,19,-4,-7,-2,7
55380029332,-22,13,-45,-5,3,-21,3,-4
55380045749,-7,31,18,-4,-40,11,-6,2
55380045749,-22,-24,-9,4,7,-4,0,7
55380047225,-24,-30,28,13,7,-1,-10,-13
55380047225,-11,72,-35,-30,-14,-19,-4,-8
55380068217,-15,24,-34,-11,-106,-30,6,2
55380068217,-22,-71,-9,13,63,3,-6,-8
55380069707,20,29,-57,10,19,1,7,14
55380069707,1,-33,24,20,36,-21,-13,-7
55380082541,-3,7,16,-3,-12,11,2,-5
55380082541,-47,-36,-67,-37,-77,1,-12,-5
55380089332,-6,38,17,14,53,-3,10,-2
55380089332,-57,-56,-9,-1,16,2,3,-10
55380105641,39,55,21,6,-15,6,2,3
55380105641,-48,-85,4,15,29,-18,-1,-14
55380107344,11,14,-14,-23,10,19,-12,-7
55380107344,14,-38,-24,-8,-34,7,1,4
55380128080,-3,-10,-8,-7,36,-13,-12,0
55380128080,25,71,90,23,-101,26,23,10
55380129702,1,58,-35,-22,-18,2,-5,-7
55380129702,2,-8,43,8,17,14,-2,3
55380142573,2,16,5,-6,10,-17,-6,2
55380142573,35,95,8,-3,-4,-4,-4,0
55380149340,-49,-38,-22,-8,25,-4,2,-4
55380149340,0,52,74,16,-38,-7,12,-3
55380165683,-40,49,20,2,82,24,12,-10
55380165683,16,44,5,-18,17,0,-35,-1
55380167200,2,-74,21,5,-25,-2,-12,-4
55380167200,43,55,14,11,8,-2,0,7
55380188241,6,-45,8,17,-22,11,1,14
55380188241,-27,-13,-8,-7,-18,-5,3,-13
55380189732,0,-20,19,5,4,22,-2,-5
55380189732,15,1,15,1,-46,-18,-5,13
55380201797,26,64,-13,-9,28,-2,2,-1
55380201797,-77,-98,-42,-21,11,4,6,-22
55380210748,33,42,18,15,-47,-12,-6,13
55380210748,-28,-58,-91,-26,-6,12,6,-12
55380233196,-15,26,-39,-20,-15,-8,-4,-10
55380233196,8,58,11,19,38,-1,6,8
55380234735,-34,-23,34,-2,14,-8,7,-14
55380234735,-26,-18,-54,-28,-6,15,-8,-12
55380248189,-9,-66,0,13,3,-7,4,2
55380248189,7,-52,38,-2,-5,-10,-1,1
55380249704,12,8,-65,-14,54,-2,-12,-7
55380249704,-10,-54,24,8,-16,12,0,3
55380261812,-5,-62,-51,-25,-63,-5,-2,5
55380261812,25,62,35,7,-19,13,13,19
55380270736,23,36,30,16,-46,-12,-3,-7
55380270736,-14,-37,-24,-17,24,-1,1,-3
55380285680,15,14,65,21,17,13,2,-4
55380285680,15,-31,-39,-13,-16,-2,-1,-3
55380287297,51,107,58,13,20,-4,2,10
55380287297,-36,18,-6,-4,-28,-3,2,1
55380308104,2,81,-4,-11,-47,-10,-12,-8
55380308104,4,52,-6,4,46,5,-7,-2
55380309703,-22,-76,-73,-19,-16,16,6,-5
55380309703,48,121,65,26,78,-12,-26,4
55380321834,58,87,-11,10,-46,6,11,18
55380321834,0,48,-36,-28,-20,-14,3,-14
55380330699,37,55,23,6,-19,-6,20,11
55380330699,32,52,-21,-18,-69,-7,-19,0
55380345606,35,-9,22,12,37,11,-7,1
55380345606,-25,-54,-19,-3,-1,6,-5,-5
55380347193,-28,-21,31,6,-7,-6,0,1
55380347193,10,-48,-28,4,6,13,12,1
55380368097,-41,-14,63,16,17,-2,3,-2
55380368097,24,-3,-14,10,66,7,5,7
55380369681,-36,-28,-1,-13,-36,-16,-10,-9
55380369681,33,73,8,-2,-6,-9,5,16
55380381735,-24,-80,-33,4,20,19,-7,-15
55380381735,-2,27,-22,-2,-45,-11,3,6
55380390700,-54,-7,-36,-18,19,-7,-12,-17
55380390700,-15,-27,-24,-18,2,-14,-2,-2
55380405662,-4,-32,-6,-2,28,-4,5,4
55380405662,12,46,55,12,8,3,-1,3
55380407183,40,61,-16,-7,-40,-13,-1,10
55380407183,-2,-5,16,8,-4,11,-6,-16
55380428093,-10,-26,-10,-11,3,2,-5,2
55380428093,-9,-20,21,19,33,-16,-10,-13
55380429759,-17,-45,-19,-5,23,-4,-14,4
55380429759,-45,-115,-27,-6,10,-4,14,-6
55380441708,68,64,28,11,-4,-1,8,14
55380441708,-41,19,-21,-19,18,-8,-8,6
55380450715,-8,2,-8,-1,-6,-21,9,-10
55380450715,-8,2,4,16,59,28,2,5
55380466190,-9,36,22,2,8,-22,-3,-6
55380466190,-4,-24,-15,-12,-47,-6,-3,-1
55380467817,21,-16,17,10,68,12,-4,5
55380467817,-2,-44,14,-3,-54,7,7,2
55380488241,-27,7,-35,-13,18,-18,-10,-7
55380488241,6,-82,-11,0,-59,12,3,8
55380489718,20,29,11,2,28,-4,-19,-12
55380489718,-23,-57,-22,-8,-5,5,-7,-11
55380510641,-59,-51,-9,-3,-20,-13,-6,-10
55380510641,7,55,8,2,-27,-9,-4,1
55380512161,32,39,-23,-1,-3,10,12,11
55380512161,-2,16,44,26,23,-6,5,-3
55380525668,-12,-65,-38,-10,-29,0,16,-2
55380525668,-21,13,33,7,32,30,-26,-8
55380527226,-17,-44,-34,-15,-24,-12,-9,12
55380527226,1,5,-11,-15,-76,-35,-3,-6
55380548124,21,-36,13,7,6,29,2,17
55380548124,13,38,-17,-6,-13,-10,7,-19
55380549722,-40,-47,2,-8,-43,13,3,-15
55380549722,4,12,0,7,36,9,-3,4
55380561734,10,-5,-9,2,-10,10,0,-8
55380561734,-3,-13,-22,-2,3,-7,2,0
55380570742,-1,-30,18,0,-10,12,2,8
55380570742,23,84,44,8,-20,-8,7,2
55380585642,-57,-71,-47,-26,4,-6,-11,-20
55380585642,-13,2,9,0,24,1,0,1
55380587200,10,20,10,3,15,5,3,2
55380587200,-1,15,-4,5,21,-1,1,5
55380608169,-2,-15,7,-7,-37,-3,6,5
55380608169,16,67,27,-4,-5,-14,-9,-5
55380609757,29,61,5,1,-28,-2,1,-1
55380609757,6,22,27,16,22,6,12,7
55380630665,-3,16,-35,-4,16,-8,-34,-14
55380630665,-6,-49,17,2,-52,-6,1,8
55380632213,43,98,40,19,31,7,5,5
55380632213,-49,-88,-30,-20,3,3,-7,-10
55380645558,35,85,14,5,15,-14,10,2
55380645558,-24,-58,-2,0,16,8,-2,-9
55380647183,10,-31,9,16,29,-24,-2,2
55380647183,-21,-9,-14,-7,-36,-13,-8,2
55380668091,35,39,-2,0,-2,2,1,6
55380668091,7,-6,-15,1,5,3,8,0
55380669889,-12,13,-18,-5,-11,15,-1,-5
55380669889,22,-18,-63,-13,15,3,4,1
55380698131,-30,-17,-16,-10,-21,-17,-6,-10
55380698131,20,15,7,2,13,1,2,16
55380699746,-14,-5,-17,-11,-62,-2,-5,2
55380699746,-12,21,9,-2,-24,-11,-5,-4
55380705663,-17,8,9,3,1,13,0,-1
55380705663,-19,-62,-6,2,44,-5,-2,-15
55380707184,-9,-10,-4,-11,-33,4,-2,5
55380707184,-19,-1,17,3,17,3,-4,-6
55380728107,59,61,35,15,68,-17,4,6
55380728107,-1,-12,22,-1,-35,-4,-1,-14
55380729705,-15,-53,1,-3,19,-21,9,-1
55380729705,21,26,-13,0,74,3,-14,-5
55380750691,18,36,14,-1,-25,5,-5,-4
55380750691,-23,-41,-29,-2,11,15,5,3
55380752178,-7,-43,-3,-1,5,-6,-5,4
55380752178,18,6,-12,-4,-22,-8,7,3
55380765700,22,7,-9,-9,30,0,1,6
55380765700,5,-14,-9,-2,16,-6,-3,1
55380767162,-21,-33,-23,-8,-35,12,1,4
55380767162,50,25,5,1,10,2,2,9
55380788218,-8,6,15,12,19,6,2,2
55380788218,12,11,-22,4,38,-1,11,11
55380789709,-17,-47,-4,-8,-23,-21,-15,-19
55380789709,-3,51,31,13,-19,0,-4,12
55380810599,35,84,47,15,3,-4,-5,5
55380810599,-72,-73,-61,-19,34,0,1,-16
55380812205,25,52,-9,2,54,4,0,-6
55380812205,-1,10,16,8,0,-5,4,6
55380825489,-18,-41,-6,-10,-40,3,4,0
55380825489,21,-16,0,6,17,-1,-2,3
55380833257,11,36,3,-4,-13,0,0,1
55380833257,-46,-56,-10,-4,17,7,-9,-18
55380848193,-7,-51,-4,-4,-41,2,3,9
55380848193,31,52,20,0,-16,-8,-3,4
55380849729,11,28,6,-8,2,-8,14,0
55380849729,-22,-71,-53,-12,-4,-9,-17,-12
55380871396,-15,3,-22,-7,-16,-13,1,0
55380871396,18,73,37,8,-89,11,-2,1
55380872852,16,20,23,13,93,3,-3,2
55380872852,-18,-16,-8,-9,-5,4,10,-3
55380884930,-15,-31,-12,0,-2,-6,-5,-7
55380884930,-31,-57,4,-6,27,3,-7,-6
55380891759,-41,-24,-16,4,-22,-3,1,-9
55380891759,61,31,1,-3,4,8,7,14
55380908239,-45,-90,7,1,72,0,-11,-8
55380908239,28,-3,-21,-16,-5,-8,-3,1
55380909806,-6,26,14,6,-9,9,-5,-3
55380909806,13,29,14,3,-21,-7,1,4
55380930565,29,4,-2,-4,33,11,7,12
55380930565,-13,13,-1,-5,-26,-25,-3,0
55380932194,-11,-37,-8,-2,6,13,-1,-2
55380932194,-14,-32,-16,-4,-10,-1,-17,-6
55380945010,5,16,4,4,8,13,2,-5
55380945010,17,80,22,11,27,10,1,-1
55380951751,23,-30,-21,-7,7,-21,-5,7
55380951751,11,30,8,-3,-9,-10,5,-1
55380975585,-16,-6,-11,-1,-21,-2,2,-2
55380975585,-12,74,35,1,9,-2,-5,-6
55380977286,-30,-54,-3,3,-12,7,1,-6
55380977286,0,12,-9,-9,8,11,3,2
55380990581,2,25,4,1,-16,-15,-7,-1
55380990581,13,38,5,2,-59,-3,7,0
55380992175,-9,5,-2,-2,2,22,-1,-4
55380992175,-2,-43,4,11,16,-13,1,1
55381004910,-8,4,-12,-7,-34,0,1,-6
55381004910,3,-10,9,5,-3,-6,-3,0
55381012066,2,13,-20,-17,-70,-10,-7,-4
55381012066,21,-25,-6,0,33,2,-3,1
55381028064,-14,1,4,0,-17,-4,8,-6
55381028064,9,-26,-13,-5,0,4,1,7
55381029764,-27,-16,14,11,16,-3,-1,-7
55381029764,-14,1,-6,-11,7,-4,-4,-10
55381050654,-34,-24,-18,-1,-13,-4,-2,-2
55381050654,-10,-24,3,-3,-1,-1,-3,-4
55381052244,-1,15,24,-1,2,-3,0,4
55381052244,29,45,14,6,-24,7,5,2
55381065578,-53,-94,-8,0,-8,0,-5,-10
55381065578,5,-22,-14,-2,9,3,0,2
55381071815,4,8,8,1,-10,1,-1,3
55381071815,-3,56,27,-1,-20,-6,2,7
55381088189,20,31,-3,-6,21,-4,-4,2
55381088189,-8,-51,-18,-1,-1,1,-3,-1
55381089690,2,-7,0,2,-22,-1,0,5
55381089690,-4,10,-1,-3,17,0,-2,-2
55381110535,22,20,-13,-6,-29,3,0,3
55381110535,-5,-17,-13,-6,15,-2,-1,-4
55381112253,11,13,4,1,13,-1,-2,-5
55381112253,-9,-15,-1,-4,-7,-8,-5,-5
55381124349,25,39,13,2,-1,-2,0,5
55381124349,-5,1,-6,-6,-7,1,1,1
55381133293,8,-12,-13,-1,2,-28,-5,0
55381133293,-1,5,1,-1,-15,26,8,-6
55381148725,14,14,4,-4,-4,-5,0,3
55381148725,-4,-37,-5,2,0,0,0,-5
55381150267,9,17,19,4,6,-2,-5,4
55381150267,32,14,9,2,-2,-7,-2,4
55381170692,-22,-73,-15,1,23,3,-1,-6
55381170692,-12,15,-9,1,-19,-5,-4,-1
55381172165,42,37,2,-8,23,4,2,6
55381172165,2,2,9,15,15,-4,-1,-3
55381184334,0,-4,-8,-5,-8,8,1,-5
55381184334,9,15,6,-6,5,-5,-1,-1
55381193213,-33,-13,-8,1,-4,2,0,-3
55381193213,-18,25,2,-6,13,5,-1,1
55381208109,35,0,8,3,-3,-2,1,8
55381208109,-19,33,0,-4,1,-1,-1,0
55381209712,12,-33,-12,-5,-21,0,-1,-2
55381209712,-10,-15,-12,1,2,-4,0,-5
55381230611,12,16,10,2,-4,-1,-1,5
55381230611,-8,15,1,-3,-12,1,-2,-10
55381232204,-4,20,6,3,-2,3,-1,1
55381232204,-16,-48,-15,-5,-16,-5,-3,-4
55381244263,9,33,5,-2,-4,0,0,-3
55381244263,4,-7,-4,-2,-7,1,0,-2
55381253217,5,-14,-2,1,13,0,-2,-3
55381253217,-12,7,4,-7,10,-5,-1,-8
55381268066,-22,-12,-14,-6,-9,-4,-3,-5
55381268066,14,13,7,3,-1,0,-2,3
55381269679,-17,-12,-12,-4,-3,3,-2,-4
55381269679,18,52,10,1,-4,-3,2,4
55381298064,-34,-36,-23,-6,7,-3,-5,-9
55381298064,32,29,22,5,6,-3,0,9
55381299726,-5,-16,-13,-3,-5,2,1,0
55381299726,5,30,13,1,-13,-3,-2,-2
55381304230,-6,15,5,-3,7,-3,3,0
55381304230,-8,8,7,9,16,4,-2,-5
55381313215,-6,-9,-3,3,4,0,1,0
55381313215,-19,-36,-10,-4,-15,-2,-5,-2
55381328163,-10,13,9,6,-3,-3,-2,-3
55381328163,9,-24,-4,-2,4,-3,1,3
55381329816,7,36,4,-1,-9,-4,-1,1
55381329816,-2,3,1,2,-6,1,1,-2
55381349933,-1,-9,-10,-8,-8,-2,-3,-5
55381349933,7,21,-4,2,11,-1,0,1
55381350690,-23,-3,1,-3,-1,0,-1,-2
55381350690,7,-58,-8,-4,-12,-1,2,5
55381372406,-3,13,3,7,-10,3,1,-1
55381372406,23,0,3,-2,-10,-1,-2,3
55381373202,11,6,2,-3,7,2,1,-2
55381373202,7,14,-1,-2,-1,-3,-1,-3
55381387510,-4,-6,10,5,28,1,0,0
55381387510,-13,-11,-5,-6,-5,-3,-1,-2
55381388166,-2,12,4,2,12,1,-2,1
55381388166,-2,5,-2,0,-9,-3,-1,0
55381409895,-2,-6,3,-1,11,1,0,0
55381409895,4,35,9,0,18,1,1,2
55381410777,-15,-53,-12,-3,-1,-2,-2,-10
55381410777,22,3,-1,1,-2,-8,0,4
55381432528,2,37,8,7,-5,1,-3,0
55381432528,-11,-38,-13,-5,-4,-2,-4,-3
55381433197,-24,-5,-4,-1,-6,-2,-3,-6
55381433197,-30,-34,-6,-4,6,1,-3,-4
55381447434,28,2,3,6,21,1,2,5
55381447434,15,-7,-4,-10,-19,-2,-1,4
55381448329,6,11,5,1,9,-4,0,0
55381448329,-17,1,3,4,-7,2,0,0
55381469907,-3,11,1,-3,-12,-1,-1,3
55381469907,-6,2,-9,0,0,-1,1,-4
55381470705,8,-5,6,-1,-10,-3,0,4
55381470705,2,4,-5,-5,-3,-3,2,-1
55381492383,3,-12,-1,-8,-10,-1,-4,-3
55381492383,3,12,-2,6,5,0,1,1
55381493234,7,3,8,3,-12,0,-2,2
55381493234,-3,-29,-12,-3,9,0,0,-3
55381507426,-1,6,9,-3,-15,-3,1,-6
55381507426,-10,-3,-6,0,-1,0,-1,1
55381508153,7,11,6,4,5,1,4,3
55381508153,-8,10,0,-1,-12,-2,-3,-5
55381530078,3,-34,-10,0,3,1,0,-2
55381530078,-10,-20,9,2,4,-2,-1,-3
55381530671,-14,19,-2,0,0,0,4,8
55381530671,9,16,-2,-3,4,2,-2,-1
55381552506,5,10,-2,0,-15,-3,-1,2
55381552506,10,-17,-7,-4,-2,-1,-1,1
55381553143,2,16,0,-4,-3,0,-4,-3
55381553143,-4,0,1,2,7,0,-1,-1
55381567493,-8,-9,0,0,4,1,-1,-2
55381567493,-9,18,-4,-5,-8,-1,-3,-3
55381568150,-1,-16,2,-1,-5,2,-1,-3
55381568150,-1,-16,-12,8,20,-2,-1,-2
55381589990,1,15,5,2,2,1,-1,0
55381589990,-9,-22,-7,0,-7,-3,1,0
55381590781,3,6,7,-3,-34,2,0,-3
55381590781,-3,5,-15,-7,-2,-2,-1,0
55381612485,7,-11,2,1,-15,1,-2,0
55381612485,2,22,7,-3,3,-6,-4,-2
55381613164,-4,-31,-12,-4,2,-4,-5,-4
55381613164,-24,14,17,4,4,1,0,-9
55381627474,-3,-28,-17,-3,3,-3,0,5
55381627474,-7,16,9,3,-3,4,2,-1
55381628165,6,5,-1,1,7,-3,-1,-6
55381628165,-2,-14,-2,-8,3,-3,-1,-2
55381649929,-10,-1,0,4,0,-5,0,-2
55381649929,0,-8,-3,3,-1,-2,-1,-2
55381650673,0,7,-2,0,14,-1,-1,-1
55381650673,-2,-1,2,1,-7,-1,0,1
55381672412,9,11,1,-5,-12,-4,0,0
55381672412,-2,-6,-8,-8,9,0,0,0
55381673162,6,18,1,3,21,0,-1,-1
55381673162,11,15,8,3,-15,-2,-1,0
55381687494,-8,-21,1,0,-2,-1,-2,-3
55381687494,-5,0,-2,3,-2,0,0,0
55381688151,-13,-15,-7,-3,-1,-4,1,-3
55381688151,13,47,10,-1,-5,-3,-13,2
55381709991,-3,-9,-11,-6,0,2,8,-1
55381709991,-1,1,1,3,-7,-3,-1,0
55381710717,0,22,4,-1,-18,1,-2,-10
55381710717,-4,-23,0,2,13,-1,-2,-1
55381732345,-1,-5,1,-2,-5,0,-5,-3
55381732345,-9,-4,-5,1,22,1,-1,-3
55381733176,4,1,-4,-1,-3,-3,-1,1
55381733176,6,0,1,-4,-9,-5,3,0
55381747400,-7,8,-1,4,4,2,-6,-6
55381747400,3,-18,4,1,0,0,0,-1
55381748124,-2,14,1,0,3,0,-1,2
55381748124,-2,-24,-12,-6,0,-1,3,-2
55381769905,4,1,-2,-2,-20,-3,2,3
55381769905,-12,-50,-7,-1,6,1,-2,-4
55381770674,3,-13,-2,-2,8,1,-2,1
55381770674,-11,5,-1,-2,-1,0,-1,-1
55381792387,6,24,5,0,-1,-1,-1,0
55381792387,23,6,6,1,-8,-3,1,4
55381793201,-6,-22,-23,-9,-7,-2,-6,-4
55381793201,11,16,1,-1,-5,3,8,3
55381807473,-7,-29,-5,-6,-6,-3,-4,-5
55381807473,-5,5,6,2,8,2,-1,-3
55381808173,-18,6,-5,1,-8,0,-3,-4
55381808173,4,3,2,-4,6,0,-2,0
55381830021,-4,14,3,0,6,-2,-2,-1
55381830021,0,-12,-7,-3,-10,-2,-1,1
55381830711,13,36,10,3,-19,-1,2,-1
55381830711,-21,-66,-13,-3,-1,-1,-4,-6
55381852403,13,17,1,0,4,-2,-1,1
55381852403,-9,5,1,-3,-3,2,0,2
55381853164,9,0,1,2,2,-4,0,4
55381853164,2,25,-3,-1,6,-2,-1,-6
55381867331,5,7,-4,0,7,-2,-2,-5
55381867331,-10,3,3,-2,-5,-2,-1,-6
55381868335,10,-7,-1,2,4,5,2,6
55381868335,10,17,7,1,-5,-2,-2,-6
55381889895,-5,7,-2,1,2,1,2,7
55381889895,-19,-33,-10,-8,-5,-4,-3,-9
55381890694,0,-15,-2,-3,6,-1,-2,0
55381890694,0,2,0,1,-7,-2,-5,2
55381912356,20,-15,0,8,27,2,7,9
55381912356,4,40,8,-1,0,1,-2,-2
55381913204,-7,-11,-6,-3,-1,-2,-2,-4
55381913204,-9,-10,-2,1,-3,1,3,4
55381927386,5,27,-3,-6,-9,-4,-8,-3
55381927386,-2,-18,-4,0,-1,-1,-2,-3
55381928163,4,-6,3,1,5,-2,0,5
55381928163,3,1,-4,-2,-7,0,-1,-9
55381950053,-8,2,1,-5,-5,-1,-2,-6
55381950053,5,0,-6,1,0,0,1,8
55381950724,8,18,6,-3,-8,-3,1,0
55381950724,-6,3,-4,2,2,-1,1,4
55381973162,-8,-18,-2,-1,-4,-1,-1,-6
55381973162,0,-23,-7,-1,2,-1,-3,-4
55381973836,-5,2,1,-1,-2,-2,-1,0
55381973836,-8,-28,-13,-5,0,-2,0,3
55381987409,-5,2,-1,-3,-4,-1,-1,-5
55381987409,13,52,2,-1,0,-3,-1,-1
55381988165,0,-5,5,2,7,3,4,3
55381988165,12,-2,-1,4,3,1,1,8
55382009955,-21,-5,0,1,-4,0,-1,-3
55382009955,-1,-9,-2,-1,-3,0,-4,-2
55382010756,7,-1,-5,0,0,-3,-3,-3
55382010756,3,4,6,-1,-1,-4,1,0
55382033199,-4,-7,0,-2,-8,0,3,0
55382033199,3,8,1,3,5,-3,8,-1
55382033861,-6,-3,-3,1,1,-1,0,7
55382033861,-2,11,4,-2,-3,-2,-3,-2
55382047535,-3,-7,-1,-1,3,-1,0,-2
55382047535,-3,-12,-8,-3,-3,-1,0,-1
55382048184,1,2,7,1,-1,1,1,-5
55382048184,1,-3,-6,-5,-3,-2,-2,0
55382069899,5,-2,1,-3,-2,-2,-1,2
55382069899,6,17,4,1,-3,2,-1,3
55382070692,-17,-31,-11,-1,3,-1,-5,-7
55382070692,-8,8,2,1,-1,0,-1,-5
55382093172,9,-7,-6,-3,4,1,-1,5
55382093172,5,-1,-3,-5,-4,-1,-2,-3
55382093838,0,4,-2,-3,-4,-3,-1,2
55382093838,-6,-4,6,4,4,2,4,-1
55382107569,-5,0,-4,-3,-3,6,-12,-4
55382107569,-6,-4,0,-3,-4,-6,5,0
55382108192,21,8,4,2,2,4,2,6
55382108192,1,-9,-3,-2,2,0,0,-1
55382130016,-3,1,-2,-4,-5,-2,3,0
55382130016,1,-5,-1,2,0,0,-4,1
55382130718,-11,0,0,-2,2,2,-2,-10
55382130718,0,-1,-3,-1,-4,-2,0,3
55382154633,3,-1,1,1,0,-1,-3,-1
55382154633,-15,-5,0,-1,-2,-2,-6,2
55382155322,0,5,-2,-2,-2,-4,0,-8
55382155322,5,0,1,1,-1,-2,-3,0
55382175684,-2,11,5,3,1,-5,1,0
55382175684,-2,-18,-3,-2,-5,1,0,0
55382176339,-3,-1,-5,-5,-3,1,-5,0
55382176339,3,5,0,1,0,0,-2,1
55382190030,-3,-2,-1,1,0,-2,2,-2
55382190030,3,-2,-2,-2,-1,-1,4,-1
55382190686,-2,9,1,0,1,-2,-6,0
55382190686,0,-2,0,1,2,0,-1,-1
55382213195,-11,-14,-4,-3,-3,0,0,-3
55382213195,1,5,-1,-2,0,-2,-1,0
55382213895,-1,-7,0,1,-1,-2,1,1
55382213895,3,9,1,-2,-1,-1,-1,-6
55382226827,1,-13,-5,-2,-3,-1,0,0
55382226827,-4,1,0,5,3,-1,-2,-3
55382234993,7,-4,2,0,-2,-2,1,2
55382234993,-5,-8,-6,-2,-3,-2,-2,0
55382249993,0,5,0,1,0,0,0,2
55382249993,-2,-1,-1,-2,-1,0,-2,-4
55382250797,-4,-5,0,-2,0,1,0,-2
55382250797,0,4,-2,0,-1,3,0,-3
55382273161,-1,-8,1,-1,0,-2,1,4
55382273161,1,-14,-2,-5,-1,-2,2,0
55382273906,-8,3,-7,-3,-2,-1,-1,-4
55382273906,11,-4,-2,-2,-3,-2,0,7
55382286856,-4,3,2,0,1,-1,0,-4
55382286856,-1,1,0,1,-2,-1,-1,1
55382295125,3,-1,0,2,-1,-2,3,1
55382295125,-10,-7,-2,-2,0,-1,-7,-5
55382309958,0,4,1,-3,-3,-1,-1,-4
55382309958,-4,-2,-2,1,0,0,0,-1
55382310850,-6,-1,0,-3,-2,-1,2,-1
55382310850,-2,-2,-2,-1,-1,-1,-1,0
55382333259,-4,3,0,-1,0,-8,-1,-2
55382333259,-5,1,-1,-1,0,-1,-3,-4
55382333981,1,-5,-2,-4,-1,0,-4,-6
55382333981,1,-3,-1,0,-1,-3,1,-2
55382346856,4,13,3,1,1,0,-2,2
55382346856,-4,-25,-6,-3,-1,1,-2,-4
55382355129,-4,-2,-2,-2,-3,-1,-2,0
55382355129,-3,-2,-1,-1,-5,3,1,-1
55382369849,-2,0,-2,0,2,0,0,-2
55382369849,-3,11,1,-1,-2,-1,-4,0
55382370687,2,1,-1,1,5,-2,0,1
55382370687,-5,-4,-2,-1,-1,-2,1,-1
55382393170,-2,-2,-2,-1,-2,-1,-1,1
55382393170,2,3,-1,0,2,0,-5,-6
55382393910,-10,2,0,0,-2,0,1,-2
55382393910,-1,-1,0,-1,2,-2,1,0
55382406843,0,-6,0,0,0,0,-3,-1
55382406843,0,6,-5,0,-1,-1,2,0
55382415020,-3,0,-1,0,-2,-3,-3,-1
55382415020,1,3,-1,-1,0,-2,-1,-3
55382430121,0,-2,0,-1,-5,0,0,1
55382430121,1,2,0,3,-1,-1,-2,-4
55382430688,1,-1,0,-1,-2,-7,-1,-1
55382430688,-3,-2,-1,-2,-1,-1,-1,1
55382453248,2,-4,-3,1,-1,-1,0,0
55382453248,4,3,4,-1,0,-2,1,1
55382453819,-1,-2,-3,-3,-4,1,1,-1
55382453819,2,-2,1,-2,1,3,-1,-1
55382466864,-10,-3,-1,-3,-3,0,-1,-2
55382466864,6,1,-1,-2,3,-1,0,0
55382475048,-7,-4,-1,2,1,0,1,-1
55382475048,5,-1,-1,-2,0,-2,1,-1
55382489881,4,0,0,-4,-2,0,-2,0
55382489881,-4,-2,0,-3,-2,-2,0,-1
55382490742,-2,-2,-2,0,-1,0,-1,-1
55382490742,-5,-1,-3,-1,0,-2,-2,-2
55382513170,1,3,-2,-2,-1,0,5,-1
55382513170,-1,-4,-2,0,-4,-1,-8,2
55382513919,4,1,-2,-2,-1,-1,-3,-1
55382513919,-2,-4,-1,-2,-1,0,-1,-1
55382535559,3,-2,-1,-3,0,0,1,-2
55382535559,-4,-1,0,0,0,2,3,0
55382536372,0,-3,0,-2,-1,0,-2,-3
55382536372,-2,1,-2,0,-4,-1,-1,-2
55382549970,-3,-1,-3,1,4,0,-3,1
55382549970,-1,2,0,-2,-3,-5,0,-1
55382550755,-11,0,0,-2,-2,0,-4,-6
55382550755,7,-4,1,1,1,-3,1,3
55382573293,-3,-3,-1,-2,-2,-3,-3,0
55382573293,-1,2,-2,-2,-3,0,-2,-1
55382573846,1,-1,-1,-1,0,-1,0,0
55382573846,-6,1,0,-1,-1,-1,-2,-1
55382595674,1,-2,-1,0,0,0,-3,-1
55382595674,-7,-1,0,-1,0,2,5,0
55382596336,11,0,-1,0,-1,-3,-6,0
55382596336,-4,-3,-1,0,-2,-2,-2,-5
55382609875,3,1,0,-1,-2,-1,-2,1
55382609875,0,-1,-1,0,-1,-2,0,1
55382610696,0,-4,0,-1,-2,1,2,0
55382610696,-5,0,1,-2,-3,0,-2,-2
55382633011,-1,10,2,2,-1,5,0,-3
55382633011,3,2,0,-1,-1,-2,-3,1
55382633775,-4,-12,-4,-4,5,1,2,0
55382633775,2,3,0,0,-2,1,-1,1
55382655539,-3,-2,-4,-2,-2,-1,-1,-1
55382655539,-10,5,0,-2,-1,-2,-3,-7
55382656331,4,5,1,-1,-3,-2,-2,0
55382656331,-2,-4,-1,-2,0,1,0,0
55382669873,-2,-1,1,-2,-3,-4,-2,-2
55382669873,5,0,1,0,0,0,-1,0
55382670676,-6,-2,0,3,0,-4,0,1
55382670676,-2,-1,-1,0,1,-3,-1,0
55382693215,2,-3,-2,-2,-2,-1,0,0
55382693215,-5,-5,-2,-3,0,0,4,-2
55382693838,5,-1,-5,1,-4,1,-3,1
55382693838,0,1,0,1,2,2,2,0
55382715722,-3,-2,-2,-1,-2,-3,0,-3
55382715722,1,-2,0,-2,-2,4,0,-3
55382716385,2,0,2,-1,-1,-2,0,0
55382716385,-4,2,-1,-4,-2,-1,-3,-5
55382730008,0,-2,-2,-3,0,-2,0,0
55382730008,0,-2,0,1,-1,-1,-1,0
55382730730,0,0,0,-2,-3,0,0,-1
55382730730,-2,-5,-3,0,1,-1,-1,2
55382753320,-2,-1,-2,1,-2,-1,-2,-1
55382753320,1,-3,-3,-2,-3,-3,-4,-1
55382753845,6,4,1,-1,-3,1,2,2
55382753845,-2,2,-2,1,-2,-2,0,-1
