55341153578,-10,6,0,-3,-4,-1,-2,-10
55341153578,-6,-2,-7,-3,-5,-4,-4,-3
55341154394,2,3,0,4,1,-1,1,4
55341154394,8,3,-2,-2,1,-1,-1,-4
55341155236,-7,-13,-8,-3,-5,-5,-4,-3
55341155236,-2,3,0,5,1,-1,-1,-6
55341158744,-1,3,0,-1,0,-1,2,-1
55341158744,12,0,-5,-3,-5,-2,-2,-5
55341165097,-2,12,1,2,-2,-2,-2,0
55341165097,5,-24,-4,-1,1,2,2,0
55341174439,1,1,-7,-2,-3,-3,-5,0
55341174439,-10,-5,-5,-2,-4,-7,-3,1
55341180084,1,-2,-1,1,3,1,2,0
55341180084,-1,2,0,-1,-3,-2,-2,-1
55341195766,-14,-5,-5,-4,-2,-3,-4,-4
55341195766,4,-4,0,1,-1,0,1,3
55341203935,5,2,0,0,0,3,0,2
55341203935,-3,2,-2,-3,-2,-2,-2,1
55341218840,-1,2,-2,0,-3,0,-3,-3
55341218840,-6,1,2,2,2,0,-1,0
55341226715,2,-8,-1,0,-1,-1,-2,2
55341226715,1,9,-1,-2,-1,-2,0,-3
55341240019,-3,2,1,0,-2,-2,-1,-2
55341240019,-13,-3,-1,-1,-2,0,-2,-4
55341282628,24,24,4,2,5,6,6,7
55341282628,-4,-5,-1,-4,-3,-1,-2,-3
55341286239,-3,-1,-5,-3,-5,-4,-3,-3
55341286239,-5,-5,2,2,2,2,1,6
55341286987,0,3,0,0,-2,1,-2,-2
55341286987,-4,-4,-4,-1,-2,-4,-1,-3
55341287783,3,1,0,2,1,1,1,0
55341287783,15,10,2,-1,0,3,1,-1
55341293188,-7,-9,-10,-4,-3,-5,-6,-9
55341293188,-1,-1,-1,2,0,-1,-2,0
55341299880,1,7,3,1,1,0,2,1
55341299880,-15,-26,-7,-4,-3,-4,-2,-6
55341307377,-10,-4,-5,-1,-4,-5,1,-1
55341307377,5,3,2,1,3,1,-1,1
55341322502,-2,-9,-5,-2,0,0,-3,-6
55341322502,-5,0,-7,-1,-5,-4,-4,-3
55341329917,-17,-7,-1,0,-1,1,0,-4
55341329917,-7,8,-1,-2,0,-1,1,1
55341353826,-7,0,-3,-3,-4,-2,-4,-2
55341353826,1,1,-1,2,-1,-2,-1,-1
55341354571,-6,-17,-7,-2,0,-2,-1,-2
55341354571,-1,-7,-3,0,-3,-1,-1,1
55341368177,6,-11,-9,-3,-1,-2,-2,-2
55341368177,-1,-1,-4,-1,0,-3,-1,-2
55341368866,2,7,-1,-1,-2,-1,-3,-1
55341368866,1,0,-2,2,-1,-1,-1,-4
55341390530,2,-6,-3,-1,-1,-3,-2,4
55341390530,-3,8,-2,-3,-4,-2,-1,-1
55341391301,-4,6,-1,4,1,-2,1,0
55341391301,-4,-4,-3,-1,0,0,0,1
55341413866,-11,-20,-5,-5,-4,-1,0,-5
55341413866,-1,2,-4,3,2,0,1,3
55341414550,-3,-1,2,4,2,-2,-1,3
55341414550,-2,-2,-1,-11,-3,-2,-4,-2
55341428214,-3,11,-1,2,0,0,-1,1
55341428214,27,4,0,6,4,0,2,11
55341428911,1,-14,-1,-10,-7,-2,-6,-3
55341428911,-3,9,-2,1,-2,-2,-1,-2
55341450703,5,5,-1,10,4,1,4,5
55341450703,-8,-7,2,-5,-1,-2,-2,-6
55341451337,0,4,-5,-7,-1,-2,-3,-3
55341451337,5,2,1,4,2,2,1,3
55341473753,-4,17,4,1,-2,-1,-1,1
55341473753,-8,-10,2,-7,-4,-1,-4,-6
55341474606,0,-17,-1,2,0,2,1,0
55341474606,-1,-5,0,3,0,-2,0,-1
55341496244,-1,-8,0,-5,-4,-1,-2,-2
55341496244,1,14,2,-2,-2,0,-2,-1
55341497079,5,5,3,6,3,2,1,2
55341497079,-1,-10,-1,-4,-2,0,-2,2
55341510662,-6,2,1,-5,-2,-1,-2,-4
55341510662,5,0,-2,4,0,0,0,2
55341511344,-5,4,1,-1,-2,-1,-2,-3
55341511344,-8,-5,-2,-3,-3,-4,-2,-1
55341533765,2,4,0,1,1,-2,0,4
55341533765,-6,-4,-4,-1,2,-2,0,1
55341534526,-7,-3,3,-5,-2,-3,-1,0
55341534526,6,10,-2,0,0,-1,1,-3
55341547564,-2,-11,1,1,3,-1,0,2
55341547564,-5,1,0,-5,-1,-1,-3,-6
55341555850,-3,-17,-2,-1,-1,-1,-2,0
55341555850,15,0,0,1,-1,1,2,2
55341570682,0,6,4,-3,-2,-1,-1,-3
55341570682,-3,7,0,-2,-4,1,-2,-1
55341571368,5,4,0,0,-1,-1,1,1
55341571368,-5,1,-1,-3,-1,-1,-1,-1
55341593896,2,1,0,-3,-3,0,-2,-5
55341593896,3,-10,0,1,-1,-1,0,3
55341594596,-8,1,0,1,-2,-3,-1,-4
55341594596,6,-9,0,-3,-1,-1,-4,-2
55341616268,-7,2,-1,-1,0,-1,0,-1
55341616268,-15,-4,-1,0,0,-2,-1,-5
55341617040,-2,5,0,-2,-2,-2,-3,-3
55341617040,0,4,3,-1,-2,-1,0,2
55341630747,1,-19,-3,2,2,0,-1,1
55341630747,3,1,0,-1,-1,-1,0,-5
55341631365,3,0,-2,-1,-1,0,0,-1
55341631365,-4,19,-2,1,-1,-1,-2,-2
55341653897,-5,-19,0,-2,-1,-3,1,3
55341653897,-3,-2,-4,-2,-1,0,-2,-2
55341654573,4,8,0,-2,1,-1,-1,4
55341654573,-5,-8,-3,-1,-1,1,-3,-1
55341667437,11,11,0,0,0,0,-3,1
55341667437,0,-1,-2,-3,-2,-1,2,1
55341675738,0,6,-4,-2,2,0,-2,-4
55341675738,22,-5,-1,-2,-3,-1,0,4
55341690654,2,3,0,-1,-2,0,-1,-1
55341690654,1,-4,-1,1,-1,-3,-3,-1
55341691350,7,-1,-2,-1,-1,-1,-1,-1
55341691350,-13,9,1,-1,0,-4,-1,-4
55341713788,-6,-21,-4,-2,-1,1,1,-3
55341713788,3,4,2,2,-1,0,0,4
55341714570,-7,-4,-1,-1,-3,-1,-2,-7
55341714570,-7,-4,-2,1,0,-2,-2,-2
55341727506,11,8,-2,-2,-2,-3,0,2
55341727506,-4,1,0,-2,-2,-2,-2,-2
55341735695,0,-6,-3,-4,-3,0,-1,4
55341735695,-6,-2,-4,1,0,-2,1,-1
55341750586,-3,9,-2,0,0,-1,0,4
55341750586,-6,-10,2,-2,-1,0,-1,-3
55341751326,5,15,-2,2,-1,1,0,0
55341751326,-3,-12,-3,-3,-3,-2,-1,0
55341773759,-7,1,0,-1,0,0,-2,-3
55341773759,-1,-1,-1,-2,0,-1,-1,-2
55341774532,-1,-4,1,1,1,0,-2,-5
55341774532,-7,-6,-1,-1,-1,0,-1,-2
55341787399,-5,8,2,2,0,-1,-3,-6
55341787399,-1,-3,-5,0,1,-3,0,0
55341795672,3,13,3,-2,1,-2,0,1
55341795672,-8,-18,-4,-2,-2,-1,-2,-3
55341810557,0,2,2,0,-1,-2,-2,-2
55341810557,-1,2,-1,-1,-1,0,0,1
55341811463,-9,-3,-2,-1,-2,-2,-3,-1
55341811463,41,3,-2,-2,-1,-1,2,15
55341833789,-1,2,-1,0,0,-1,-2,-1
55341833789,-5,-1,-4,-2,-2,1,-2,0
55341834853,0,-6,0,-2,0,-1,1,-1
55341834853,-8,6,5,1,3,1,1,-8
55341847410,-2,-7,-3,0,-1,-3,-1,-2
55341847410,5,4,-1,-2,-1,-1,-1,0
55341855556,-2,-4,0,-1,-1,1,0,1
55341855556,-7,-1,-2,1,-1,-1,-3,-8
55341870737,0,0,0,-4,-3,2,1,-2
55341870737,2,1,0,2,-2,-1,-1,-2
55341871370,-1,2,-2,0,-2,-2,-1,-1
55341871370,-8,3,1,-3,-2,-1,-2,1
55341893714,-1,-1,0,-3,1,-2,0,-6
55341893714,8,4,-1,3,-1,-2,-2,0
55341894487,-1,-5,0,-1,-1,0,-1,-1
55341894487,-2,6,-2,-3,0,-1,-2,-2
55341916229,-1,6,-2,-1,-1,-2,0,-1
55341916229,-4,-7,0,-4,0,-1,-2,1
55341917148,-2,-5,0,-4,-1,-1,-1,-3
55341917148,-8,-17,-1,-1,-1,-1,-2,-3
55341938759,1,0,-1,1,0,-1,-1,1
55341938759,-4,0,-2,-1,-2,-1,0,-3
55341939553,0,0,-3,2,1,0,0,2
55341939553,-5,1,-1,0,-1,-1,1,-1
55341953897,2,-4,-2,1,-1,2,-2,-5
55341953897,-2,3,0,-2,1,-1,0,-2
55341954590,-1,-4,-1,-1,-1,-1,0,0
55341954590,-4,1,0,0,-2,-3,0,-1
55341976192,-2,-2,0,-1,-3,-2,-2,0
55341976192,-2,2,-3,-2,-1,-1,-1,-3
55341976793,-1,-2,0,0,0,1,2,-1
55341976793,-3,-1,-2,-3,1,-2,-1,1
55341990527,-22,-5,-1,-2,-2,-1,0,-6
55341990527,3,-2,-1,1,0,-2,-1,0
55341991325,-2,-6,-2,1,-2,0,-1,-1
55341991325,0,0,1,-1,-1,1,0,-1
55342013724,-4,-3,-1,-1,0,-2,0,1
55342013724,-3,-1,-3,-4,0,0,-3,-3
55342014501,-1,0,-1,-4,-1,-2,1,1
55342014501,-14,2,-1,2,-1,1,-2,-3
55342036324,11,1,-1,0,0,-2,-1,3
55342036324,-1,-4,1,-4,-3,-4,-1,-2
55342037022,1,11,2,-1,-1,-2,-1,0
55342037022,-3,-22,-7,-2,-1,0,-1,-1
55342050877,3,0,-1,-1,-4,-3,0,1
55342050877,-14,-7,-4,-1,-1,0,-2,0
55342051357,-9,-5,-4,-3,-2,-1,-1,-6
55342051357,2,10,4,0,-1,-3,-1,-1
55342073811,14,9,1,0,-1,0,1,2
55342073811,6,-12,-4,-1,-1,-2,-2,3
55342075353,-21,-9,-4,-4,-5,-4,-3,-4
55342075353,2,-4,-1,-2,0,3,0,-5
55342096368,3,7,-3,-1,0,1,-3,7
55342096368,3,7,2,1,0,-1,0,3
55342097871,4,-7,0,0,-2,-2,-1,-3
55342097871,7,10,2,-2,-4,-2,-1,-1
55342109995,-44,-8,0,0,3,0,-2,-4
55342109995,8,-10,-4,-3,-2,-1,-1,-1
55342118941,7,6,2,0,1,-3,1,6
55342118941,19,-5,-1,0,-2,1,-2,-2
55342133869,-20,-3,0,5,2,-1,-2,-10
55342133869,6,16,5,-7,-3,-1,1,3
55342135465,4,-20,-11,1,-1,0,0,3
55342135465,-8,4,10,-3,-1,-4,-2,-1
55342156216,-1,-14,-16,2,-1,-2,-2,-2
55342156216,-13,11,0,0,-1,0,0,-6
55342157824,-2,-14,0,1,2,0,-3,-4
55342157824,-26,11,-6,-3,-2,-3,-1,-1
55342169985,25,-3,0,-8,-4,-2,-2,0
55342169985,7,7,6,4,3,2,1,-1
55342178874,6,-1,0,-5,-1,-2,1,0
55342178874,13,7,-1,-1,-2,-1,0,0
55342193719,-3,13,-2,-9,-6,-1,3,2
55342193719,6,-9,-1,7,3,0,0,0
55342195301,-7,-3,-4,-9,-7,-3,-2,-2
55342195301,5,-5,4,-1,1,0,0,-1
55342216384,-12,-8,-2,9,4,1,0,-4
55342216384,15,11,2,1,-4,-3,-4,-1
55342217891,-17,-9,0,-3,-2,0,-2,-3
55342217891,-1,-4,-1,9,3,-1,0,-1
55342229981,22,2,-2,-6,-7,-4,-1,0
55342229981,-41,-23,-13,-6,-2,-2,-1,-5
55342238889,15,18,5,9,8,1,1,2
55342238889,-11,0,-2,-4,-5,-2,0,1
55342252415,3,-7,5,0,0,-1,-2,-2
55342252415,-1,-9,3,2,1,3,2,0
55342261380,13,6,-3,-3,0,-2,2,3
55342261380,-3,-4,-5,-10,-6,-4,-5,-5
55342276317,3,7,7,10,6,3,2,-1
55342276317,-2,-1,-1,0,1,0,1,0
55342277871,-21,-4,-11,-5,-4,-2,-5,-5
55342277871,12,2,0,3,1,1,-1,1
55342298870,2,4,8,0,0,2,-1,2
55342298870,4,-8,-25,-11,-6,-5,-3,-1
55342300391,-5,1,10,3,-1,-2,-5,-3
55342300391,-2,7,-2,1,1,1,-1,0
55342312577,5,-14,3,-1,-2,0,1,2
55342312577,-11,8,0,0,1,-3,-3,-4
55342321416,8,20,1,-5,-2,0,2,2
55342321416,1,-11,-8,2,1,-2,0,3
55342335571,-5,-16,-5,0,-3,0,-4,-2
55342335571,13,1,10,-1,-6,-2,-1,-2
55342342559,-17,10,-4,1,5,4,1,-1
55342342559,-5,-3,-4,-3,-1,-1,0,-1
55342358851,3,3,-4,-8,-1,-2,-2,-1
55342358851,10,6,2,1,1,1,0,1
55342360365,2,1,0,2,-3,0,1,-2
55342360365,0,4,-5,-9,-3,-2,-2,0
55342381325,-15,-18,-2,0,2,3,1,-1
55342381325,-4,1,7,9,5,4,0,-1
55342383428,8,12,3,-1,-1,-2,-2,-1
55342383428,-7,-22,-8,-2,0,-1,-2,-4
55342395620,4,12,1,-10,-5,-3,0,-1
55342395620,1,-7,10,7,6,0,-1,-1
55342402367,6,-5,-8,-4,0,0,-2,0
55342402367,2,21,7,4,2,1,-1,1
55342418708,-8,-8,-9,-11,-4,-5,-2,-2
55342418708,4,-11,-17,-6,4,-2,-1,-2
55342420344,-10,-14,2,4,-1,-2,-2,-2
55342420344,11,8,0,0,-2,-2,2,1
55342441379,14,10,2,-3,-3,-2,-5,-2
55342441379,4,0,1,0,0,2,0,2
55342442882,0,-7,-3,-3,-4,-3,0,0
55342442882,-7,-6,1,3,0,-1,-1,-1
55342463915,-2,-2,-1,-5,1,1,-1,-2
55342463915,3,25,6,3,-1,-1,0,0
55342465351,1,-25,-11,1,-6,-1,-2,1
55342465351,0,-6,0,-4,-5,-2,-1,-2
55342478710,0,5,1,-2,-1,-2,1,1
55342478710,-7,-8,-5,0,5,1,-1,-1
55342480327,0,9,13,3,1,-1,-2,-2
55342480327,-2,-17,-21,-9,-4,-1,0,-1
55342501258,-11,-6,-6,3,1,1,-1,0
55342501258,-1,2,0,-5,-18,-2,-2,-1
55342502861,10,-1,1,-4,5,-1,2,0
55342502861,-12,-10,4,-2,3,0,-2,-1
55342515555,23,18,1,8,10,-1,0,1
55342515555,-7,-4,-3,-2,-2,-1,-2,-2
55342522345,4,-3,-11,-5,-4,0,0,-1
55342522345,-9,0,6,-2,-1,-1,-1,-2
55342538837,-2,7,-11,-2,-3,-1,-1,-4
55342538837,0,-14,2,-5,-1,-4,-1,6
55342540373,-8,-7,1,4,5,-1,-1,-3
55342540373,2,17,-4,-5,-2,-3,0,0
55342561242,-2,3,19,4,-6,-2,-1,-3
55342561242,1,-6,-9,-6,-5,-1,2,1
55342562840,-6,17,4,9,6,3,-3,-3
55342562840,2,-3,1,4,0,-2,-1,-3
55342575605,11,0,-9,-12,-6,-2,-1,1
55342575605,-32,-18,4,3,-3,-2,0,-2
55342582377,11,17,-3,-7,-4,-2,-3,2
55342582377,-6,-3,4,-1,1,0,-3,3
55342598856,0,-6,-10,-2,0,-1,1,-5
55342598856,2,2,2,4,10,-2,-2,-4
55342600374,1,0,-1,-14,-7,-2,-2,1
55342600374,12,-5,-1,20,5,3,5,1
55342621315,-18,12,17,3,-4,4,-2,-13
55342621315,1,-8,-16,-14,-10,-6,-1,0
55342622864,1,6,-6,3,4,5,3,-7
55342622864,-3,-36,10,-5,0,-4,-2,4
55342634875,10,-3,-15,-2,-19,-14,-11,6
55342634875,0,5,7,6,8,2,1,-13
55342643914,-2,-6,-2,-1,-2,-4,-1,4
55342643914,-2,19,7,-11,-4,4,1,-11
55342658737,-1,-8,-2,7,5,5,3,2
55342658737,3,-16,-6,-6,-11,-8,-2,3
55342660341,-5,10,5,-5,-16,-10,-1,0
55342660341,5,20,-1,5,3,1,-1,-2
55342681224,-9,-19,-5,-4,-2,16,0,-1
55342681224,9,12,3,0,-4,-3,-1,0
55342682897,-6,-24,-7,-4,2,2,0,-2
55342682897,-2,9,10,10,12,-8,-3,-4
55342694994,-1,2,-4,-5,-3,-7,0,2
55342694994,5,-15,-3,-4,4,6,1,0
55342703822,2,1,4,1,-1,1,-4,8
55342703822,0,17,-16,-8,-9,0,-2,-9
55342719333,-2,-11,7,5,-12,3,3,8
55342719333,-6,10,2,-6,-11,-1,2,-4
55342720943,6,2,-6,-3,10,-2,-3,-8
55342720943,13,13,3,0,0,0,-5,-6
55342741331,-7,-9,-17,-14,-14,-4,0,7
55342741331,-7,-7,5,10,-1,0,-4,-5
55342742846,-10,10,-5,1,-7,-1,-1,-4
55342742846,-7,-14,-5,-9,-3,-4,0,16
55342754888,-2,-11,-10,-3,9,-3,1,0
55342754888,-4,7,19,-4,8,2,0,-15
55342769970,-1,-17,-8,10,23,2,-2,-1
55342769970,2,9,6,-6,-12,-12,-3,-7
55342778824,0,14,0,5,10,-1,1,1
55342778824,1,1,-12,-3,7,-2,-2,11
55342780337,-2,0,4,-9,1,2,3,5
55342780337,0,-10,-1,2,1,7,0,-3
55342801242,-1,6,13,9,5,-4,0,2
55342801242,4,-8,-8,-3,8,2,8,12
55342802795,-6,-4,-1,0,-23,-1,-3,-23
55342802795,2,-7,-13,1,-4,2,-1,15
55342814933,-10,7,8,1,0,-2,-4,-40
55342814933,1,0,-6,-10,-8,2,-5,16
55342823894,6,-29,-7,-4,-3,-2,8,12
55342823894,-5,15,10,7,-10,2,-1,-3
55342838742,2,-7,10,6,6,-8,5,13
55342838742,1,8,-16,-6,-14,-8,-4,-1
55342840376,-2,11,6,1,-8,1,0,4
55342840376,-11,-13,3,-1,16,2,-9,-34
55342861348,3,2,-3,9,4,3,0,12
55342861348,8,33,-7,3,-10,-1,7,27
55342862818,-18,-19,3,6,8,-3,-8,-45
55342862818,13,14,8,3,-2,1,9,56
55342875022,1,-4,-5,0,-2,-3,-7,-29
55342875022,-6,-12,13,6,2,-3,-11,-39
55342883870,12,23,-9,-8,-4,-5,1,12
55342883870,-5,-23,-12,-2,-1,2,12,29
55342898781,-19,-5,-4,-8,-18,-9,2,-3
55342898781,1,6,2,4,-12,5,-8,-15
55342900877,9,18,-11,-12,12,11,2,21
55342900877,-2,8,12,20,17,-21,-7,-39
55342921223,0,10,-22,-12,-7,10,1,26
55342921223,4,-2,11,9,24,0,6,5
55342922841,-8,-22,2,5,2,-2,-3,5
55342922841,1,-1,-23,-17,-20,-3,-7,-4
55342934887,0,-2,8,-8,-19,6,-2,-8
55342934887,-4,3,-9,-5,-11,1,7,10
55342943872,-1,27,5,6,-1,3,-4,-2
55342943872,19,-37,-22,-8,-4,-1,4,19
55342958797,-20,-62,-30,-9,11,-18,-6,-4
55342958797,18,25,16,-7,-10,4,-5,7
55342960334,-6,0,-7,7,-16,-11,-1,0
55342960334,-16,37,-4,6,-9,13,-3,-6
55342981367,14,-46,9,7,21,7,-4,-17
55342981367,-2,10,2,-14,-18,1,12,37
55342982852,6,-7,14,9,21,-4,-6,-26
55342982852,-14,0,1,48,14,0,4,12
55342994876,10,-43,-20,1,-2,7,2,32
55342994876,-13,17,-10,-18,-2,11,-2,-36
55343003893,8,-6,11,-10,3,-3,-4,11
55343003893,11,48,-2,-6,4,4,11,28
55343018712,5,22,-28,-16,-13,-3,-7,-28
55343018712,-31,-63,-17,3,-1,-7,-9,-19
55343020355,-10,-3,4,-4,-36,-1,-4,-15
55343020355,4,8,18,-28,25,-1,-2,14
55343048693,5,31,-5,-36,-55,-1,2,33
55343048693,-32,-16,-23,5,8,-15,-11,-76
55343050342,56,84,18,7,5,-9,9,35
55343050342,-76,-106,-64,-32,-37,-10,-15,-15
55343063714,12,28,10,-4,1,-6,-3,-23
55343063714,20,77,45,21,16,8,3,15
55343065312,-6,-61,35,28,-1,3,-8,-10
55343065312,31,57,-17,-42,-7,-3,4,-14
55343086348,-34,2,9,-14,12,-4,-11,-32
55343086348,12,34,22,37,-4,3,16,46
55343087969,-3,18,-4,-5,27,2,1,1
55343087969,-20,-61,-40,-20,-15,-1,-17,-14
55343101294,4,-7,30,23,20,2,5,1
55343101294,1,-12,-7,-7,17,-15,8,20
55343102852,19,66,-3,6,-19,-9,-9,-11
55343102852,-2,18,27,5,32,7,-3,5
55343114937,14,17,-22,-43,-4,-1,3,-41
55343114937,-3,-36,-30,-8,-27,-6,-12,2
55343124397,-30,-16,-74,6,14,-3,6,63
55343124397,30,-2,11,26,0,-1,-3,-42
55343140160,-8,49,22,22,-15,3,9,-20
55343140160,-13,11,-45,9,41,-2,-7,53
55343141783,16,65,27,-15,-17,6,0,-22
55343141783,-8,17,18,-19,-11,3,1,23
55343161361,26,-74,8,23,41,0,-14,-17
55343161361,36,84,54,10,-2,7,12,51
55343162885,-10,-8,-22,-10,-37,-2,-13,-33
55343162885,47,92,17,-7,44,-1,45,95
55343174960,58,127,27,45,24,-6,-43,-61
55343174960,-60,-128,-83,14,4,4,-2,34
55343183903,-54,15,-1,-13,2,-10,1,-80
55343183903,15,60,14,-17,-39,-4,-19,-39
55343198716,-37,-70,-54,-1,8,-8,-3,58
55343198716,78,38,62,50,69,13,1,26
55343200343,-61,-57,-54,-10,10,2,-4,-55
55343200343,22,-66,17,22,-18,-10,-10,13
55343221316,-45,-32,-53,-43,13,-5,0,-62
55343221316,26,-27,-85,-51,-40,-4,2,-4
55343222829,41,53,56,37,-7,9,18,33
55343222829,-58,18,61,26,12,1,1,-38
55343234994,41,93,21,-47,-60,-8,-5,49
55343234994,7,36,18,41,-12,5,-12,-62
55343244038,-27,-75,0,-4,-1,2,14,43
55343244038,36,51,43,-36,-29,-3,-10,-60
55343258736,-16,-46,-38,72,83,10,25,61
55343258736,-10,94,39,-51,-14,-8,-2,-53
55343260379,21,-40,-3,-44,8,-13,-19,1
55343260379,-14,-31,94,103,-38,19,16,41
55343281206,-18,-82,-10,-18,37,15,34,64
55343281206,32,11,37,-2,48,-4,1,31
55343282792,-27,-51,-37,-21,10,0,-8,-58
55343282792,-35,-63,-106,-73,-36,-15,-24,-46
55343294985,30,30,42,46,-78,6,4,11
55343294985,-45,-89,-10,35,-9,3,11,13
55343303872,-19,-69,-12,-52,-69,-9,6,26
55343303872,-11,22,-105,-13,54,-3,-24,-78
55343318086,-4,34,68,23,-13,4,-8,-16
55343318086,-17,35,-17,-41,12,-3,-6,-72
55343324918,38,37,-21,45,6,6,10,66
55343324918,-24,-1,41,-33,-37,-21,4,-30
55343341380,12,40,52,19,35,8,-1,2
55343341380,-53,-114,-54,-30,-54,-14,-9,-23
55343342886,6,20,-15,-16,47,3,-25,-28
55343342886,29,40,8,46,34,17,34,61
55343363848,52,95,44,-6,8,-7,-3,17
55343363848,2,27,-39,-19,-29,-11,0,3
55343365350,-16,97,68,21,-4,0,-18,-24
55343365350,8,-101,40,2,37,11,29,79
55343378142,-2,84,8,-12,-40,-7,-12,-32
55343378142,-14,-66,-4,5,30,5,-3,-11
55343384953,-27,-40,-19,10,0,0,3,-12
55343384953,17,-2,2,-4,-7,-2,0,53
55343401293,-39,-7,-35,-28,-19,-29,-10,-20
55343401293,55,30,2,2,-4,-1,1,4
55343402849,-8,-34,-16,-14,16,11,-7,-10
55343402849,-5,49,32,41,33,7,10,9
55343423783,-1,-84,-61,-40,-36,-9,-5,5
55343423783,10,-34,-39,-5,-89,-1,-1,7
55343425390,50,112,63,1,23,-6,5,24
55343425390,18,22,-56,-13,-2,1,-16,-50
55343439515,-12,-27,-36,46,20,16,16,53
55343439515,-27,-9,-3,-20,7,5,-19,-80
55343444992,20,44,-15,0,-12,2,28,59
55343444992,-41,-72,13,-20,-20,-6,-10,-61
55343461235,-24,-3,-6,-5,-11,16,-12,-41
55343461235,5,22,44,9,23,-24,-4,-10
55343462824,-1,-86,-7,12,-41,4,2,-6
55343462824,11,46,-46,-23,-5,-6,-25,-23
55343483779,-14,-9,26,11,5,3,17,36
55343483779,15,40,31,-1,-12,15,9,17
55343485504,-40,-74,-44,-22,-12,-5,-14,-26
55343485504,-1,-19,28,54,-9,0,5,10
55343498085,-43,-81,-62,6,41,-4,-11,-25
55343498085,-33,16,11,-1,-5,0,-8,2
55343504892,8,28,18,9,27,4,12,50
55343504892,77,59,24,10,13,0,6,-3
55343521217,-44,32,-3,-16,-21,-4,-2,-24
55343521217,12,80,2,2,43,-2,-4,24
55343522824,-25,-10,13,-22,-4,0,7,-15
55343522824,14,-50,9,7,-25,-7,-17,-20
55343543711,46,79,37,-4,-49,0,21,52
55343543711,-18,-78,-6,-48,-12,-10,-19,-38
55343545304,27,-34,-2,15,-12,-3,3,40
55343545304,-15,4,-52,-4,0,3,-1,-5
55343558130,-44,10,-30,25,5,-9,1,8
55343558130,6,41,57,15,-17,-3,-4,-27
55343565010,41,38,20,-4,-14,1,-2,17
55343565010,-49,-64,-8,-5,48,-4,-12,-31
55343581380,7,-4,27,-31,-73,16,21,16
55343581380,7,36,-21,6,44,-25,-3,16
55343582852,-16,42,34,56,24,-1,-3,-4
55343582852,-24,11,-55,-31,-37,-7,10,-3
55343604167,-2,20,41,1,19,-12,-38,-77
55343604167,23,15,24,-6,16,18,49,53
55343605804,-17,-79,-10,-10,-13,-2,-18,-68
55343605804,-14,28,-5,-13,40,12,-1,22
55343618033,28,39,14,22,32,-7,-1,10
55343618033,-17,-72,-14,-16,-10,5,-13,-59
55343625022,5,-2,-56,-11,24,-4,11,105
55343625022,-18,23,22,-6,-17,7,12,21
55343640353,31,40,-1,-28,30,-6,-26,-64
55343640353,-15,-45,-38,-5,2,-17,-2,26
55343648878,14,91,40,5,-22,7,6,-34
55343648878,-1,-25,16,31,-28,8,-8,-12
55343663876,22,49,26,6,42,-6,0,-28
55343663876,-20,24,-25,-24,-52,-5,-12,3
55343665377,65,11,39,7,5,8,11,56
55343665377,-27,12,0,-2,-33,-8,7,-20
55343678038,-16,-36,-20,-5,-26,-8,3,20
55343678038,30,8,-2,17,-10,8,-9,-40
55343684861,6,55,-21,-23,5,-3,5,49
55343684861,3,-37,-23,-7,-14,4,12,51
55343701236,22,-79,-11,7,4,4,5,27
55343701236,7,81,18,8,19,6,-6,-3
55343702819,-44,-23,-16,-11,-13,-13,-14,-61
55343702819,14,8,13,31,1,1,-4,21
55343723875,8,15,-7,12,36,8,-2,0
55343723875,-38,-54,-22,1,-12,4,11,18
55343725320,52,48,65,48,49,3,-5,-20
55343725320,6,40,12,1,38,-1,2,38
55343738188,-36,-128,-72,-32,-40,-6,-26,-67
55343738188,6,86,53,18,-35,13,13,61
55343744954,0,-21,-25,6,-9,7,12,-7
55343744954,-22,-24,-43,-39,-31,-16,-16,-41
55343761241,21,67,49,29,85,15,18,30
55343761241,26,26,-11,-2,24,1,4,50
55343762918,31,-66,-45,-25,-12,-9,-12,-51
55343762918,10,56,25,-3,1,7,-12,-14
55343782917,-15,-24,-7,-29,-20,4,9,10
55343782917,8,-18,-14,-11,-15,4,7,13
55343791365,-57,-6,17,16,25,3,-4,-1
55343791365,1,28,0,6,-29,-4,-3,-7
55343798172,-31,18,6,-5,-13,-12,-1,-14
55343798172,19,-40,14,14,12,-6,-3,-20
55343804866,-1,5,-5,-12,14,-11,-11,-31
55343804866,8,-27,-13,8,15,-7,7,47
55343821365,10,-10,-9,12,-8,0,0,-26
55343821365,-29,-15,17,-6,39,2,6,28
55343822820,-16,-14,-45,-3,-20,-4,-4,-50
55343822820,2,-64,10,3,-4,-5,-8,-20
55343844012,28,59,17,-8,-14,10,7,43
55343844012,-33,-30,2,12,1,-3,-5,-33
55343845349,-3,12,26,-2,-11,-3,-7,0
55343845349,18,-22,-10,-29,-65,4,13,16
55343857468,-15,-25,-2,-13,3,-11,-12,-10
55343857468,18,79,7,20,-4,8,-3,-20
55343866368,4,-19,-3,-8,-19,-2,7,51
55343866368,-7,55,-26,-10,-6,1,-9,-31
55343881845,6,20,-3,-18,31,4,2,4
55343881845,-1,-17,-21,-7,-1,-1,-1,-10
55343883321,-7,-21,-14,5,4,0,4,11
55343883321,5,-5,-2,31,50,7,-2,8
55343903894,-6,18,8,-3,-21,-7,7,-26
55343903894,26,63,4,-30,-43,-15,-11,24
55343905358,-49,-42,-62,-8,-16,3,-12,-62
55343905358,33,89,36,13,15,3,0,-2
55343917370,-21,-15,-1,-6,-55,-5,3,27
55343917370,-54,-100,-19,-13,22,-6,-10,-36
55343926396,4,9,-5,-13,-9,5,4,43
55343926396,-5,-2,55,28,66,-4,2,-10
55343941213,14,24,-3,12,-12,1,-5,5
55343941213,-10,0,5,-13,-1,5,7,20
55343942828,6,32,35,-7,-19,-6,1,-2
55343942828,-8,-27,-56,-14,-32,-1,5,-5
55343963815,42,83,54,20,-8,10,8,36
55343963815,-41,-110,-33,-15,44,11,-9,-25
55343965275,-27,36,38,11,6,-5,-4,-12
55343965275,4,-1,-13,-29,6,-7,-6,4
55343977359,26,25,14,18,-1,-6,2,17
55343977359,12,68,-3,4,-24,3,-2,-5
55343986358,-32,-78,-38,-13,-9,-2,-14,-38
55343986358,-14,34,62,30,-7,-6,8,24
55344001268,25,10,-26,-5,4,3,0,-8
55344001268,-5,-1,-7,4,-6,-6,-4,11
55344002855,9,3,17,-1,21,-2,6,5
55344002855,2,-8,-12,-16,-39,-5,3,13
55344023731,4,-29,-7,-5,47,-9,-20,-66
55344023731,-24,-11,-2,25,6,-4,-4,-18
55344025324,7,24,-3,-3,-28,1,-2,15
55344025324,6,9,-3,-10,7,-1,-1,-13
55344037349,-27,-41,-13,-6,29,-8,-16,-73
55344037349,13,-61,-10,6,-21,2,9,11
55344046335,61,117,45,9,32,-4,7,10
55344046335,-60,-108,-69,-20,-13,3,-8,-14
55344061179,4,74,11,-2,-18,-12,9,59
55344061179,-9,27,0,-3,-13,-21,-7,-36
55344062815,-6,-3,-4,11,60,-7,-5,19
55344062815,14,-42,14,5,-5,6,16,1
55344083761,-3,-116,-43,-16,-9,6,-7,-40
55344083761,25,78,35,1,-9,-31,6,2
55344085344,-21,-54,-9,-2,0,3,0,-2
55344085344,-1,-9,-17,-4,5,2,-15,-39
55344097419,-9,45,18,2,23,3,10,37
55344097419,16,-4,1,-5,-46,-6,0,5
55344112342,2,10,2,0,-10,2,-1,-5
55344112342,-3,19,1,-3,13,-13,-11,-13
55344121389,-2,1,1,9,-27,21,12,42
55344121389,56,21,30,18,15,17,-1,-12
55344123116,-26,-4,-15,-9,-25,-6,-1,-2
55344123116,-15,46,7,7,29,4,-4,-7
55344143858,-12,-55,-26,-8,-20,-6,3,28
55344143858,-18,26,13,-10,41,5,-2,-7
55344145356,-9,-44,-7,1,-17,1,-1,-11
55344145356,6,42,8,-2,-6,1,-1,6
55344157949,6,-8,-3,-3,17,-9,0,7
55344157949,-28,19,-6,-6,-2,-6,-7,1
55344166369,15,22,8,-1,-25,5,1,-3
55344166369,-23,-74,-26,-12,-5,-1,0,1
55344181424,1,15,1,-3,23,-41,-5,-2
55344181424,-23,-15,-9,-4,-11,9,-6,3
55344182859,9,11,7,0,6,4,-4,-10
55344182859,35,55,9,1,-22,-15,3,21
55344203739,-45,-48,-7,0,-14,7,-1,-9
55344203739,-10,-18,-13,2,28,7,-2,-4
55344205396,5,27,2,-3,3,-2,1,0
55344205396,26,-2,3,-1,0,-1,-4,-2
55344217373,-40,-14,10,-4,-5,17,0,-4
55344217373,29,46,6,10,-1,6,6,14
55344226318,0,-30,-11,-1,21,-1,-2,-1
55344226318,-8,-25,-6,-3,19,9,-3,-3
55344241298,10,51,16,-3,20,-16,-3,6
55344241298,10,17,-2,4,-12,1,1,6
55344242803,-9,-11,-4,-5,-17,-3,-1,-2
55344242803,-5,5,10,10,20,-3,-1,-1
55344263745,11,12,5,-1,-17,6,1,0
55344263745,-15,-13,-16,0,-6,4,1,-1
55344265320,13,13,-3,3,22,3,2,1
55344265320,5,-1,13,-12,-39,9,-4,0
55344286295,-19,-40,-21,-5,-6,-6,-3,0
55344286295,18,17,24,9,-4,-8,1,5
55344287842,20,-28,-24,-7,-10,-6,-3,10
55344287842,-40,-25,0,-4,-13,-13,5,-9
55344301287,13,-5,-7,0,-10,-3,-6,-1
55344301287,15,-2,7,-3,-1,6,-2,-1
55344302865,2,22,1,0,11,3,0,2
55344302865,14,40,13,5,13,5,-2,3
55344323866,-2,-23,-19,-5,-2,-5,-1,1
55344323866,-3,-16,3,0,-1,6,2,0
55344325334,-12,-12,-1,3,6,9,2,-3
55344325334,8,23,5,6,19,0,-1,3
55344346333,-22,-46,-6,-9,-5,8,-1,-3
55344346333,10,19,-10,-1,22,-12,-5,-5
55344347889,-20,-28,-6,-2,-11,-7,-1,2
55344347889,-1,4,-1,-1,14,1,-2,-1
55344360738,6,13,2,4,26,-5,0,2
55344360738,4,5,5,0,-18,1,0,1
55344367380,-2,12,6,-3,-1,5,1,0
55344367380,-14,-9,-2,1,6,1,-1,-4
55344383712,-3,4,3,6,-8,4,-2,-6
55344383712,-11,-20,-4,2,-8,-2,0,1
55344385314,6,48,19,5,-9,6,7,3
55344385314,22,16,1,1,-11,0,-4,0
55344407690,-16,-12,-8,-6,-7,7,1,1
55344407690,-10,-5,3,-3,-13,-3,-2,-1
55344409310,13,38,8,-1,-8,-3,0,1
55344409310,-21,-58,-11,-7,-12,0,-2,-3
55344420544,22,59,23,2,16,-10,2,11
55344420544,3,-12,-11,-5,-11,-3,-3,-5
55344427359,-2,-12,-8,-5,-14,-5,-3,0
55344427359,-4,-9,-11,-5,6,-4,-4,-1
55344443697,3,20,3,0,-14,2,0,3
55344443697,-15,-32,-13,-8,-9,0,-3,-4
55344445336,9,43,15,3,-13,-3,0,-1
55344445336,-23,7,-11,0,25,4,0,-6
55344466287,17,-9,5,6,14,5,0,-1
55344466287,-3,8,2,3,15,-4,-1,-3
55344467825,-5,-22,-4,-5,2,-2,-1,-4
55344467825,3,2,-9,0,-1,-1,0,-2
55344480646,-19,-16,13,3,-14,-5,-3,-6
55344480646,3,1,-12,-6,5,-3,0,5
55344487489,-8,-9,-3,-1,10,-2,-2,-4
55344487489,5,-13,-2,0,0,4,0,3
55344503879,-8,-10,-9,-4,-7,1,1,0
55344503879,26,7,5,-2,-16,6,1,3
55344505297,-13,-28,-4,-4,-7,-7,-3,-5
55344505297,7,27,-3,-2,-14,0,-1,0
55344525582,-3,-11,-3,-1,-4,9,0,-2
55344525582,-15,-10,2,-2,1,0,-1,-3
55344526305,-10,1,-14,-6,-12,-1,1,-1
55344526305,9,18,15,-2,4,-2,-3,-3
55344539961,5,-7,-7,-3,-15,-1,2,4
55344539961,38,37,9,4,8,-4,1,8
55344548046,-9,-41,-11,0,6,2,0,-1
55344548046,2,-2,1,-1,-9,-10,-2,-2
55344563089,-1,-11,-13,-3,-6,-5,-1,-3
55344563089,-12,18,14,5,11,9,1,-2
55344563842,-1,-7,-4,-6,-24,-3,-4,-1
55344563842,-1,1,6,4,-3,0,-1,-2
55344585686,9,15,6,2,5,-15,-2,1
55344585686,-9,-33,-13,-4,-9,-3,-1,-5
55344586321,2,17,6,-4,4,-2,1,-1
55344586321,4,-32,-7,-1,-10,-11,0,4
55344599892,-13,-23,-16,-10,-6,6,-4,-4
55344599892,-6,4,-5,-1,-6,-2,-3,-4
55344608154,18,-1,0,3,17,-7,0,1
55344608154,-7,2,1,-2,7,1,-2,0
55344623114,-16,-13,-7,-2,-7,4,0,-7
55344623114,8,9,2,-1,9,0,-1,-1
55344623776,-17,2,-4,4,5,0,-4,-2
55344623776,4,-13,-7,-7,-6,-4,-1,-1
55344645550,0,-14,1,3,20,8,-2,-5
55344645550,-14,-20,-8,-7,-6,-7,-3,-3
55344646314,-6,-28,-1,-1,0,-14,-1,-1
55344646314,-1,3,-1,0,-8,-1,-2,-2
55344660005,18,23,8,3,-7,7,-1,2
55344660005,-14,-34,-9,2,-9,-3,-2,-1
55344668085,-8,-2,1,-4,-1,3,-1,-3
55344668085,2,17,-2,-3,-6,-2,1,-1
55344683088,18,5,2,3,12,-4,-2,3
55344683088,0,0,2,2,1,-1,0,0
55344683814,9,14,2,-4,-1,-6,-3,-3
55344683814,-2,-14,-4,6,8,9,0,-4
55344705644,-1,9,3,-1,-12,-4,0,-4
55344705644,8,34,4,2,-6,-1,1,-1
55344706345,-21,-43,-3,1,-3,3,0,-2
55344706345,25,-12,-6,-6,-5,-3,-2,7
55344719875,10,-5,-2,-2,5,-2,1,-1
55344719875,0,-2,-4,-2,2,3,-1,1
55344728059,7,20,10,1,4,4,1,0
55344728059,-7,0,2,1,4,5,1,-1
55344743062,-11,5,0,0,-3,-1,-1,-1
55344743062,12,-1,0,1,9,-1,-1,2
55344743763,-6,29,2,2,4,11,-4,-1
55344743763,-8,-14,-2,-1,7,-3,-2,-2
55344765552,-5,27,2,0,-23,1,0,0
55344765552,-1,6,5,1,29,0,-1,-1
55344766307,-6,-39,-17,-7,-5,0,-2,-3
55344766307,1,22,2,-1,-5,-1,-2,-1
55344779973,-9,-12,0,-3,-2,3,0,-4
55344779973,1,17,2,-3,-17,-2,-2,0
55344788188,8,10,0,1,-5,-1,-1,2
55344788188,-9,-14,-3,1,11,-5,-2,-3
55344803028,0,-13,1,-1,2,-3,-2,1
55344803028,-2,-11,-4,3,-3,4,0,-2
55344803793,-21,12,-7,-4,-9,-4,1,-6
55344803793,-4,4,2,-1,-8,-1,0,-6
55344825620,-1,-1,1,0,-8,-2,0,1
55344825620,1,-18,-5,-3,5,0,1,1
55344826316,1,2,-2,0,-2,-5,-2,1
55344826316,-9,5,1,-4,9,0,-2,0
55344839969,26,1,-5,-5,-1,0,1,7
55344839969,-27,-3,2,1,0,-3,-3,-5
55344848086,31,19,0,1,0,-3,-2,3
55344848086,4,-37,-7,-3,-15,-1,-1,-2
55344862978,-14,-16,-3,-1,6,-1,-1,-2
55344862978,-28,7,4,0,4,-3,-3,-12
55344863759,3,2,3,1,3,5,0,2
55344863759,-2,14,3,1,-3,0,-2,2
55344885473,3,8,5,8,-1,-1,-2,-1
55344885473,0,6,-1,-2,8,-1,1,0
55344886271,-10,-22,-7,-3,1,-2,-2,-2
55344886271,-4,12,4,4,4,-1,-1,-2
55344899930,-10,-3,-2,0,-2,0,-3,-5
55344899930,9,-4,0,-3,-7,1,-2,2
55344908168,7,1,5,2,-7,-3,0,1
55344908168,2,3,-10,-1,-5,-2,0,0
55344923028,-5,15,4,-5,-1,-2,-1,1
55344923028,4,-42,-10,-6,-20,-5,-2,-2
55344923792,-1,26,3,2,12,-2,0,-1
55344923792,-13,-33,2,0,16,2,-2,-3
55344945544,8,13,-3,-4,1,-3,0,0
55344945544,-4,-17,-12,-4,7,1,-1,3
55344946386,12,19,5,-2,-4,-1,2,2
55344946386,-3,-6,0,-1,-9,0,-1,-1
55344959840,-4,-9,-3,-3,17,-1,-1,-7
55344959840,-4,1,-1,1,-2,-2,-1,-1
55344968271,-12,-11,-1,1,-3,2,-2,-8
55344968271,6,17,0,1,9,-2,0,2
55344991318,2,-8,-8,-5,-20,-2,-2,1
55344991318,9,3,6,2,2,1,0,2
55344991964,-8,-18,-2,-2,-3,-3,-3,-2
55344991964,8,40,2,2,0,-2,0,-1
55345005591,-8,-50,-11,-5,-13,-2,-2,-5
55345005591,2,14,4,1,-4,2,-1,2
55345006280,-4,-8,-2,0,-6,-1,-2,2
55345006280,0,-5,-5,-5,-8,-4,-1,3
55345019879,-8,4,-3,-4,-4,-1,0,1
55345019879,9,21,6,-3,-5,-1,0,2
55345028124,16,-11,-10,-3,-3,-1,-2,-4
55345028124,-27,-14,2,-1,0,-1,-3,-10
55345043068,9,13,-4,2,-5,2,3,2
55345043068,11,-9,-2,-3,7,-1,-3,-2
55345043775,-11,-7,7,3,4,0,-2,-1
55345043775,9,-10,-11,-6,-5,0,0,0
55345073903,-4,-3,2,2,3,0,-2,0
55345073903,-11,-17,-8,-1,-7,-3,-2,-3
55345074552,10,7,5,0,1,-2,-2,1
55345074552,11,14,-1,-6,-10,-2,0,-1
55345079873,-13,7,2,4,14,-1,-3,-6
55345079873,10,1,-1,-2,8,-2,0,0
55345088164,-11,3,4,7,9,0,-2,-1
55345088164,-2,3,3,-1,-7,0,-1,-4
55345103077,-2,-27,-8,-7,-19,-2,-1,-1
55345103077,-23,16,5,3,-4,-2,0,-8
55345103785,6,-26,-19,-9,6,0,1,2
55345103785,1,9,10,1,2,-1,0,4
55345125730,-11,-16,-4,2,-4,0,-1,-4
55345125730,0,4,5,3,-1,4,-1,0
55345126350,10,32,-5,-4,-9,-2,0,-1
55345126350,22,-22,-4,0,-6,-1,-1,5
55345139956,-18,23,5,-3,22,-1,-1,-4
55345139956,6,-22,3,1,-12,-1,-2,3
55345148139,-18,2,3,0,17,-3,0,-4
55345148139,2,-4,-2,-5,-7,1,-1,-2
55345163064,15,15,-1,1,2,-1,-3,2
55345163064,-2,-9,-8,-6,-6,-1,-2,2
55345163833,-3,-4,4,2,-15,0,-1,0
55345163833,-3,22,-3,-2,11,0,0,-2
55345185662,1,-10,5,4,3,0,3,3
55345185662,-4,22,-7,-6,-15,-3,-2,-3
55345186340,-2,-6,-2,-1,-1,-2,0,-2
55345186340,9,0,-3,-1,-1,1,-1,3
55345208934,14,17,5,1,-2,-1,0,0
55345208934,11,-1,-4,-5,-12,-1,-1,4
55345209456,-17,-10,-2,-3,3,-2,-2,-8
55345209456,4,6,0,1,1,-1,-2,0
55345223120,3,7,3,-1,-5,-2,1,4
55345223120,16,-19,4,1,0,0,-1,2
55345223790,9,7,1,-4,-16,-1,-1,4
55345223790,-1,-4,3,4,4,-1,1,2
55345245486,-8,-18,-8,-3,-8,-3,-1,2
55345245486,-6,22,4,2,7,-2,-1,1
55345246240,13,-3,1,0,-1,0,-1,2
55345246240,-4,2,3,0,-3,1,-1,-1
55345269328,-4,5,-4,1,8,1,1,-1
55345269328,4,-8,0,0,8,-1,1,-1
55345269945,-9,18,3,-4,-3,-2,-1,0
55345269945,8,-14,-5,1,-8,-3,-3,-1
55345283166,4,3,2,2,2,0,-2,-3
55345283166,-18,-31,-1,-1,4,2,0,-2
55345283840,-6,-4,0,1,0,0,-1,-4
55345283840,-15,-11,-6,-5,-2,-4,-1,1
55345305780,-2,-3,8,3,1,0,0,3
55345305780,2,14,0,0,2,-2,-2,-1
55345306337,5,-4,-5,-2,-11,1,-1,1
55345306337,-7,1,2,-3,-10,1,0,-3
55345329036,-3,-2,-2,-2,2,1,-1,-1
55345329036,-3,3,-4,-1,-2,-1,-1,-3
55345329484,3,-13,-5,-1,7,0,0,3
55345329484,-9,16,5,-1,0,2,0,-5
55345342976,-3,-23,-7,-7,-4,1,-1,-3
55345342976,7,3,-1,0,1,2,1,-1
55345343763,-6,8,3,1,-3,-1,0,-2
55345343763,-8,-18,-6,-4,-1,-2,-2,-3
55345365484,-1,7,-2,1,-2,-3,-4,-2
55345365484,-7,3,1,2,7,-1,0,0
55345366359,17,18,2,-2,-2,0,0,3
55345366359,-18,-5,-7,-4,2,-3,-3,-4
55345388712,6,2,-1,-2,0,2,-1,1
55345388712,1,-6,0,1,-1,-1,-2,2
55345389454,-3,1,-2,-4,-2,-1,-1,-4
55345389454,-2,-2,0,0,2,-1,-1,-2
55345402993,6,2,2,-2,-3,-3,2,2
55345402993,-7,-2,-1,0,-2,-2,-1,6
55345403752,3,1,0,-2,0,-2,-2,-1
55345403752,-6,-8,-1,2,3,0,1,-1
55345425502,-2,-2,-2,-2,-2,-2,-4,-5
55345425502,-2,-6,-1,-3,0,0,1,-1
55345426285,-9,0,-7,-3,-8,-1,-2,-1
55345426285,1,7,3,0,1,-2,-1,-2
55345448699,-2,2,-2,-4,-4,-2,-2,-2
55345448699,0,-2,0,0,0,0,-4,-8
55345449561,-5,-7,1,2,1,0,1,1
55345449561,2,0,-1,-2,-1,-2,-1,0
55345462980,-2,1,0,2,-2,-3,2,1
55345462980,4,8,1,0,1,-2,0,0
55345463776,-2,-9,-1,-3,1,0,-1,0
55345463776,1,1,-3,0,-1,-1,-1,-2
55345485636,6,-15,-2,-1,2,-1,-1,0
55345485636,-3,-3,-2,-3,-2,-1,-1,-3
55345486297,-3,-5,-4,-3,1,-2,0,0
55345486297,-14,-2,0,3,0,0,-4,-6
55345508835,2,10,2,-3,0,0,-2,-3
55345508835,-2,-2,-2,-1,-3,0,-1,-5
55345509494,-2,-8,-3,1,-1,-3,-2,-1
55345509494,4,2,-2,0,0,0,2,1
55345522996,0,0,-2,-3,-3,-3,0,3
55345522996,-1,0,-2,0,4,-3,-1,-3
55345523794,-4,2,-2,1,1,-2,0,-3
55345523794,6,-1,-1,-4,0,-1,-2,2
55345545909,-3,-1,-4,-2,-4,-1,-3,1
55345545909,-3,-1,-1,-1,-2,-3,-1,2
55345546733,10,13,3,0,-1,-1,-1,1
55345546733,-2,-22,-3,-2,0,-1,1,0
55345568936,-5,-2,0,0,-2,-2,-2,4
55345568936,3,2,-1,0,0,-1,-2,1
55345569458,-3,-7,-3,-1,-1,0,0,3
55345569458,4,8,-1,0,-2,-1,0,0
55345583140,10,2,-1,2,-2,-1,1,4
55345583140,-3,-1,-1,-3,-2,1,-1,-7
55345583819,-7,-9,-3,-1,1,-2,-2,-1
55345583819,17,1,-2,0,0,0,1,1
55345606341,-4,0,1,-1,0,1,-1,-5
55345606341,-4,0,-1,-2,-1,-1,0,0
55345607012,2,-4,-3,1,-2,2,-1,-5
55345607012,5,3,2,0,-2,-2,-1,1
55345628768,-5,0,-1,-1,-2,-2,-2,-4
55345628768,2,-4,-5,-2,-2,-1,0,2
55345629493,-4,-3,-4,-1,-1,0,-2,-3
55345629493,-4,-1,-1,-2,-3,-3,-1,-1
55345643146,0,3,-3,-2,0,1,0,-3
55345643146,-1,-1,-1,0,1,0,0,2
55345643811,-1,-3,1,-1,-1,-2,-3,-2
55345643811,-4,1,0,-1,-2,-1,-1,-4
55345666229,-8,1,-1,2,1,-1,0,-4
55345666229,-11,-2,-2,0,-1,-1,-2,-4
55345666924,2,9,2,-2,0,-1,0,0
55345666924,-1,-9,-4,-1,-2,-1,-1,-5
55345688846,-5,-5,-2,-1,-1,-1,0,3
55345688846,5,0,2,-1,-1,0,-2,1
55345689488,-3,-7,-4,-2,-1,-2,0,0
55345689488,-5,5,0,-1,2,1,-1,0
55345702975,-1,-3,-1,-3,0,-2,-1,4
55345702975,12,-3,2,0,0,-1,1,2
55345703769,-2,1,1,0,-1,-2,1,6
55345703769,-1,0,2,-1,-2,-1,0,-1
55345726190,-4,-4,1,-1,-1,-2,-2,-4
55345726190,-3,3,0,0,-1,-2,0,-1
55345727028,-3,-7,-2,-2,-1,-1,-1,-1
55345727028,-4,-1,-3,-3,-1,-1,-2,0
55345748845,-1,5,4,0,-2,0,-1,-3
55345748845,0,-3,-3,0,-1,0,-2,-2
55345749526,-10,9,1,-2,-1,-1,-3,-7
55345749526,-8,-35,-7,-4,-1,-3,-3,1
55345763086,6,6,-2,-1,0,-3,-1,-3
55345763086,-2,-11,-2,0,-2,-1,0,-6
55345763788,2,0,0,-3,-3,0,0,-1
55345763788,1,13,3,0,-1,-1,0,2
55345786225,-2,0,-2,-1,0,0,-1,-3
55345786225,-3,0,-3,-3,-1,-1,1,0
55345786984,-8,-3,0,1,-1,0,0,5
55345786984,2,7,-2,3,1,-2,-3,-3
55345808873,0,-7,-3,-4,-2,2,-2,0
55345808873,-1,5,0,0,0,0,-2,-3
55345809471,1,-9,-1,-1,-1,-3,-2,-2
55345809471,1,5,1,-1,0,1,1,0
55345822451,-1,-2,-1,-1,-2,0,1,-2
55345822451,-10,5,-1,-1,-1,-2,-4,-2
55345830711,14,-3,-3,-1,-3,-1,0,4
55345830711,0,5,3,0,0,-2,-1,-2
55345846335,-3,-11,-7,-1,0,-1,-2,-3
55345846335,3,-2,0,1,0,0,-1,-4
55345846955,4,2,0,-2,-2,1,0,3
55345846955,4,5,1,-2,-2,-1,-1,-3
55345868856,1,8,1,1,-1,0,-1,4
55345868856,-3,-1,-2,0,0,0,0,-2
55345869444,5,10,1,-2,1,-1,0,0
55345869444,-7,-23,-4,-2,-1,-1,1,3
55345882329,-1,1,1,-1,-1,0,-1,-1
55345882329,6,-5,-1,-4,-2,-1,-1,7
55345890485,8,4,-1,-1,-1,0,-2,-3
55345890485,19,7,0,1,1,1,0,9
55345906196,-2,-6,-1,-4,-2,0,-1,-3
55345906196,-6,-1,-2,-2,-1,-2,-1,0
55345906979,-1,-4,-3,1,0,1,2,-1
55345906979,-7,3,-1,-1,-3,-1,-2,-4
55345928846,-1,-6,-2,0,1,-2,-3,-1
55345928846,-2,13,2,0,-1,-3,-1,-2
55345929473,-10,-20,-6,-2,0,-3,-4,-3
55345929473,-2,1,0,-3,0,0,-1,-8
55345942407,-1,3,-1,1,-2,-1,1,-1
55345942407,-1,-5,-2,-3,-3,0,0,1
55345950522,2,2,2,-3,-2,-2,1,0
55345950522,-11,-4,-2,0,-2,2,-1,-1
55345966167,0,4,-2,0,1,-1,-1,0
55345966167,1,4,-1,0,-2,-1,-1,-3
55345966926,-8,-12,-1,-3,-2,0,-1,-1
55345966926,-7,3,-2,-1,-1,0,-3,1
55345988852,8,-1,0,0,-1,-1,-3,0
55345988852,-4,-5,-2,-4,0,-1,-1,-2
55345989500,10,2,1,2,2,1,0,2
55345989500,0,-4,-4,-2,-3,0,2,2
55346002322,-7,3,0,-3,-2,-2,-1,-4
55346002322,-1,-15,-2,0,-1,1,1,0
55346010668,1,13,1,0,-1,-2,0,-5
55346010668,-6,-18,-3,-2,1,-2,0,-6
55346026324,1,1,-1,-1,-1,0,-1,0
55346026324,1,1,-1,1,-1,0,-2,-1
55346026970,-5,0,0,-1,0,-2,1,-3
55346026970,-4,7,4,-1,-1,-1,-1,-5
55346048714,6,7,-4,1,0,1,-1,2
55346048714,-10,-5,-5,-1,-4,-3,-2,2
55346049475,2,4,0,0,-1,-1,-4,-2
55346049475,1,6,0,-1,-1,-1,0,1
55346062413,-3,-6,0,-2,-1,-3,0,-2
55346062413,1,4,-1,-3,-1,-1,-1,-6
55346070576,-1,-5,-2,-2,0,-1,-3,-1
55346070576,-14,3,0,0,-2,-1,0,-6
55346086211,-1,-3,1,-1,-1,-1,-1,-5
55346086211,-3,16,3,1,1,0,-1,-5
55346087815,-7,-30,-4,-1,-2,-2,-1,-2
55346087815,1,-6,-5,1,-2,-2,-1,1
55346108775,-6,-4,2,-2,-1,0,-1,-5
55346108775,1,7,0,-3,-2,-1,-1,1
55346110292,-1,3,0,0,-1,-1,-2,-2
55346110292,4,1,-1,-2,-1,-1,0,1
55346122463,-3,-2,-2,-1,-1,-1,0,2
55346122463,3,-5,-2,2,-2,0,1,0
55346131365,10,6,1,-1,0,0,-1,5
55346131365,-2,4,1,-2,0,-3,-1,-1
55346146287,-3,-6,-1,0,-1,1,2,-3
55346146287,-3,-7,0,-1,0,-3,0,-1
55346147934,-5,-1,-4,-4,-2,-2,-1,-2
55346147934,-1,8,0,0,0,-2,1,0
55346168810,-11,-5,-1,-1,-2,-3,-1,5
55346168810,5,1,-2,-2,-1,0,1,0
55346170277,-5,0,-1,0,2,0,-2,-6
55346170277,8,6,0,-1,0,-2,0,2
55346191436,-3,-10,-2,-1,-3,-4,-1,1
55346191436,1,-10,-2,-1,1,-1,0,3
55346192834,-5,4,0,0,-3,-1,-2,-1
55346192834,5,4,1,0,-1,-1,-3,-1
55346206316,-2,0,-2,0,1,-2,-1,-5
55346206316,-6,4,-2,0,-1,-1,-4,-2
55346207800,0,1,2,1,-1,-1,1,0
55346207800,-3,-6,-4,-4,-3,2,0,0
55346228801,13,5,2,-1,-3,0,0,-2
55346228801,1,-1,-2,-1,-1,-2,0,-1
55346230276,-3,-5,-2,-2,-1,-1,-1,0
55346230276,19,0,0,0,-1,0,1,13
55346251254,6,4,-3,0,-1,0,-1,1
55346251254,0,-4,2,-4,-2,-1,0,-1
55346252845,-2,4,0,-2,-3,-2,-2,-4
55346252845,-4,2,0,0,0,-1,-3,-5
55346266328,-1,-5,-2,-1,-1,-2,0,-2
55346266328,1,-5,-1,-3,0,-1,-2,-3
55346267810,0,0,-3,-1,-2,-3,-1,0
55346267810,-17,-5,-3,-1,-2,-1,-3,-10
55346288680,-1,-2,0,-4,-3,-1,-1,3
55346288680,-1,20,0,-2,-2,-2,-1,-3
55346290278,-8,-30,0,1,2,-1,0,-1
55346290278,-1,-12,0,0,-2,-1,-1,-2
55346311291,-2,0,-4,-4,-1,-1,0,0
55346311291,-4,-3,-5,-1,0,1,-1,1
55346312800,-3,9,-6,-3,-2,-2,-1,-2
55346312800,26,8,-2,-4,-2,-2,0,5
55346325680,-2,5,2,3,-2,0,-2,4
55346325680,1,-14,-3,2,-2,0,1,4
55346332434,0,3,1,-2,-1,1,0,-1
55346332434,-7,-7,-1,-1,-2,-2,1,-5
55346348846,-3,7,0,1,1,-2,0,-1
55346348846,-10,-3,0,0,2,-3,-1,-5
55346350314,6,9,-1,-3,-3,0,-3,0
55346350314,-3,-13,1,1,-2,0,2,-1
55346378744,-1,-2,-2,-2,-1,2,-1,-1
55346378744,-4,-6,0,-2,-2,-1,-2,0
55346380436,-1,6,-1,-3,-1,-2,-3,-5
55346380436,3,-5,0,2,0,-3,-2,3
55346385570,-21,-19,-9,-2,-2,-2,0,-6
55346385570,4,-2,1,-3,-1,-3,-1,-3
55346392310,-3,6,-2,1,0,1,0,-1
55346392310,-5,2,-1,-1,0,0,-2,0
55346408716,1,2,4,-1,0,1,-2,-5
55346408716,-2,1,1,1,-1,1,2,1
55346410420,7,-5,-3,-2,-1,0,2,1
55346410420,-10,-6,-1,-1,-1,-2,-1,-5
55346431122,5,-2,-2,-3,-2,0,-1,1
55346431122,-6,-1,-3,1,-1,-1,-2,-4
55346432719,2,-2,-1,-1,0,0,0,0
55346432719,-3,0,-1,0,0,1,0,0
55346445507,4,1,1,0,0,-2,-1,0
55346445507,2,9,1,0,-3,-1,0,2
55346452338,-5,-19,-1,-1,-1,0,-1,0
55346452338,4,0,-7,-1,1,-1,-1,0
55346468716,-8,4,-1,-1,-1,-2,-3,-2
55346468716,7,-6,-2,-4,-1,-1,-4,-4
55346470288,0,1,2,2,-2,-1,-2,0
55346470288,-4,10,2,0,1,2,0,-6
55346491206,7,0,1,0,0,-1,0,-3
55346491206,0,-3,2,0,-4,-1,1,2
55346492810,-7,0,-7,-2,-1,-3,-1,1
55346492810,-5,-5,-2,-1,-1,-3,-2,0
55346505533,1,3,1,1,-1,-1,-2,-3
55346505533,3,-6,-2,-2,0,0,1,1
55346512558,0,1,2,0,0,0,0,-1
55346512558,-1,16,-1,-3,-2,-1,-1,-1
55346528963,3,-26,-3,-1,-2,0,0,-4
55346528963,-1,5,-2,1,0,-2,1,1
55346530303,2,-1,0,1,-1,-3,-3,0
55346530303,-2,1,-1,-2,-1,-1,-1,0
