55331535418,0.149597167969,0.201049804688,0.885070800781,0.392150878906
55331566548,0.149963378906,0.201171875,0.884887695312,0.392333984375
55331572815,0.150268554688,0.201232910156,0.884704589844,0.392578125
55331596736,0.152404785156,0.197265625,0.885620117188,0.391784667969
55331617854,0.145080566406,0.202087402344,0.884826660156,0.393798828125
55331632803,0.1396484375,0.205261230469,0.884216308594,0.395446777344
55331656648,0.134033203125,0.210021972656,0.883239746094,0.397155761719
55331677898,0.130737304688,0.215270996094,0.881896972656,0.3984375
55331693068,0.131958007812,0.218078613281,0.881042480469,0.398376464844
55331730366,0.137145996094,0.216857910156,0.881164550781,0.39697265625
55331741186,0.143859863281,0.21240234375,0.882019042969,0.395080566406
55331754699,0.148254394531,0.207336425781,0.883056640625,0.393859863281
55331769796,0.147705078125,0.204528808594,0.883728027344,0.39404296875
55331790995,0.143920898438,0.205932617188,0.883483886719,0.395324707031
55331814883,0.144287109375,0.206176757812,0.883361816406,0.395324707031
55331857633,0.144653320312,0.206665039062,0.883117675781,0.395446777344
55331867046,0.145080566406,0.206970214844,0.882873535156,0.395568847656
55331873360,0.145324707031,0.207214355469,0.882690429688,0.395812988281
55331888298,0.143432617188,0.20654296875,0.882934570312,0.396301269531
55331910767,0.138305664062,0.206481933594,0.883239746094,0.3974609375
55331925188,0.141235351562,0.202209472656,0.884155273438,0.396728515625
55331947595,0.141662597656,0.199523925781,0.884643554688,0.396789550781
55331970220,0.137939453125,0.200317382812,0.884521484375,0.39794921875
55331985208,0.132385253906,0.205017089844,0.883483886719,0.399719238281
55332007731,0.12890625,0.210693359375,0.882080078125,0.401062011719
55332030139,0.130493164062,0.213745117188,0.881164550781,0.400939941406
55332045184,0.136596679688,0.212158203125,0.881286621094,0.399475097656
55332067872,0.142822265625,0.207275390625,0.882202148438,0.397827148438
55332090126,0.1455078125,0.209838867188,0.881164550781,0.397766113281
55332105084,0.146240234375,0.210205078125,0.880859375,0.398071289062
55332127770,0.146667480469,0.210693359375,0.880615234375,0.398132324219
55332150251,0.147216796875,0.211059570312,0.880432128906,0.398132324219
55332165293,0.147766113281,0.211364746094,0.880187988281,0.398254394531
55332187622,0.148254394531,0.211547851562,0.880004882812,0.3984375
55332219020,0.148864746094,0.211608886719,0.879821777344,0.398620605469
55332225182,0.1494140625,0.211730957031,0.879638671875,0.398742675781
55332247754,0.150024414062,0.211975097656,0.87939453125,0.39892578125
55332270249,0.150512695312,0.212219238281,0.879211425781,0.399047851562
55332285143,0.151062011719,0.212524414062,0.878967285156,0.399169921875
55332307613,0.151672363281,0.212829589844,0.878723144531,0.399291992188
55332330184,0.152282714844,0.213012695312,0.878540039062,0.399353027344
55332345147,0.15283203125,0.213134765625,0.878356933594,0.399475097656
55332367606,0.153381347656,0.21337890625,0.878173828125,0.399536132812
55332390131,0.153869628906,0.213684082031,0.877990722656,0.399597167969
55332412614,0.154541015625,0.213928222656,0.877807617188,0.399658203125
55332427632,0.155090332031,0.214233398438,0.877563476562,0.399780273438
55332450161,0.155578613281,0.21435546875,0.877380371094,0.39990234375
55332465251,0.156005859375,0.214599609375,0.877197265625,0.400024414062
55332487579,0.156433105469,0.21484375,0.877014160156,0.400146484375
55332510198,0.156860351562,0.215209960938,0.876770019531,0.400268554688
55332525247,0.157165527344,0.215454101562,0.876647949219,0.400390625
55332547624,0.157409667969,0.215759277344,0.876403808594,0.400573730469
55332570114,0.157775878906,0.216369628906,0.876159667969,0.400695800781
55332585125,0.158142089844,0.217041015625,0.875793457031,0.40087890625
55332607594,0.158508300781,0.2177734375,0.87548828125,0.401062011719
55332630113,0.158813476562,0.218139648438,0.875305175781,0.401184082031
55332645119,0.158996582031,0.218505859375,0.875183105469,0.401184082031
55332667701,0.159240722656,0.218872070312,0.875061035156,0.401123046875
55332690215,0.159423828125,0.219360351562,0.875,0.40087890625
55332705198,0.15966796875,0.219909667969,0.874938964844,0.400634765625
55332727762,0.159851074219,0.220642089844,0.874877929688,0.400329589844
55332750223,0.160217285156,0.221252441406,0.874877929688,0.399841308594
55332765249,0.160400390625,0.221618652344,0.875122070312,0.398986816406
55332787842,0.160400390625,0.221618652344,0.875549316406,0.398071289062
55332810307,0.16015625,0.221618652344,0.8759765625,0.397277832031
55332825219,0.159851074219,0.222473144531,0.876220703125,0.396301269531
55332849117,0.159912109375,0.223999023438,0.876403808594,0.39501953125
55332870097,0.159301757812,0.225219726562,0.876708984375,0.393920898438
55332888029,0.157409667969,0.225341796875,0.877014160156,0.393981933594
55332909120,0.154663085938,0.225646972656,0.876953125,0.39501953125
55332930252,0.151123046875,0.227416992188,0.876525878906,0.396301269531
55332948052,0.148620605469,0.231872558594,0.874938964844,0.398132324219
55332969150,0.144470214844,0.235900878906,0.873168945312,0.401123046875
55332990238,0.139526367188,0.238220214844,0.872009277344,0.404052734375
55333008052,0.134582519531,0.23779296875,0.871887207031,0.406311035156
55333029010,0.127319335938,0.235717773438,0.872619628906,0.408203125
55333050112,0.118041992188,0.234802246094,0.872802734375,0.4111328125
55333068041,0.108215332031,0.234741210938,0.872863769531,0.413696289062
55333089044,0.0979614257812,0.236633300781,0.872192382812,0.416564941406
55333110082,0.086669921875,0.23974609375,0.87109375,0.419616699219
55333127979,0.074462890625,0.243041992188,0.869689941406,0.423034667969
55333150520,0.061279296875,0.245422363281,0.868408203125,0.426391601562
55333170195,0.0472412109375,0.248107910156,0.866882324219,0.429626464844
55333188026,0.0325317382812,0.25146484375,0.864868164062,0.43310546875
55333210537,0.0180053710938,0.255310058594,0.8623046875,0.436828613281
55333230243,0.00347900390625,0.260131835938,0.859313964844,0.440246582031
55333248036,-0.0112915039062,0.265319824219,0.855834960938,0.443725585938
55333269714,-0.026611328125,0.27001953125,0.852172851562,0.447326660156
55333290099,-0.0414428710938,0.274658203125,0.847961425781,0.451354980469
55333307979,-0.056396484375,0.278747558594,0.843688964844,0.455200195312
55333330552,-0.0706787109375,0.283630371094,0.839111328125,0.458618164062
55333350232,-0.0844116210938,0.287963867188,0.834411621094,0.462158203125
55333368004,-0.0970458984375,0.292297363281,0.829528808594,0.465759277344
55333390511,-0.108337402344,0.297058105469,0.824462890625,0.469177246094
55333410218,-0.119079589844,0.301330566406,0.819641113281,0.472412109375
55333428002,-0.129272460938,0.305297851562,0.814819335938,0.475463867188
55333449815,-0.139221191406,0.309020996094,0.81005859375,0.478393554688
55333470763,-0.148620605469,0.311828613281,0.805419921875,0.481567382812
55333487210,-0.157592773438,0.314208984375,0.801086425781,0.484313964844
55333509749,-0.166198730469,0.317321777344,0.796569824219,0.486877441406
55333530896,-0.174133300781,0.320495605469,0.792053222656,0.489440917969
55333547252,-0.181640625,0.32275390625,0.788146972656,0.491455078125
55333569725,-0.188232421875,0.324829101562,0.784973144531,0.49267578125
55333590710,-0.1943359375,0.326965332031,0.78173828125,0.494079589844
55333614430,-0.199096679688,0.329772949219,0.778198242188,0.495910644531
55333629722,-0.202880859375,0.3330078125,0.775146484375,0.496948242188
55333650769,-0.206787109375,0.335205078125,0.772766113281,0.497619628906
55333667173,-0.209106445312,0.337219238281,0.771057128906,0.497985839844
55333689687,-0.210510253906,0.339660644531,0.769592285156,0.497924804688
55333710859,-0.212219238281,0.342468261719,0.768371582031,0.497253417969
55333727227,-0.213317871094,0.344482421875,0.767456054688,0.496704101562
55333749765,-0.213745117188,0.346313476562,0.766906738281,0.496154785156
55333770925,-0.213562011719,0.348205566406,0.766723632812,0.495239257812
55333787196,-0.213806152344,0.349792480469,0.766479492188,0.494323730469
55333809714,-0.214294433594,0.35107421875,0.766174316406,0.49365234375
55333830744,-0.215270996094,0.352172851562,0.765869140625,0.492980957031
55333847234,-0.216247558594,0.353515625,0.765380859375,0.492370605469
55333869730,-0.217224121094,0.355041503906,0.7646484375,0.492004394531
55333894136,-0.21826171875,0.356567382812,0.763916015625,0.491516113281
55333907236,-0.219360351562,0.357788085938,0.76318359375,0.491271972656
55333929725,-0.220642089844,0.35888671875,0.762390136719,0.491149902344
55333950883,-0.221618652344,0.35986328125,0.761474609375,0.491333007812
55333967235,-0.222045898438,0.360656738281,0.760437011719,0.4921875
55333989774,-0.221923828125,0.360656738281,0.759704589844,0.493408203125
55334010893,-0.220764160156,0.35986328125,0.759460449219,0.494873046875
55334027222,-0.218322753906,0.359069824219,0.759216308594,0.496887207031
55334049743,-0.215576171875,0.358337402344,0.758972167969,0.498962402344
55334070683,-0.213012695312,0.357727050781,0.759094238281,0.500366210938
55334087213,-0.211303710938,0.357360839844,0.759033203125,0.501403808594
55334109690,-0.210388183594,0.357299804688,0.759033203125,0.501831054688
55334132154,-0.21044921875,0.357971191406,0.7587890625,0.501708984375
55334147195,-0.211120605469,0.358581542969,0.758605957031,0.501281738281
55334169682,-0.211853027344,0.359252929688,0.758361816406,0.500793457031
55334192221,-0.212158203125,0.360717773438,0.758056640625,0.500122070312
55334207212,-0.212463378906,0.361633300781,0.758056640625,0.499328613281
55334229923,-0.212707519531,0.3623046875,0.757873535156,0.4990234375
55334252194,-0.212524414062,0.36279296875,0.757873535156,0.498779296875
55334266555,-0.211853027344,0.363220214844,0.757995605469,0.498596191406
55334289708,-0.210876464844,0.363159179688,0.758361816406,0.498474121094
55334312224,-0.209899902344,0.363220214844,0.758544921875,0.49853515625
55334326571,-0.209411621094,0.36279296875,0.758850097656,0.49853515625
55334349716,-0.208862304688,0.362182617188,0.759216308594,0.498779296875
55334372245,-0.208190917969,0.361694335938,0.759521484375,0.498840332031
55334386482,-0.207763671875,0.361633300781,0.759460449219,0.499206542969
55334409721,-0.207824707031,0.361694335938,0.759460449219,0.499145507812
55334432195,-0.2080078125,0.361511230469,0.759399414062,0.499267578125
55334446987,-0.207458496094,0.361328125,0.759582519531,0.499328613281
55334469714,-0.206787109375,0.361633300781,0.759460449219,0.49951171875
55334492167,-0.206420898438,0.362060546875,0.759460449219,0.499450683594
55334506523,-0.206237792969,0.361938476562,0.759704589844,0.499267578125
55334529724,-0.205627441406,0.361511230469,0.759826660156,0.499572753906
55334552224,-0.204833984375,0.361206054688,0.759826660156,0.500122070312
55334566525,-0.203735351562,0.360717773438,0.760314941406,0.500183105469
55334589693,-0.202758789062,0.359985351562,0.760803222656,0.500427246094
55334612174,-0.201843261719,0.359619140625,0.76123046875,0.500427246094
55334633345,-0.201171875,0.359375,0.761596679688,0.500183105469
55334649721,-0.20068359375,0.359069824219,0.76220703125,0.499816894531
55334672294,-0.200073242188,0.358581542969,0.7626953125,0.499633789062
55334693355,-0.199462890625,0.358581542969,0.762939453125,0.499450683594
55334709722,-0.198974609375,0.358642578125,0.763244628906,0.499145507812
55334732201,-0.198486328125,0.358337402344,0.763732910156,0.498779296875
55334753381,-0.197631835938,0.357971191406,0.764404296875,0.498413085938
55334769722,-0.196899414062,0.357604980469,0.764709472656,0.49853515625
55334792256,-0.196166992188,0.357727050781,0.764953613281,0.498291015625
55334813269,-0.195678710938,0.357604980469,0.765441894531,0.497802734375
55334829733,-0.194885253906,0.357360839844,0.765930175781,0.49755859375
55334852172,-0.193786621094,0.357727050781,0.766296386719,0.497131347656
55334873230,-0.192626953125,0.357543945312,0.767028808594,0.49658203125
55334889673,-0.191650390625,0.356811523438,0.767944335938,0.49609375
55334912176,-0.190795898438,0.355834960938,0.768859863281,0.495727539062
55334933322,-0.189819335938,0.354431152344,0.769897460938,0.495544433594
55334949729,-0.188781738281,0.352966308594,0.770812988281,0.495483398438
55334972226,-0.187377929688,0.351928710938,0.771484375,0.495666503906
55334993188,-0.185974121094,0.350524902344,0.772338867188,0.495910644531
55335009718,-0.184326171875,0.348815917969,0.7734375,0.49609375
55335032215,-0.182800292969,0.346435546875,0.774780273438,0.496215820312
55335053439,-0.180969238281,0.343811035156,0.776306152344,0.496276855469
55335069045,-0.178771972656,0.341491699219,0.777954101562,0.49609375
55335092192,-0.176391601562,0.339294433594,0.780029296875,0.495239257812
55335114723,-0.173889160156,0.3369140625,0.782287597656,0.494079589844
55335129048,-0.170654296875,0.334228515625,0.784729003906,0.493286132812
55335152188,-0.166687011719,0.331359863281,0.787292480469,0.492431640625
55335174775,-0.161926269531,0.328918457031,0.789978027344,0.491333007812
55335189021,-0.156311035156,0.326354980469,0.79296875,0.490051269531
55335212237,-0.150268554688,0.323181152344,0.796264648438,0.488647460938
55335234716,-0.143859863281,0.319274902344,0.799987792969,0.487182617188
55335248987,-0.13671875,0.315185546875,0.8037109375,0.485778808594
55335271987,-0.128845214844,0.311157226562,0.807495117188,0.484191894531
55335294681,-0.120544433594,0.307189941406,0.811218261719,0.482666015625
55335309001,-0.111938476562,0.303039550781,0.815063476562,0.480834960938
55335332193,-0.1025390625,0.298217773438,0.819213867188,0.478942871094
55335356155,-0.0919799804688,0.29296875,0.823425292969,0.47705078125
55335375870,-0.0802001953125,0.289184570312,0.827209472656,0.474975585938
55335392193,-0.067138671875,0.286865234375,0.830627441406,0.472351074219
55335414723,-0.0537109375,0.284423828125,0.834167480469,0.469299316406
55335435820,-0.0398559570312,0.281677246094,0.837768554688,0.466003417969
55335452153,-0.0258178710938,0.278686523438,0.841064453125,0.462829589844
55335474777,-0.01171875,0.275634765625,0.844177246094,0.45947265625
55335495912,0.00225830078125,0.273254394531,0.847106933594,0.455688476562
55335512763,0.0162353515625,0.271667480469,0.849487304688,0.451843261719
55335534742,0.0291137695312,0.269348144531,0.851745605469,0.448364257812
55335555683,0.0411376953125,0.266723632812,0.853759765625,0.445129394531
55335572209,0.0521240234375,0.26416015625,0.855712890625,0.441833496094
55335594471,0.062255859375,0.262634277344,0.856994628906,0.438903808594
55335615700,0.07177734375,0.261779785156,0.857971191406,0.435974121094
55335632137,0.0804443359375,0.26025390625,0.859069824219,0.433166503906
55335654707,0.0886840820312,0.257995605469,0.860229492188,0.4306640625
55335675936,0.0966796875,0.256408691406,0.861206054688,0.427856445312
55335692170,0.103759765625,0.255554199219,0.861938476562,0.42529296875
55335714739,0.110107421875,0.255126953125,0.862731933594,0.42236328125
55335735743,0.115905761719,0.254577636719,0.863464355469,0.419555664062
55335752147,0.121398925781,0.254089355469,0.8642578125,0.416748046875
55335774741,0.127014160156,0.253967285156,0.864685058594,0.414306640625
55335795805,0.132202148438,0.254760742188,0.864929199219,0.411560058594
55335812256,0.136840820312,0.2548828125,0.865478515625,0.408874511719
55335834735,0.141052246094,0.254516601562,0.866027832031,0.406494140625
55335855861,0.144714355469,0.253662109375,0.86669921875,0.404296875
55335872216,0.147827148438,0.252868652344,0.867431640625,0.402038574219
55335894727,0.151184082031,0.252380371094,0.868041992188,0.399841308594
55335915865,0.154418945312,0.251586914062,0.868530273438,0.398071289062
55335931531,0.157531738281,0.250793457031,0.869018554688,0.396179199219
55335954773,0.160278320312,0.250061035156,0.869506835938,0.39453125
55335975872,0.162475585938,0.249145507812,0.869995117188,0.39306640625
55335991499,0.164123535156,0.248107910156,0.870544433594,0.391784667969
55336014722,0.165283203125,0.2470703125,0.870971679688,0.39111328125
55336037141,0.165466308594,0.245971679688,0.871276855469,0.391052246094
55336052191,0.165344238281,0.244445800781,0.87158203125,0.391357421875
55336074720,0.165771484375,0.242004394531,0.872131347656,0.391418457031
55336097204,0.166687011719,0.239196777344,0.872863769531,0.39111328125
55336112588,0.167785644531,0.237854003906,0.873229980469,0.390747070312
55336134775,0.168518066406,0.238037109375,0.873107910156,0.390563964844
55336157145,0.169128417969,0.238891601562,0.872802734375,0.390380859375
55336171585,0.169494628906,0.239501953125,0.872619628906,0.390258789062
55336194755,0.16943359375,0.239562988281,0.872619628906,0.390319824219
55336217253,0.169250488281,0.239440917969,0.872619628906,0.390441894531
55336231491,0.1689453125,0.2392578125,0.872680664062,0.390563964844
55336254759,0.168579101562,0.239074707031,0.872741699219,0.390686035156
55336277146,0.168395996094,0.239074707031,0.872741699219,0.390808105469
55336291449,0.168090820312,0.239135742188,0.872680664062,0.390930175781
55336314717,0.167785644531,0.239135742188,0.872680664062,0.391174316406
55336337170,0.167358398438,0.238830566406,0.872680664062,0.391540527344
55336351507,0.166931152344,0.238342285156,0.872680664062,0.392028808594
55336374715,0.166381835938,0.237854003906,0.872802734375,0.392333984375
55336397153,0.165954589844,0.237609863281,0.872863769531,0.392456054688
55336411476,0.165649414062,0.237609863281,0.872741699219,0.392822265625
55336434719,0.165222167969,0.237365722656,0.872741699219,0.393127441406
55336457207,0.164794921875,0.237182617188,0.872741699219,0.393493652344
55336471517,0.164245605469,0.236999511719,0.872680664062,0.393920898438
55336494704,0.163757324219,0.236633300781,0.872680664062,0.394287109375
55336517168,0.163391113281,0.236511230469,0.872680664062,0.39453125
55336538347,0.1630859375,0.236511230469,0.872680664062,0.394653320312
55336554726,0.162780761719,0.236633300781,0.872680664062,0.394775390625
55336577146,0.16259765625,0.236694335938,0.872680664062,0.394775390625
55336598267,0.162231445312,0.236572265625,0.872741699219,0.394897460938
55336614705,0.161987304688,0.236328125,0.872802734375,0.39501953125
55336637244,0.161682128906,0.235961914062,0.872924804688,0.395080566406
55336665716,0.161437988281,0.235778808594,0.872985839844,0.395080566406
55336674689,0.161437988281,0.235778808594,0.872985839844,0.395080566406
55336697210,0.161437988281,0.235778808594,0.872985839844,0.395080566406
55336718359,0.161193847656,0.235717773438,0.872985839844,0.395263671875
55336734726,0.161193847656,0.235656738281,0.873046875,0.395263671875
55336757189,0.161193847656,0.235656738281,0.873046875,0.395263671875
55336762582,0.161193847656,0.235656738281,0.873046875,0.395263671875
55336785180,0.161193847656,0.235595703125,0.873046875,0.395263671875
55336800031,0.160949707031,0.235473632812,0.873046875,0.395385742188
55336822668,0.160827636719,0.235229492188,0.873046875,0.395629882812
55336845185,0.160827636719,0.235229492188,0.873046875,0.395629882812
55336860171,0.160827636719,0.235168457031,0.873046875,0.395629882812
55336882562,0.160766601562,0.235290527344,0.872985839844,0.395812988281
55336905020,0.160766601562,0.235290527344,0.872924804688,0.395812988281
55336920044,0.160766601562,0.235229492188,0.872985839844,0.395812988281
55336942668,0.160766601562,0.235229492188,0.872985839844,0.395812988281
55336965124,0.160766601562,0.235229492188,0.872985839844,0.395812988281
55336980075,0.160705566406,0.235229492188,0.872985839844,0.395812988281
55337002655,0.160766601562,0.235229492188,0.872985839844,0.395812988281
55337025170,0.160766601562,0.235168457031,0.872985839844,0.395812988281
55337040184,0.160766601562,0.235168457031,0.872985839844,0.395812988281
55337062645,0.160766601562,0.235168457031,0.872985839844,0.395812988281
55337080468,0.160705566406,0.235168457031,0.872985839844,0.395812988281
55337100062,0.160705566406,0.235107421875,0.872985839844,0.395812988281
55337122790,0.160766601562,0.235168457031,0.872924804688,0.395874023438
55337140509,0.160766601562,0.235168457031,0.872985839844,0.395874023438
55337160020,0.160766601562,0.235168457031,0.872924804688,0.395874023438
55337182592,0.160766601562,0.235168457031,0.872924804688,0.395874023438
55337200392,0.160766601562,0.235168457031,0.872924804688,0.395874023438
55337220154,0.160766601562,0.235168457031,0.872924804688,0.395874023438
55337242647,0.160705566406,0.235168457031,0.872985839844,0.395874023438
55337260491,0.160705566406,0.235107421875,0.872985839844,0.395874023438
55337280153,0.160705566406,0.235107421875,0.872985839844,0.395874023438
55337302507,0.160766601562,0.235107421875,0.872985839844,0.395874023438
55337320372,0.160705566406,0.235107421875,0.872985839844,0.395874023438
55337340110,0.160705566406,0.235107421875,0.872985839844,0.395874023438
