55377982112,0.149475097656,0.178527832031,0.873657226562,0.427124023438
55378014121,0.148681640625,0.17919921875,0.87353515625,0.427307128906
55378020319,0.155883789062,0.174743652344,0.874328613281,0.424987792969
55378043165,0.152160644531,0.179992675781,0.873474121094,0.425903320312
55378064513,0.149230957031,0.184692382812,0.872680664062,0.426574707031
55378079610,0.1494140625,0.185302734375,0.872497558594,0.426574707031
55378102026,0.150573730469,0.18505859375,0.872497558594,0.426330566406
55378117059,0.155944824219,0.180419921875,0.873291015625,0.424682617188
55378171538,0.15673828125,0.179077148438,0.873596191406,0.424438476562
55378173660,0.15576171875,0.176452636719,0.874206542969,0.424560546875
55378185545,0.151062011719,0.177856445312,0.874145507812,0.42578125
55378203397,0.147644042969,0.177001953125,0.874572753906,0.426452636719
55378223477,0.147338867188,0.178283691406,0.874206542969,0.4267578125
55378252841,0.147399902344,0.178649902344,0.874145507812,0.4267578125
55378296944,0.147521972656,0.178955078125,0.874084472656,0.4267578125
55378307050,0.147583007812,0.17919921875,0.8740234375,0.4267578125
55378307829,0.147583007812,0.179626464844,0.873901367188,0.426818847656
55378320804,0.153381347656,0.179077148438,0.873657226562,0.425537109375
55378341991,0.149475097656,0.179504394531,0.873840332031,0.426330566406
55378358261,0.146118164062,0.179870605469,0.873901367188,0.427185058594
55378382259,0.140808105469,0.183288574219,0.873352050781,0.4287109375
55378401820,0.13623046875,0.188781738281,0.872192382812,0.430114746094
55378419719,0.135437011719,0.192932128906,0.871154785156,0.430603027344
55378442228,0.1396484375,0.192626953125,0.870971679688,0.4296875
55378461900,0.14599609375,0.188110351562,0.871704101562,0.428161621094
55378480162,0.149841308594,0.182861328125,0.872680664062,0.427124023438
55378502222,0.14892578125,0.180969238281,0.873046875,0.427490234375
55378521923,0.147338867188,0.180297851562,0.873229980469,0.427917480469
55378539764,0.148132324219,0.180358886719,0.872985839844,0.428161621094
55378562214,0.148254394531,0.18017578125,0.872924804688,0.428344726562
55378581962,0.148376464844,0.180541992188,0.872680664062,0.428649902344
55378599783,0.148864746094,0.180908203125,0.872436523438,0.428833007812
55378622239,0.149047851562,0.181335449219,0.872253417969,0.428894042969
55378641899,0.149353027344,0.181762695312,0.8720703125,0.429016113281
55378659762,0.149719238281,0.182434082031,0.871887207031,0.428894042969
55378682294,0.150390625,0.183227539062,0.871765136719,0.428649902344
55378701808,0.151306152344,0.184143066406,0.871704101562,0.427978515625
55378719760,0.151550292969,0.184387207031,0.871887207031,0.427429199219
55378742260,0.15087890625,0.18408203125,0.872253417969,0.427124023438
55378761948,0.149780273438,0.183654785156,0.87255859375,0.427062988281
55378779757,0.148071289062,0.182556152344,0.872680664062,0.427856445312
55378803328,0.145812988281,0.181335449219,0.87255859375,0.429443359375
55378823293,0.142639160156,0.180603027344,0.872314453125,0.431335449219
55378847264,0.140075683594,0.181823730469,0.87158203125,0.433044433594
55378862228,0.138916015625,0.184814453125,0.870422363281,0.434509277344
55378882583,0.137573242188,0.187255859375,0.869201660156,0.436279296875
55378898285,0.134643554688,0.186584472656,0.868896484375,0.438110351562
55378921496,0.132385253906,0.186401367188,0.868774414062,0.439208984375
55378942463,0.130065917969,0.188049316406,0.8681640625,0.440368652344
55378958270,0.127319335938,0.190002441406,0.867797851562,0.441040039062
55378981447,0.122741699219,0.192565917969,0.867614746094,0.441528320312
55379002605,0.117004394531,0.195129394531,0.867370605469,0.442504882812
55379018945,0.109741210938,0.197631835938,0.8671875,0.443603515625
55379041476,0.101196289062,0.200073242188,0.867065429688,0.44482421875
55379062608,0.0911865234375,0.201965332031,0.866760253906,0.446655273438
55379079384,0.0804443359375,0.20361328125,0.86669921875,0.448181152344
55379101457,0.0696411132812,0.206237792969,0.866455078125,0.449157714844
55379124382,0.0581665039062,0.209777832031,0.865966796875,0.450134277344
55379138201,0.046630859375,0.213623046875,0.865234375,0.451110839844
55379161497,0.0347900390625,0.217468261719,0.864379882812,0.451904296875
55379183922,0.0233154296875,0.221557617188,0.863525390625,0.452331542969
55379198284,0.0121459960938,0.226196289062,0.862548828125,0.452331542969
55379221471,0.00140380859375,0.231628417969,0.861267089844,0.452209472656
55379243940,-0.00933837890625,0.237426757812,0.859741210938,0.451965332031
55379258249,-0.02001953125,0.242797851562,0.858215332031,0.45166015625
55379287566,-0.0307006835938,0.2470703125,0.856872558594,0.451354980469
55379303917,-0.0405883789062,0.251708984375,0.855346679688,0.450866699219
55379326485,-0.0497436523438,0.256896972656,0.853576660156,0.450378417969
55379347639,-0.05810546875,0.261840820312,0.851684570312,0.450073242188
55379363916,-0.0663452148438,0.265625,0.850036621094,0.449890136719
55379386469,-0.0737915039062,0.269226074219,0.848571777344,0.449401855469
55379407593,-0.0807495117188,0.272583007812,0.846984863281,0.449035644531
55379423907,-0.0870361328125,0.276245117188,0.845336914062,0.44873046875
55379446417,-0.092529296875,0.280090332031,0.843688964844,0.448364257812
55379467645,-0.0977172851562,0.283203125,0.842224121094,0.448120117188
55379483983,-0.1025390625,0.285888671875,0.840881347656,0.447814941406
55379506892,-0.107421875,0.287902832031,0.839782714844,0.447448730469
55379527607,-0.111755371094,0.289672851562,0.8388671875,0.446960449219
55379543891,-0.115539550781,0.291931152344,0.837829589844,0.446533203125
55379566422,-0.119018554688,0.294006347656,0.8369140625,0.445983886719
55379587443,-0.122497558594,0.295837402344,0.835998535156,0.445556640625
55379603204,-0.1259765625,0.297241210938,0.835266113281,0.445007324219
55379632644,-0.129028320312,0.298767089844,0.83447265625,0.444519042969
55379647620,-0.132019042969,0.300537109375,0.833862304688,0.443664550781
55379663243,-0.134216308594,0.302124023438,0.833557128906,0.442504882812
55379686440,-0.135925292969,0.303771972656,0.8330078125,0.44189453125
55379708899,-0.137084960938,0.305603027344,0.832336425781,0.441528320312
55379723889,-0.137390136719,0.308044433594,0.831726074219,0.44091796875
55379748568,-0.137756347656,0.310241699219,0.831176757812,0.440307617188
55379768863,-0.137817382812,0.3125,0.830505371094,0.439880371094
55379783881,-0.137939453125,0.314758300781,0.830139160156,0.43896484375
55379806472,-0.138366699219,0.316040039062,0.829956054688,0.438232421875
55379829020,-0.138488769531,0.3173828125,0.829956054688,0.437194824219
55379843211,-0.138549804688,0.319091796875,0.829345703125,0.437072753906
55379866442,-0.138549804688,0.320556640625,0.828918457031,0.436828613281
55379888918,-0.138732910156,0.322021484375,0.828430175781,0.436645507812
55379910071,-0.138793945312,0.323425292969,0.828430175781,0.435546875
55379926448,-0.139099121094,0.324768066406,0.828186035156,0.434936523438
55379954960,-0.139587402344,0.325378417969,0.827880859375,0.434875488281
55379963277,-0.139831542969,0.326599121094,0.82763671875,0.434448242188
55379986446,-0.1396484375,0.327758789062,0.827331542969,0.434204101562
55380009368,-0.139465332031,0.328857421875,0.826904296875,0.434143066406
55380023254,-0.139404296875,0.329711914062,0.826354980469,0.434692382812
55380046518,-0.138610839844,0.330200195312,0.826049804688,0.435119628906
55380068925,-0.136657714844,0.330505371094,0.825927734375,0.435668945312
55380083252,-0.134155273438,0.330627441406,0.825927734375,0.436401367188
55380106385,-0.131530761719,0.329956054688,0.826232910156,0.437072753906
55380128883,-0.129089355469,0.328674316406,0.826721191406,0.437927246094
55380143253,-0.126770019531,0.328369140625,0.826843261719,0.438537597656
55380166433,-0.124877929688,0.327575683594,0.827392578125,0.438659667969
55380188942,-0.123596191406,0.326538085938,0.827819824219,0.43896484375
55380210027,-0.122802734375,0.326171875,0.827880859375,0.439392089844
55380233897,-0.122924804688,0.326293945312,0.827758789062,0.439453125
55380248900,-0.122741699219,0.325805664062,0.828308105469,0.438842773438
55380270066,-0.123046875,0.325256347656,0.828552246094,0.438720703125
55380286471,-0.123229980469,0.325866699219,0.828247070312,0.438781738281
55380308955,-0.123413085938,0.326171875,0.828247070312,0.438537597656
55380329960,-0.12353515625,0.32568359375,0.828247070312,0.438842773438
55380346457,-0.123657226562,0.325622558594,0.828063964844,0.439208984375
55380368879,-0.123291015625,0.325805664062,0.828002929688,0.439270019531
55380389915,-0.123291015625,0.325988769531,0.827880859375,0.439453125
55380406389,-0.123229980469,0.325622558594,0.828063964844,0.439331054688
55380428894,-0.122863769531,0.325317382812,0.828125,0.439575195312
55380449926,-0.122253417969,0.325622558594,0.827880859375,0.43994140625
55380467018,-0.1220703125,0.32568359375,0.828002929688,0.439758300781
55380488949,-0.1220703125,0.3251953125,0.828125,0.439758300781
55380511442,-0.121948242188,0.325378417969,0.828063964844,0.439880371094
55380526396,-0.121704101562,0.325500488281,0.828186035156,0.439636230469
55380548909,-0.1220703125,0.325317382812,0.828186035156,0.439697265625
55380570092,-0.122009277344,0.325134277344,0.828308105469,0.439575195312
55380586431,-0.121765136719,0.325317382812,0.828186035156,0.439697265625
55380608955,-0.121826171875,0.325378417969,0.828186035156,0.439697265625
55380631422,-0.121948242188,0.325012207031,0.828247070312,0.439819335938
55380646371,-0.122009277344,0.324584960938,0.828247070312,0.440124511719
55380669030,-0.121276855469,0.324157714844,0.828308105469,0.440490722656
55380698951,-0.120727539062,0.324340820312,0.828247070312,0.440551757812
55380706344,-0.120849609375,0.323913574219,0.828491210938,0.440368652344
55380728894,-0.120727539062,0.3232421875,0.828674316406,0.440612792969
55380751456,-0.120239257812,0.322937011719,0.828735351562,0.44091796875
55380766410,-0.11962890625,0.322937011719,0.828674316406,0.441101074219
55380788919,-0.11962890625,0.322937011719,0.828735351562,0.441101074219
55380811375,-0.119873046875,0.322631835938,0.828796386719,0.441101074219
55380832564,-0.119934082031,0.322875976562,0.828674316406,0.441101074219
55380848947,-0.119934082031,0.322937011719,0.828674316406,0.441101074219
55380872046,-0.119812011719,0.322692871094,0.828735351562,0.441101074219
55380885766,-0.119934082031,0.322326660156,0.828857421875,0.441162109375
55380908944,-0.119506835938,0.322509765625,0.828857421875,0.441223144531
55380931365,-0.119140625,0.322509765625,0.828857421875,0.441223144531
55380945744,-0.118408203125,0.322509765625,0.828918457031,0.441284179688
55380976499,-0.118041992188,0.322326660156,0.8291015625,0.441284179688
55380991372,-0.117858886719,0.321838378906,0.829284667969,0.441223144531
55381005706,-0.117492675781,0.321350097656,0.829467773438,0.44140625
55381028884,-0.116943359375,0.320983886719,0.829467773438,0.441772460938
55381051456,-0.115966796875,0.320983886719,0.829528808594,0.442016601562
55381066275,-0.115234375,0.320434570312,0.829711914062,0.442199707031
55381088891,-0.114196777344,0.319946289062,0.829895019531,0.442443847656
55381111364,-0.112548828125,0.318908691406,0.830444335938,0.442565917969
55381132546,-0.110534667969,0.317687988281,0.830993652344,0.442993164062
55381149422,-0.108642578125,0.316101074219,0.831481933594,0.443664550781
55381171431,-0.106323242188,0.314758300781,0.831970214844,0.444213867188
55381192538,-0.103759765625,0.31298828125,0.832702636719,0.444702148438
55381208898,-0.100402832031,0.310546875,0.833862304688,0.445007324219
55381231394,-0.0962524414062,0.308044433594,0.834899902344,0.445739746094
55381252548,-0.091796875,0.305725097656,0.835754394531,0.446594238281
55381268841,-0.087158203125,0.302917480469,0.8369140625,0.447387695312
55381298926,-0.0821533203125,0.299865722656,0.838195800781,0.447998046875
55381312514,-0.0765991210938,0.296569824219,0.839599609375,0.448547363281
55381328854,-0.0703125,0.29296875,0.841003417969,0.449279785156
55381334369,-0.063720703125,0.289367675781,0.84228515625,0.450134277344
55381356863,-0.0571899414062,0.286315917969,0.843566894531,0.45068359375
55381379287,-0.050537109375,0.282653808594,0.845153808594,0.450805664062
55381394371,-0.0437622070312,0.277770996094,0.847045898438,0.450927734375
55381416985,-0.0360107421875,0.273376464844,0.848754882812,0.451110839844
55381439270,-0.028076171875,0.269958496094,0.849975585938,0.451477050781
55381454299,-0.0197143554688,0.266967773438,0.851196289062,0.451354980469
55381476737,-0.011474609375,0.262878417969,0.852844238281,0.450927734375
55381499271,-0.00335693359375,0.258361816406,0.854431152344,0.450622558594
55381514294,0.0047607421875,0.25390625,0.855834960938,0.450561523438
55381536791,0.0133666992188,0.250183105469,0.856994628906,0.4501953125
55381559327,0.02197265625,0.247314453125,0.858093261719,0.449340820312
55381574437,0.0305786132812,0.243896484375,0.859069824219,0.448913574219
55381596895,0.0394287109375,0.241027832031,0.859680175781,0.448608398438
55381619265,0.0475463867188,0.238586425781,0.860290527344,0.447937011719
55381634424,0.0548095703125,0.235534667969,0.861328125,0.446716308594
55381657024,0.0624389648438,0.232788085938,0.862182617188,0.445556640625
55381679364,0.0700073242188,0.23095703125,0.8623046875,0.445129394531
55381694247,0.0767822265625,0.230285644531,0.861877441406,0.445129394531
55381716871,0.0823364257812,0.228332519531,0.862243652344,0.444458007812
55381739244,0.0877685546875,0.225769042969,0.862915039062,0.443420410156
55381754405,0.0935668945312,0.222778320312,0.863342285156,0.44287109375
55381776787,0.0994262695312,0.221740722656,0.862915039062,0.442932128906
55381799451,0.104675292969,0.222961425781,0.8623046875,0.442260742188
55381814396,0.109619140625,0.222106933594,0.862426757812,0.441345214844
55381836886,0.114562988281,0.21875,0.862976074219,0.440612792969
55381859310,0.119934082031,0.215942382812,0.863220214844,0.440185546875
55381874232,0.125244140625,0.215576171875,0.862976074219,0.439331054688
55381896780,0.129272460938,0.21630859375,0.862731933594,0.438232421875
55381919240,0.132019042969,0.2158203125,0.862854003906,0.4375
55381934379,0.133728027344,0.213989257812,0.863403320312,0.436828613281
55381956993,0.134643554688,0.212280273438,0.863891601562,0.436279296875
55381974706,0.1357421875,0.212036132812,0.864013671875,0.435852050781
55381994408,0.137145996094,0.212280273438,0.864013671875,0.435302734375
55382016739,0.139099121094,0.211853027344,0.864196777344,0.4345703125
55382034708,0.141174316406,0.211547851562,0.864562988281,0.433288574219
55382054281,0.143127441406,0.212219238281,0.864685058594,0.432006835938
55382076895,0.145080566406,0.212768554688,0.864990234375,0.430603027344
55382094716,0.147277832031,0.213500976562,0.865295410156,0.428833007812
55382114469,0.148742675781,0.213745117188,0.865173339844,0.428405761719
55382137014,0.148315429688,0.212097167969,0.865234375,0.429321289062
55382156110,0.1494140625,0.211791992188,0.865295410156,0.428955078125
55382177172,0.150573730469,0.210266113281,0.865600585938,0.428649902344
55382196759,0.152404785156,0.20849609375,0.865783691406,0.428466796875
55382214713,0.153747558594,0.2080078125,0.865966796875,0.427917480469
55382235735,0.154418945312,0.208618164062,0.865905761719,0.427490234375
55382256871,0.155456542969,0.209106445312,0.865661621094,0.427368164062
55382274698,0.156311035156,0.209167480469,0.865539550781,0.427307128906
55382295701,0.157043457031,0.209106445312,0.865478515625,0.427124023438
55382316780,0.15771484375,0.209228515625,0.865478515625,0.426879882812
55382334699,0.158508300781,0.209716796875,0.865295410156,0.426635742188
55382355747,0.159118652344,0.210144042969,0.865234375,0.426391601562
55382376831,0.159545898438,0.210266113281,0.865112304688,0.426391601562
55382394696,0.159912109375,0.210021972656,0.865051269531,0.426574707031
55382415716,0.159973144531,0.209594726562,0.865051269531,0.426635742188
55382436748,0.159912109375,0.209228515625,0.865051269531,0.426879882812
55382454717,0.159912109375,0.209228515625,0.864807128906,0.427307128906
55382475769,0.159912109375,0.209228515625,0.864624023438,0.427795410156
55382496896,0.159729003906,0.208984375,0.864501953125,0.42822265625
55382514732,0.159423828125,0.208618164062,0.864379882812,0.4287109375
55382537162,0.159057617188,0.208190917969,0.864379882812,0.429077148438
55382556944,0.158813476562,0.207824707031,0.8642578125,0.429565429688
55382574766,0.15869140625,0.207641601562,0.864135742188,0.429992675781
55382597184,0.158447265625,0.207275390625,0.864013671875,0.430419921875
55382616712,0.158203125,0.206909179688,0.864013671875,0.430786132812
55382634684,0.158020019531,0.206787109375,0.863952636719,0.430969238281
55382657171,0.158020019531,0.206726074219,0.863891601562,0.43115234375
55382676737,0.157897949219,0.206420898438,0.863830566406,0.431396484375
55382694727,0.157775878906,0.206359863281,0.86376953125,0.431640625
55382717195,0.157775878906,0.206359863281,0.86376953125,0.431640625
55382736900,0.157775878906,0.206359863281,0.86376953125,0.431640625
55382754755,0.157775878906,0.206359863281,0.86376953125,0.431640625
