55358969924,0.150695800781,0.195983886719,0.8818359375,0.401489257812
55358993785,0.150512695312,0.196228027344,0.881713867188,0.401550292969
55359008568,0.156799316406,0.195251464844,0.881591796875,0.400024414062
55359030016,0.155517578125,0.195617675781,0.881591796875,0.400390625
55359054185,0.15087890625,0.196899414062,0.881469726562,0.401672363281
55359068753,0.145263671875,0.201110839844,0.880737304688,0.403259277344
55359089968,0.141540527344,0.206176757812,0.879577636719,0.404602050781
55359113623,0.142028808594,0.208679199219,0.878967285156,0.404479980469
55359144864,0.146728515625,0.206909179688,0.879272460938,0.403076171875
55359153372,0.148193359375,0.205688476562,0.879516601562,0.402648925781
55359173653,0.151428222656,0.200561523438,0.880676269531,0.4013671875
55359188865,0.151184082031,0.197937011719,0.881408691406,0.401306152344
55359211009,0.151977539062,0.197021484375,0.881530761719,0.401062011719
55359236408,0.151489257812,0.197021484375,0.881652832031,0.401062011719
55359277318,0.151550292969,0.197082519531,0.881652832031,0.400939941406
55359287389,0.151733398438,0.197448730469,0.881591796875,0.400939941406
55359293612,0.151916503906,0.197509765625,0.881530761719,0.400939941406
55359308693,0.15625,0.195556640625,0.881652832031,0.39990234375
55359331099,0.159606933594,0.190307617188,0.8828125,0.398620605469
55359361801,0.164489746094,0.185668945312,0.883544921875,0.397155761719
55359376784,0.166870117188,0.181762695312,0.88427734375,0.396362304688
55359399628,0.165161132812,0.180541992188,0.884582519531,0.39697265625
55359405096,0.159973144531,0.183166503906,0.884216308594,0.398681640625
55359427132,0.154724121094,0.188659667969,0.883117675781,0.400573730469
55359449601,0.153442382812,0.193481445312,0.881896972656,0.401428222656
55359464744,0.157348632812,0.193969726562,0.881408691406,0.400817871094
55359487249,0.163208007812,0.190185546875,0.8818359375,0.399353027344
55359509687,0.158569335938,0.191345214844,0.881774902344,0.400695800781
55359524662,0.159057617188,0.191589355469,0.881652832031,0.400756835938
55359547259,0.159362792969,0.192077636719,0.88134765625,0.401000976562
55359569850,0.159545898438,0.192504882812,0.881042480469,0.4013671875
55359584715,0.159851074219,0.192993164062,0.880737304688,0.401733398438
55359607429,0.16015625,0.193237304688,0.880554199219,0.401977539062
55359629705,0.160461425781,0.193725585938,0.880249023438,0.402282714844
55359644738,0.160827636719,0.194152832031,0.879943847656,0.402587890625
55359667310,0.160949707031,0.194702148438,0.879699707031,0.402770996094
55359689781,0.161193847656,0.1953125,0.87939453125,0.403015136719
55359704860,0.161315917969,0.196044921875,0.879150390625,0.403198242188
55359727261,0.161499023438,0.196838378906,0.878845214844,0.4033203125
55359749843,0.161926269531,0.197692871094,0.878662109375,0.403198242188
55359764807,0.162048339844,0.198425292969,0.878723144531,0.402587890625
55359787171,0.161804199219,0.19873046875,0.87890625,0.402099609375
55359809672,0.161193847656,0.199279785156,0.87890625,0.402099609375
55359824819,0.16064453125,0.199768066406,0.878784179688,0.402404785156
55359847275,0.1591796875,0.198852539062,0.879028320312,0.402893066406
55359869708,0.156860351562,0.198608398438,0.879211425781,0.403564453125
55359884781,0.155517578125,0.201538085938,0.878784179688,0.403503417969
55359907122,0.155090332031,0.206115722656,0.877807617188,0.403564453125
55359929632,0.152709960938,0.208068847656,0.876831054688,0.405517578125
55359944737,0.148193359375,0.209838867188,0.876098632812,0.407897949219
55359967142,0.143676757812,0.210083007812,0.87548828125,0.41064453125
55359989746,0.139343261719,0.209838867188,0.874572753906,0.414123535156
55360004850,0.134643554688,0.210571289062,0.873962402344,0.416687011719
55360027196,0.128295898438,0.21240234375,0.873718261719,0.418273925781
55360049741,0.120727539062,0.21533203125,0.873229980469,0.419982910156
55360064750,0.111145019531,0.218200683594,0.87255859375,0.422607421875
55360087298,0.100830078125,0.220275878906,0.871826171875,0.425598144531
55360109785,0.0896606445312,0.222839355469,0.871215820312,0.427978515625
55360124666,0.0771484375,0.225402832031,0.870666503906,0.430236816406
55360147291,0.0648803710938,0.229431152344,0.86962890625,0.432250976562
55360169744,0.052490234375,0.234924316406,0.867980957031,0.434204101562
55360184792,0.0399169921875,0.240539550781,0.866149902344,0.436218261719
55360207409,0.0272827148438,0.245544433594,0.864196777344,0.438232421875
55360229768,0.0145263671875,0.250793457031,0.862060546875,0.440063476562
55360244760,0.00152587890625,0.256103515625,0.85986328125,0.441528320312
55360267197,-0.01171875,0.261596679688,0.857116699219,0.443481445312
55360289718,-0.02490234375,0.267211914062,0.854125976562,0.445373535156
55360307632,-0.037353515625,0.273376464844,0.850708007812,0.447265625
55360328560,-0.0498046875,0.279357910156,0.84716796875,0.449157714844
55360349823,-0.0621948242188,0.285095214844,0.843444824219,0.450988769531
55360367586,-0.0738525390625,0.2900390625,0.839721679688,0.453002929688
55360387265,-0.0851440429688,0.29443359375,0.836120605469,0.454895019531
55360409656,-0.0956420898438,0.299255371094,0.832458496094,0.456298828125
55360427552,-0.105346679688,0.304138183594,0.828735351562,0.457702636719
55360447859,-0.114685058594,0.308471679688,0.825256347656,0.458923339844
55360469585,-0.123352050781,0.312377929688,0.822021484375,0.459838867188
55360487543,-0.13134765625,0.31591796875,0.818908691406,0.460693359375
55360508618,-0.138305664062,0.319152832031,0.816284179688,0.461120605469
55360532597,-0.144592285156,0.322509765625,0.813720703125,0.46142578125
55360547520,-0.150085449219,0.325927734375,0.811340332031,0.46142578125
55360568586,-0.15478515625,0.328979492188,0.809448242188,0.460998535156
55360589620,-0.158447265625,0.331970214844,0.807739257812,0.460632324219
55360607612,-0.161743164062,0.334777832031,0.805908203125,0.460632324219
55360630033,-0.164123535156,0.337341308594,0.804626464844,0.460205078125
55360649772,-0.166015625,0.339294433594,0.803771972656,0.459533691406
55360667586,-0.16748046875,0.341735839844,0.802856445312,0.458801269531
55360688604,-0.169128417969,0.34326171875,0.802490234375,0.457763671875
55360711122,-0.170227050781,0.344482421875,0.802185058594,0.456909179688
55360727590,-0.170715332031,0.346130371094,0.801879882812,0.455993652344
55360748596,-0.170776367188,0.348205566406,0.801391601562,0.455261230469
55360769723,-0.170166015625,0.350402832031,0.800964355469,0.454528808594
55360787522,-0.169738769531,0.351623535156,0.801208496094,0.453308105469
55360810123,-0.169616699219,0.352844238281,0.801574707031,0.451782226562
55360829749,-0.169677734375,0.353881835938,0.801879882812,0.450439453125
55360847529,-0.169738769531,0.35498046875,0.801818847656,0.449645996094
55360870074,-0.170043945312,0.356262207031,0.801635742188,0.448852539062
55360891056,-0.17041015625,0.357971191406,0.801330566406,0.447875976562
55360907556,-0.171325683594,0.359375,0.801208496094,0.446655273438
55360930014,-0.172607421875,0.360534667969,0.800903320312,0.445739746094
55360949589,-0.173400878906,0.361145019531,0.800964355469,0.44482421875
55360967566,-0.174133300781,0.362182617188,0.800720214844,0.444152832031
55360990056,-0.175659179688,0.363647460938,0.799743652344,0.444152832031
55361010335,-0.177124023438,0.364990234375,0.798950195312,0.44384765625
55361026721,-0.178100585938,0.366149902344,0.798156738281,0.443908691406
55361049228,-0.179138183594,0.367248535156,0.796875,0.444885253906
55361070262,-0.1796875,0.368469238281,0.795776367188,0.445556640625
55361086694,-0.179443359375,0.369323730469,0.795227050781,0.445983886719
55361109247,-0.179138183594,0.368835449219,0.794738769531,0.447387695312
55361130395,-0.176879882812,0.367980957031,0.794616699219,0.449279785156
55361146753,-0.172485351562,0.367248535156,0.794799804688,0.451171875
55361169236,-0.168334960938,0.365478515625,0.795593261719,0.452880859375
55361190359,-0.164916992188,0.363159179688,0.796569824219,0.454162597656
55361206781,-0.16259765625,0.361389160156,0.797241210938,0.455261230469
55361229266,-0.160583496094,0.360168457031,0.797912597656,0.455810546875
55361250339,-0.159912109375,0.359924316406,0.798095703125,0.455871582031
55361274243,-0.160095214844,0.359741210938,0.79833984375,0.455505371094
55361289257,-0.161376953125,0.359375,0.798522949219,0.455017089844
55361317908,-0.162170410156,0.359313964844,0.798706054688,0.454528808594
55361326717,-0.163330078125,0.359619140625,0.798400878906,0.454345703125
55361349248,-0.163940429688,0.359985351562,0.798400878906,0.453918457031
55361370402,-0.164489746094,0.359924316406,0.798400878906,0.453735351562
55361386723,-0.164855957031,0.359741210938,0.798461914062,0.45361328125
55361409274,-0.164978027344,0.359680175781,0.79833984375,0.453796386719
55361430358,-0.165161132812,0.359741210938,0.798034667969,0.454284667969
55361446718,-0.165344238281,0.359375,0.797912597656,0.454711914062
55361469176,-0.165100097656,0.358703613281,0.797973632812,0.455139160156
55361490419,-0.164245605469,0.358520507812,0.798095703125,0.455444335938
55361507212,-0.163818359375,0.358337402344,0.798156738281,0.45556640625
55361529210,-0.16357421875,0.358337402344,0.798217773438,0.455627441406
55361550349,-0.163879394531,0.358032226562,0.798034667969,0.4560546875
55361566746,-0.163696289062,0.35791015625,0.798095703125,0.456115722656
55361589214,-0.163757324219,0.357788085938,0.798034667969,0.456359863281
55361610281,-0.164001464844,0.357543945312,0.798034667969,0.456481933594
55361626766,-0.163940429688,0.357299804688,0.798095703125,0.456481933594
55361649199,-0.163940429688,0.357299804688,0.798095703125,0.456481933594
55361670446,-0.164367675781,0.357177734375,0.798095703125,0.456420898438
55361686702,-0.164428710938,0.357055664062,0.798278808594,0.456237792969
55361709252,-0.164184570312,0.356689453125,0.798583984375,0.456115722656
55361731722,-0.163940429688,0.356506347656,0.798522949219,0.456420898438
55361746671,-0.164123535156,0.356323242188,0.798461914062,0.456604003906
55361769244,-0.163818359375,0.356140136719,0.798706054688,0.456359863281
55361791716,-0.163879394531,0.355834960938,0.798706054688,0.456604003906
55361806769,-0.163818359375,0.355712890625,0.798767089844,0.456665039062
55361829266,-0.163818359375,0.355529785156,0.798889160156,0.456604003906
55361851720,-0.163940429688,0.355041503906,0.798950195312,0.456787109375
55361866769,-0.163696289062,0.354919433594,0.799072265625,0.456726074219
55361889267,-0.163452148438,0.355041503906,0.799011230469,0.456787109375
55361919241,-0.163269042969,0.35498046875,0.799072265625,0.456909179688
55361926086,-0.162841796875,0.354736328125,0.799255371094,0.456848144531
55361949266,-0.16259765625,0.3544921875,0.799377441406,0.456909179688
55361971668,-0.162536621094,0.354431152344,0.79931640625,0.457092285156
55361986154,-0.162475585938,0.354370117188,0.799377441406,0.457092285156
55362009319,-0.162231445312,0.354248046875,0.799438476562,0.457153320312
55362031716,-0.161804199219,0.354248046875,0.799560546875,0.457092285156
55362046040,-0.161499023438,0.3544921875,0.799621582031,0.456970214844
55362069170,-0.161254882812,0.354553222656,0.7998046875,0.456665039062
55362091720,-0.160827636719,0.354248046875,0.800170898438,0.456359863281
55362106019,-0.160400390625,0.354187011719,0.800354003906,0.456298828125
55362129190,-0.159545898438,0.353820800781,0.800537109375,0.456481933594
55362151731,-0.158386230469,0.3525390625,0.801452636719,0.456298828125
55362166077,-0.157348632812,0.350769042969,0.802612304688,0.455932617188
55362195262,-0.156311035156,0.348327636719,0.803833007812,0.4560546875
55362211727,-0.154602050781,0.34619140625,0.805053710938,0.4560546875
55362234249,-0.152404785156,0.343994140625,0.806579589844,0.455871582031
55362249248,-0.150390625,0.340942382812,0.808227539062,0.455932617188
55362271674,-0.148132324219,0.337524414062,0.809753417969,0.456481933594
55362292850,-0.145629882812,0.334289550781,0.810852050781,0.457702636719
55362309274,-0.142517089844,0.330627441406,0.812255859375,0.458801269531
55362331716,-0.138854980469,0.3271484375,0.813842773438,0.459655761719
55362352909,-0.135498046875,0.32373046875,0.815246582031,0.460571289062
55362369185,-0.132141113281,0.319702148438,0.816711425781,0.461730957031
55362391722,-0.128356933594,0.314758300781,0.818603515625,0.462890625
55362412942,-0.12353515625,0.309509277344,0.820678710938,0.464050292969
55362429716,-0.117309570312,0.305114746094,0.822509765625,0.46533203125
55362451731,-0.110717773438,0.301086425781,0.824340820312,0.466369628906
55362472971,-0.103637695312,0.296081542969,0.826904296875,0.466613769531
55362489192,-0.0965576171875,0.289916992188,0.830078125,0.466430664062
55362511696,-0.089111328125,0.284118652344,0.832702636719,0.466735839844
55362532768,-0.0803833007812,0.2802734375,0.834594726562,0.467224121094
55362548551,-0.0709838867188,0.276794433594,0.836791992188,0.466979980469
55362571674,-0.0620727539062,0.272888183594,0.839538574219,0.465576171875
55362592770,-0.0532836914062,0.267944335938,0.842468261719,0.464172363281
55362609159,-0.0440673828125,0.26318359375,0.845031738281,0.463317871094
55362631745,-0.0340576171875,0.260925292969,0.846801757812,0.462158203125
55362652843,-0.0244140625,0.258850097656,0.848754882812,0.460327148438
55362668545,-0.0157470703125,0.255493164062,0.851013183594,0.458435058594
55362691714,-0.00738525390625,0.251403808594,0.853332519531,0.456665039062
55362714261,0.002197265625,0.248107910156,0.855224609375,0.454895019531
55362728563,0.0118408203125,0.246459960938,0.856689453125,0.452880859375
55362752197,0.0211181640625,0.245422363281,0.858154296875,0.450378417969
55362774197,0.0302124023438,0.243347167969,0.859619140625,0.448059082031
55362788559,0.0390625,0.240478515625,0.861328125,0.44580078125
55362811760,0.0479125976562,0.238586425781,0.862548828125,0.443542480469
55362834214,0.0565185546875,0.23681640625,0.863464355469,0.441650390625
55362848518,0.0653076171875,0.234558105469,0.864379882812,0.439758300781
55362871744,0.0740966796875,0.232849121094,0.865112304688,0.437866210938
55362894243,0.0830688476562,0.231994628906,0.865661621094,0.435668945312
55362908495,0.0918579101562,0.231750488281,0.866149902344,0.43310546875
55362932191,0.099853515625,0.229553222656,0.86669921875,0.431335449219
55362954244,0.107299804688,0.226440429688,0.867248535156,0.430053710938
55362975383,0.114501953125,0.223327636719,0.867858886719,0.428649902344
55362991755,0.121520996094,0.220947265625,0.868225097656,0.427124023438
55363014242,0.128173828125,0.219970703125,0.868408203125,0.425354003906
55363035302,0.133605957031,0.218505859375,0.86865234375,0.423950195312
55363051747,0.137817382812,0.216796875,0.869140625,0.422485351562
55363074180,0.140991210938,0.216003417969,0.869506835938,0.421020507812
55363095254,0.142944335938,0.216552734375,0.869689941406,0.419738769531
55363111682,0.144348144531,0.217102050781,0.869995117188,0.41845703125
55363134184,0.145874023438,0.216796875,0.870422363281,0.417114257812
55363148544,0.147888183594,0.216796875,0.870788574219,0.415649414062
55363171720,0.150512695312,0.217529296875,0.870910644531,0.4140625
55363194236,0.153198242188,0.218811035156,0.870849609375,0.41259765625
55363215349,0.155700683594,0.219604492188,0.870727539062,0.411376953125
55363231782,0.157958984375,0.219421386719,0.870788574219,0.410461425781
55363254240,0.159973144531,0.219116210938,0.870910644531,0.409606933594
55363275342,0.161499023438,0.219421386719,0.870849609375,0.409057617188
55363293168,0.162841796875,0.2197265625,0.870544433594,0.408996582031
55363314195,0.164001464844,0.219665527344,0.870300292969,0.409118652344
55363335378,0.165283203125,0.218933105469,0.870178222656,0.409118652344
55363351777,0.166625976562,0.218017578125,0.870239257812,0.408996582031
55363374202,0.168273925781,0.217529296875,0.8701171875,0.408813476562
55363395346,0.169311523438,0.216613769531,0.870361328125,0.408447265625
55363411703,0.170776367188,0.217224121094,0.870178222656,0.407836914062
55363434255,0.172241210938,0.218017578125,0.869934082031,0.407287597656
55363455366,0.173461914062,0.218933105469,0.869567871094,0.407104492188
55363471720,0.173950195312,0.219604492188,0.869323730469,0.407043457031
55363494226,0.174499511719,0.220336914062,0.869140625,0.406860351562
55363515240,0.1748046875,0.220581054688,0.868957519531,0.406860351562
55363531677,0.174865722656,0.220581054688,0.868896484375,0.407104492188
55363554175,0.174865722656,0.220825195312,0.868713378906,0.407287597656
55363582752,0.174926757812,0.221069335938,0.868591308594,0.407470703125
55363591687,0.174926757812,0.221252441406,0.868469238281,0.407592773438
55363614160,0.1748046875,0.221252441406,0.868347167969,0.407897949219
55363636722,0.174621582031,0.221008300781,0.868347167969,0.408081054688
55363651746,0.174621582031,0.220947265625,0.868347167969,0.408081054688
55363681743,0.174438476562,0.220886230469,0.868408203125,0.408081054688
55363696718,0.174499511719,0.220947265625,0.868408203125,0.408081054688
55363711721,0.174499511719,0.220947265625,0.868408203125,0.408081054688
55363734176,0.174499511719,0.220886230469,0.868408203125,0.408081054688
55363756783,0.17431640625,0.220520019531,0.868530273438,0.408081054688
55363771714,0.174133300781,0.220275878906,0.868591308594,0.408203125
55363794234,0.174133300781,0.220275878906,0.868591308594,0.408203125
55363816721,0.174011230469,0.220031738281,0.868591308594,0.408325195312
55363830994,0.173645019531,0.219665527344,0.86865234375,0.408569335938
55363853989,0.17333984375,0.219360351562,0.86865234375,0.408813476562
55363876749,0.173156738281,0.219116210938,0.86865234375,0.409057617188
55363891029,0.172973632812,0.218811035156,0.868713378906,0.409240722656
55363914224,0.172790527344,0.218627929688,0.86865234375,0.409545898438
55363936721,0.172668457031,0.218383789062,0.868591308594,0.409851074219
55363951001,0.172668457031,0.218139648438,0.868530273438,0.410095214844
55363974179,0.172607421875,0.218078613281,0.868469238281,0.410278320312
55363996698,0.172546386719,0.218078613281,0.868469238281,0.410339355469
55364011023,0.172546386719,0.218078613281,0.868469238281,0.410339355469
55364034172,0.172668457031,0.217956542969,0.868408203125,0.410461425781
55364056729,0.172668457031,0.217956542969,0.868408203125,0.410461425781
55364071040,0.172668457031,0.217895507812,0.868408203125,0.410461425781
55364095046,0.172668457031,0.217895507812,0.868408203125,0.410461425781
55364116684,0.172607421875,0.217712402344,0.868347167969,0.410705566406
55364139198,0.172607421875,0.217651367188,0.868347167969,0.41064453125
55364154170,0.172607421875,0.217651367188,0.868408203125,0.410705566406
55364176739,0.172607421875,0.217651367188,0.868347167969,0.410705566406
55364197894,0.172607421875,0.217651367188,0.868408203125,0.41064453125
55364214200,0.172607421875,0.217590332031,0.868408203125,0.41064453125
55364236729,0.172607421875,0.217590332031,0.868408203125,0.41064453125
55364257844,0.172546386719,0.217590332031,0.868408203125,0.410705566406
55364274221,0.172546386719,0.217590332031,0.868408203125,0.410705566406
55364279702,0.172546386719,0.217590332031,0.868408203125,0.410705566406
55364302234,0.172546386719,0.217590332031,0.868408203125,0.410705566406
55364327407,0.172546386719,0.217590332031,0.868408203125,0.410705566406
55364339663,0.172485351562,0.217529296875,0.868347167969,0.410888671875
55364362224,0.172485351562,0.217529296875,0.868347167969,0.410888671875
55364399700,0.172424316406,0.217529296875,0.868347167969,0.410888671875
55364422100,0.172424316406,0.217529296875,0.868347167969,0.410888671875
55364440056,0.172485351562,0.217529296875,0.868347167969,0.410888671875
55364459584,0.172424316406,0.217529296875,0.868347167969,0.410888671875
55364482211,0.172485351562,0.217529296875,0.868347167969,0.410827636719
55364499971,0.172424316406,0.217895507812,0.868286132812,0.410766601562
55364519730,0.172607421875,0.21826171875,0.8681640625,0.410705566406
55364542232,0.172607421875,0.218566894531,0.868041992188,0.410827636719
55364560016,0.172485351562,0.218566894531,0.867980957031,0.4111328125
55364579582,0.172180175781,0.218139648438,0.868041992188,0.411315917969
55364603493,0.172119140625,0.218139648438,0.868041992188,0.411376953125
55364619989,0.172119140625,0.218139648438,0.868041992188,0.411376953125
55364647059,0.172119140625,0.218139648438,0.868041992188,0.411376953125
55364662016,0.172119140625,0.218139648438,0.868041992188,0.411376953125
55364679933,0.171936035156,0.217956542969,0.868041992188,0.411560058594
55364699674,0.171936035156,0.217956542969,0.868041992188,0.411560058594
55364722048,0.171875,0.217895507812,0.868041992188,0.411560058594
55364740000,0.171875,0.218139648438,0.867980957031,0.411560058594
55364759684,0.171936035156,0.218322753906,0.867919921875,0.41162109375
55364782070,0.171936035156,0.218322753906,0.867919921875,0.41162109375
55364799933,0.171875,0.218322753906,0.867919921875,0.41162109375
55364819665,0.171875,0.218322753906,0.867919921875,0.41162109375
55364842311,0.171875,0.21826171875,0.867919921875,0.41162109375
55364859996,0.171875,0.21826171875,0.867919921875,0.41162109375
55364879672,0.171875,0.21826171875,0.867919921875,0.41162109375
55364902290,0.171813964844,0.218200683594,0.867919921875,0.41162109375
55364927484,0.171813964844,0.218200683594,0.867919921875,0.41162109375
55364939694,0.171752929688,0.218200683594,0.867919921875,0.41162109375
55364969637,0.171752929688,0.218200683594,0.867919921875,0.41162109375
55364979998,0.171752929688,0.218200683594,0.867919921875,0.41162109375
55364999663,0.171752929688,0.218200683594,0.867980957031,0.41162109375
55365022124,0.171752929688,0.218139648438,0.867980957031,0.411682128906
55365039948,0.171752929688,0.218322753906,0.867919921875,0.41162109375
55365059633,0.171691894531,0.218322753906,0.867919921875,0.41162109375
55365082164,0.171691894531,0.218322753906,0.867919921875,0.41162109375
55365100033,0.171630859375,0.218322753906,0.867919921875,0.41162109375
55365121040,0.171630859375,0.218322753906,0.867919921875,0.411682128906
55365142074,0.171752929688,0.218383789062,0.867858886719,0.411682128906
