55462107926,0.155090332031,0.175109863281,0.837890625,0.493041992188
55462130626,0.155090332031,0.175109863281,0.837890625,0.493041992188
55462154434,0.154846191406,0.175048828125,0.837951660156,0.493041992188
55462169228,0.155822753906,0.175903320312,0.837768554688,0.492736816406
55462175609,0.151611328125,0.182250976562,0.836364746094,0.494140625
55462199252,0.150390625,0.182678222656,0.836303710938,0.494445800781
55462220671,0.148986816406,0.183471679688,0.836181640625,0.494812011719
55462235699,0.147827148438,0.184814453125,0.835876464844,0.4951171875
55462259280,0.147583007812,0.185852050781,0.835632324219,0.495239257812
55462305089,0.148620605469,0.185668945312,0.835632324219,0.494995117188
55462307162,0.154113769531,0.180603027344,0.836791992188,0.493286132812
55462319241,0.15625,0.175659179688,0.838012695312,0.492309570312
55462336931,0.153381347656,0.175231933594,0.83837890625,0.492736816406
55462356949,0.154602050781,0.171569824219,0.839416503906,0.491882324219
55462387376,0.154113769531,0.172180175781,0.839538574219,0.491577148438
55462432039,0.154235839844,0.172607421875,0.839538574219,0.491455078125
55462440534,0.154174804688,0.173034667969,0.839538574219,0.491271972656
55462441402,0.154174804688,0.173400878906,0.839538574219,0.4912109375
55462454350,0.153869628906,0.173889160156,0.839416503906,0.491333007812
55462475999,0.158874511719,0.174621582031,0.8388671875,0.490356445312
55462497857,0.154174804688,0.176208496094,0.838684082031,0.491638183594
55462515756,0.149475097656,0.178771972656,0.838134765625,0.493041992188
55462535385,0.144714355469,0.183776855469,0.836975097656,0.49462890625
55462557870,0.143310546875,0.188232421875,0.835876464844,0.495239257812
55462575795,0.146850585938,0.188171386719,0.835815429688,0.494323730469
55462595357,0.152954101562,0.183349609375,0.836791992188,0.492614746094
55462617837,0.156127929688,0.178100585938,0.838012695312,0.491394042969
55462635757,0.154357910156,0.17724609375,0.838562011719,0.491455078125
55462655393,0.150024414062,0.180908203125,0.838134765625,0.492126464844
55462677988,0.148376464844,0.181518554688,0.838562011719,0.491638183594
55462700362,0.1484375,0.18359375,0.838256835938,0.491394042969
55462715363,0.147644042969,0.185119628906,0.838012695312,0.491516113281
55462738016,0.146179199219,0.187377929688,0.837463378906,0.492065429688
55462755790,0.144775390625,0.191223144531,0.836608886719,0.492370605469
55462775480,0.142578125,0.19287109375,0.8359375,0.493530273438
55462797908,0.140686035156,0.192626953125,0.835632324219,0.494689941406
55462815792,0.139404296875,0.192199707031,0.835388183594,0.49560546875
55462835497,0.137512207031,0.192016601562,0.835144042969,0.49658203125
55462858038,0.1357421875,0.19287109375,0.835021972656,0.497009277344
55462875819,0.133117675781,0.193725585938,0.8349609375,0.497497558594
55462896824,0.129272460938,0.194641113281,0.834777832031,0.498413085938
55462925376,0.125305175781,0.196594238281,0.834594726562,0.4990234375
55462935755,0.121032714844,0.199340820312,0.834167480469,0.499633789062
55462956811,0.115844726562,0.2021484375,0.833618164062,0.500732421875
55462977909,0.109313964844,0.203918457031,0.833435058594,0.501770019531
55463000483,0.102233886719,0.205993652344,0.833312988281,0.502624511719
55463016813,0.0953369140625,0.208679199219,0.832885742188,0.503540039062
55463038045,0.0884399414062,0.212280273438,0.831970214844,0.504821777344
55463055832,0.081298828125,0.216552734375,0.830749511719,0.506225585938
55463078248,0.0735473632812,0.22119140625,0.829467773438,0.507507324219
55463097974,0.0654296875,0.225463867188,0.828063964844,0.508972167969
55463115814,0.05712890625,0.229675292969,0.82666015625,0.510375976562
55463136838,0.0491333007812,0.234436035156,0.825012207031,0.51171875
55463157849,0.0411987304688,0.239318847656,0.823181152344,0.51318359375
55463175826,0.0330200195312,0.243896484375,0.8212890625,0.514587402344
55463204332,0.0248413085938,0.248291015625,0.819396972656,0.515930175781
55463218013,0.0166625976562,0.252685546875,0.8173828125,0.517395019531
55463235815,0.00872802734375,0.25732421875,0.815246582031,0.518676757812
55463258343,0.00115966796875,0.26220703125,0.813110351562,0.519653320312
55463277939,-0.00640869140625,0.266296386719,0.810974121094,0.520812988281
55463295788,-0.0139770507812,0.270202636719,0.808959960938,0.521789550781
55463318287,-0.0210571289062,0.274353027344,0.807006835938,0.5224609375
55463337968,-0.0277709960938,0.278198242188,0.80517578125,0.522827148438
55463355760,-0.0342407226562,0.281860351562,0.803466796875,0.523132324219
55463378348,-0.0405883789062,0.285095214844,0.801940917969,0.523376464844
55463397894,-0.04638671875,0.288513183594,0.800231933594,0.523559570312
55463421150,-0.0521240234375,0.292358398438,0.798522949219,0.523498535156
55463437442,-0.0574340820312,0.296020507812,0.797119140625,0.523071289062
55463459959,-0.0626831054688,0.299865722656,0.795776367188,0.522338867188
55463482466,-0.0680541992188,0.30322265625,0.79443359375,0.521789550781
55463497425,-0.0723876953125,0.307189941406,0.79296875,0.521057128906
55463519953,-0.0765991210938,0.31103515625,0.791809082031,0.519958496094
55463541121,-0.0805053710938,0.314392089844,0.790771484375,0.518859863281
55463557470,-0.0835571289062,0.317443847656,0.790405273438,0.51708984375
55463579993,-0.0862426757812,0.3203125,0.789978027344,0.515502929688
55463602476,-0.0891723632812,0.323181152344,0.7890625,0.514709472656
55463617426,-0.0916137695312,0.326232910156,0.788269042969,0.513549804688
55463639985,-0.0932006835938,0.328979492188,0.787780761719,0.512268066406
55463661147,-0.0950927734375,0.330932617188,0.787475585938,0.511108398438
55463676824,-0.0971069335938,0.332641601562,0.787536621094,0.509521484375
55463701445,-0.0986938476562,0.334899902344,0.78759765625,0.507690429688
55463721118,-0.101867675781,0.336608886719,0.787292480469,0.506286621094
55463736803,-0.104919433594,0.338989257812,0.786682128906,0.505065917969
55463760458,-0.107238769531,0.341003417969,0.786376953125,0.503662109375
55463782489,-0.109924316406,0.343383789062,0.785705566406,0.502563476562
55463796782,-0.11279296875,0.346374511719,0.784790039062,0.501342773438
55463819939,-0.116149902344,0.34912109375,0.783813476562,0.500183105469
55463842455,-0.11962890625,0.351684570312,0.782653808594,0.499450683594
55463856810,-0.122436523438,0.3544921875,0.781311035156,0.498840332031
55463880035,-0.124694824219,0.356994628906,0.779907226562,0.498657226562
55463902449,-0.126281738281,0.359008789062,0.778503417969,0.498962402344
55463916827,-0.12646484375,0.359985351562,0.777404785156,0.5
55463939971,-0.124816894531,0.360107421875,0.776245117188,0.502136230469
55463962400,-0.120849609375,0.359252929688,0.775695800781,0.504516601562
55463977200,-0.115661621094,0.356323242188,0.776306152344,0.506896972656
55463999957,-0.110168457031,0.352111816406,0.777709960938,0.508850097656
55464022398,-0.105773925781,0.349182128906,0.778869628906,0.510009765625
55464043460,-0.102844238281,0.347717285156,0.77978515625,0.51025390625
55464059958,-0.101806640625,0.346557617188,0.780700683594,0.509826660156
55464082542,-0.101928710938,0.34619140625,0.781372070312,0.509033203125
55464103458,-0.102722167969,0.346618652344,0.781921386719,0.507690429688
55464119900,-0.103698730469,0.346862792969,0.782348632812,0.506713867188
55464142469,-0.104187011719,0.347229003906,0.782592773438,0.506042480469
55464156800,-0.104614257812,0.347839355469,0.782470703125,0.505676269531
55464179967,-0.104858398438,0.34814453125,0.782531738281,0.50537109375
55464202488,-0.1044921875,0.347473144531,0.782592773438,0.505737304688
55464216864,-0.103759765625,0.347229003906,0.782409667969,0.506408691406
55464239973,-0.103332519531,0.347778320312,0.78173828125,0.507141113281
55464268673,-0.10302734375,0.34765625,0.781494140625,0.507629394531
55464283628,-0.102661132812,0.347106933594,0.781372070312,0.50830078125
55464300043,-0.102172851562,0.347229003906,0.781005859375,0.508850097656
55464322467,-0.101867675781,0.347534179688,0.780639648438,0.509216308594
55464343660,-0.102111816406,0.34716796875,0.780700683594,0.509399414062
55464359974,-0.102172851562,0.346923828125,0.780578613281,0.509704589844
55464382556,-0.10205078125,0.346984863281,0.780456542969,0.509887695312
55464403628,-0.102111816406,0.347045898438,0.7802734375,0.510070800781
55464419965,-0.102172851562,0.346923828125,0.780334472656,0.510009765625
55464442447,-0.102416992188,0.346557617188,0.780334472656,0.51025390625
55464463551,-0.101928710938,0.346496582031,0.780395507812,0.510314941406
55464479928,-0.101745605469,0.346435546875,0.780334472656,0.510498046875
55464502424,-0.1015625,0.346313476562,0.780395507812,0.510559082031
55464523721,-0.101501464844,0.346069335938,0.780578613281,0.510437011719
55464547467,-0.101501464844,0.345642089844,0.780700683594,0.510559082031
55464562453,-0.101196289062,0.345031738281,0.781005859375,0.510559082031
55464591151,-0.100891113281,0.344665527344,0.781066894531,0.510803222656
55464599965,-0.101013183594,0.344116210938,0.78125,0.510803222656
55464622500,-0.100952148438,0.343566894531,0.781494140625,0.510803222656
55464643632,-0.100402832031,0.343017578125,0.781799316406,0.510864257812
55464659961,-0.0999755859375,0.342529296875,0.782043457031,0.510864257812
55464682490,-0.0995483398438,0.341613769531,0.782470703125,0.510925292969
55464704954,-0.098876953125,0.3408203125,0.782775878906,0.511108398438
55464719961,-0.0980834960938,0.340209960938,0.783081054688,0.51123046875
55464742540,-0.097412109375,0.339477539062,0.783386230469,0.511352539062
55464764928,-0.0968627929688,0.338745117188,0.783569335938,0.51171875
55464779999,-0.0962524414062,0.33837890625,0.783569335938,0.511962890625
55464802488,-0.0957641601562,0.337707519531,0.783935546875,0.511962890625
55464824921,-0.0952758789062,0.336853027344,0.7841796875,0.51220703125
55464839975,-0.0946655273438,0.336120605469,0.784423828125,0.512512207031
55464868593,-0.0940551757812,0.335327148438,0.784729003906,0.5126953125
55464884948,-0.093505859375,0.334411621094,0.785095214844,0.512756347656
55464899415,-0.093017578125,0.333374023438,0.785522460938,0.512878417969
55464922479,-0.0919799804688,0.331848144531,0.786315917969,0.512878417969
55464944922,-0.0906372070312,0.330200195312,0.787109375,0.512939453125
55464959249,-0.0895385742188,0.328674316406,0.7880859375,0.512634277344
55464982786,-0.0877075195312,0.326965332031,0.789245605469,0.512268066406
55465004964,-0.0858764648438,0.325073242188,0.790222167969,0.51220703125
55465019283,-0.0840454101562,0.324035644531,0.790832519531,0.512268066406
55465042493,-0.0823974609375,0.323425292969,0.791137695312,0.512512207031
55465064971,-0.080078125,0.321960449219,0.792053222656,0.512329101562
55465086051,-0.0770874023438,0.31982421875,0.793579101562,0.511779785156
55465102442,-0.0739135742188,0.317321777344,0.795043945312,0.511535644531
55465124919,-0.0711669921875,0.315490722656,0.795776367188,0.511901855469
55465147467,-0.0679931640625,0.314697265625,0.79638671875,0.511840820312
55465162443,-0.0647583007812,0.3125,0.797912597656,0.51123046875
55465184938,-0.0608520507812,0.309692382812,0.799865722656,0.510375976562
55465206007,-0.0567626953125,0.306701660156,0.801391601562,0.510314941406
55465222467,-0.0528564453125,0.305358886719,0.8017578125,0.510925292969
55465244940,-0.04833984375,0.304870605469,0.80224609375,0.510864257812
55465266059,-0.0445556640625,0.301940917969,0.803833007812,0.510437011719
55465282488,-0.0405883789062,0.298217773438,0.8056640625,0.510070800781
55465304936,-0.0361938476562,0.294677734375,0.806945800781,0.510498046875
55465333517,-0.0310668945312,0.293334960938,0.807250976562,0.511108398438
55465342442,-0.0256958007812,0.292236328125,0.807922363281,0.511047363281
55465364944,-0.0208740234375,0.289428710938,0.809448242188,0.510375976562
55465386101,-0.0161743164062,0.286071777344,0.810913085938,0.510070800781
55465402418,-0.0110473632812,0.28271484375,0.81201171875,0.510375976562
55465425410,-0.0054931640625,0.279968261719,0.812866210938,0.510620117188
55465445972,0.00018310546875,0.277404785156,0.813842773438,0.510498046875
55465462453,0.00555419921875,0.2744140625,0.814880371094,0.510437011719
55465484964,0.0111083984375,0.271118164062,0.81591796875,0.510498046875
55465505971,0.017333984375,0.267150878906,0.817138671875,0.510437011719
55465522397,0.0238647460938,0.26318359375,0.818420410156,0.510131835938
55465544902,0.030517578125,0.259887695312,0.819580078125,0.509643554688
55465566115,0.0372314453125,0.257141113281,0.820495605469,0.509094238281
55465581781,0.0440673828125,0.254211425781,0.821533203125,0.508361816406
55465604922,0.050537109375,0.250427246094,0.822692871094,0.507751464844
55465625957,0.0569458007812,0.24609375,0.823913574219,0.507202148438
55465641741,0.0633544921875,0.2421875,0.824951171875,0.506591796875
55465664913,0.0701293945312,0.239074707031,0.825744628906,0.505920410156
55465687523,0.0765991210938,0.236267089844,0.826477050781,0.505126953125
55465702246,0.0822143554688,0.233215332031,0.827270507812,0.504333496094
55465724973,0.087646484375,0.22998046875,0.828063964844,0.503601074219
55465747419,0.0927124023438,0.226501464844,0.828735351562,0.503173828125
55465761797,0.0978393554688,0.223327636719,0.829223632812,0.502807617188
55465784943,0.102844238281,0.221008300781,0.82958984375,0.502258300781
55465807381,0.107055664062,0.218933105469,0.829833984375,0.501892089844
55465821829,0.110473632812,0.216613769531,0.830139160156,0.501708984375
55465844972,0.113525390625,0.213806152344,0.830383300781,0.501708984375
55465867471,0.116638183594,0.211486816406,0.830627441406,0.501586914062
55465881763,0.119934082031,0.209899902344,0.830627441406,0.501586914062
55465904986,0.123046875,0.208435058594,0.830505371094,0.501586914062
55465933628,0.1259765625,0.206848144531,0.830505371094,0.501525878906
55465948532,0.129150390625,0.204711914062,0.830627441406,0.501342773438
55465964942,0.132629394531,0.202941894531,0.830810546875,0.500854492188
55465987419,0.135437011719,0.201354980469,0.8310546875,0.500427246094
55466008498,0.137756347656,0.199645996094,0.831237792969,0.500122070312
55466024965,0.139587402344,0.197937011719,0.83154296875,0.499816894531
55466047438,0.141418457031,0.196716308594,0.831787109375,0.499389648438
55466061770,0.143676757812,0.195739746094,0.831970214844,0.498779296875
55466069273,0.145935058594,0.195068359375,0.832092285156,0.498168945312
55466090420,0.147644042969,0.193664550781,0.832458496094,0.49755859375
55466112784,0.149475097656,0.191650390625,0.833251953125,0.496520996094
55466129261,0.151672363281,0.189697265625,0.834045410156,0.495178222656
55466150279,0.154663085938,0.189270019531,0.83447265625,0.493774414062
55466172814,0.157470703125,0.189880371094,0.834594726562,0.492431640625
55466189267,0.159423828125,0.189697265625,0.834655761719,0.491821289062
55466211743,0.161010742188,0.188293457031,0.834838867188,0.491455078125
55466232866,0.161743164062,0.186645507812,0.835205078125,0.4912109375
55466256793,0.161926269531,0.185791015625,0.83544921875,0.491149902344
55466270461,0.162475585938,0.185668945312,0.835388183594,0.491088867188
55466292948,0.163269042969,0.186279296875,0.8349609375,0.491271972656
55466309290,0.163940429688,0.186706542969,0.834411621094,0.491821289062
55466330515,0.164184570312,0.186645507812,0.833984375,0.492553710938
55466355700,0.1640625,0.186279296875,0.833740234375,0.4931640625
55466369239,0.163696289062,0.185607910156,0.833557128906,0.493774414062
55466390428,0.163269042969,0.184875488281,0.833374023438,0.494506835938
55466412926,0.163024902344,0.184387207031,0.833190917969,0.4951171875
55466429268,0.162780761719,0.18408203125,0.8330078125,0.495544433594
55466450373,0.162475585938,0.183776855469,0.832824707031,0.496032714844
55466472948,0.162109375,0.183532714844,0.832641601562,0.496643066406
55466490762,0.161987304688,0.183349609375,0.832458496094,0.4970703125
55466510435,0.161682128906,0.18310546875,0.832275390625,0.49755859375
55466534217,0.161499023438,0.182922363281,0.832153320312,0.497924804688
55466549229,0.161376953125,0.1826171875,0.832092285156,0.498168945312
55466570397,0.161254882812,0.182312011719,0.83203125,0.498413085938
55466592895,0.161193847656,0.181945800781,0.831970214844,0.498657226562
55466610714,0.161193847656,0.181701660156,0.831909179688,0.498840332031
55466630366,0.161193847656,0.181701660156,0.831909179688,0.498840332031
55466652981,0.161193847656,0.181701660156,0.831909179688,0.498840332031
55466670754,0.161193847656,0.181701660156,0.831909179688,0.498840332031
55466690416,0.1611328125,0.181396484375,0.831848144531,0.4990234375
