55462312542,0,1,4,4,4,2,2,1
55462312542,-1,1,0,-2,0,0,-1,0
55462313284,-5,-7,-6,-5,-6,-7,-5,-4
55462313284,12,-5,0,2,-1,0,-1,4
55462314094,2,-4,0,1,-1,0,-1,0
55462314094,-6,-5,-6,-4,-4,-3,-4,-5
55462314983,3,-5,-4,1,-1,0,1,2
55462314983,-4,0,0,-1,1,1,2,-1
55462325491,-4,-3,-4,-4,-4,-4,-3,-7
55462325491,-1,-4,-4,-2,-1,-4,-3,-2
55462334852,-3,1,1,3,1,-2,0,-1
55462334852,-2,-1,-3,-3,-3,-4,-4,-3
55462340510,-4,-5,-7,-4,-5,-2,-3,-1
55462340510,2,-1,2,2,1,1,-1,-3
55462356228,0,2,0,0,-1,2,0,-2
55462356228,-4,-1,-5,-3,-5,-2,-2,-1
55462371780,9,0,-2,1,-1,-1,-2,2
55462371780,15,2,1,2,1,-1,2,6
55462378017,11,0,-2,-3,1,-2,0,3
55462378017,-5,-1,-2,-1,-1,-3,-1,-3
55462389503,-3,-1,0,0,1,1,0,1
55462389503,-13,-3,-2,-1,-2,-1,3,3
55462401584,-5,-1,-2,-10,-2,-3,-2,-3
55462401584,2,-2,-2,-5,1,-1,-1,0
55462442158,-5,-6,-5,2,-4,-6,-7,-2
55462442158,5,2,2,8,3,1,1,-2
55462442961,0,0,2,3,-1,0,-2,-1
55462442961,-5,-3,-5,-1,-4,-4,-5,-3
55462445957,3,2,1,4,2,2,2,-4
55462445957,-3,1,0,0,1,0,1,1
55462446791,-3,-4,-3,-4,-5,-5,-5,-4
55462446791,0,-4,-2,0,0,-2,-3,0
55462453498,-3,-1,0,1,1,-1,2,0
55462453498,9,-2,-5,-5,-5,-5,-4,-3
55462460288,-4,-2,-4,1,-2,-2,-2,-3
55462460288,-2,-1,3,2,0,-1,-1,1
55462467795,-1,0,-2,1,-2,-2,-4,-1
55462467795,-7,-4,-3,-2,-3,-2,-2,-3
55462482808,-2,-1,0,-1,0,0,-1,2
55462482808,3,0,-1,-2,-3,0,0,-2
55462490311,-2,0,-5,-4,-3,-3,-2,0
55462490311,-4,-3,-3,-3,-3,-2,-2,-1
55462514151,1,0,-2,0,-1,-1,1,0
55462514151,-7,-2,-7,-3,-3,-3,0,-4
55462514934,-2,-2,-1,-3,-2,-3,-1,-1
55462514934,-5,0,-3,-1,-2,-3,0,0
55462528460,-1,-1,-3,-1,-1,-2,-3,-3
55462528460,5,0,-2,1,1,-1,-2,-1
55462529290,-4,-1,-2,-2,1,0,-2,-2
55462529290,-1,-2,-4,-3,-3,-2,-4,-3
55462550960,5,5,-1,9,6,1,3,5
55462550960,-2,-5,-1,-1,-2,-3,-1,-1
55462551721,-6,-5,-5,-10,-10,-4,-5,-6
55462551721,-2,0,-1,7,2,2,1,3
55462574181,1,-3,-1,-1,-2,-4,1,-1
55462574181,-8,-6,-7,-12,-7,-5,-7,-8
55462574965,1,2,-2,3,3,0,3,0
55462574965,-5,-1,0,6,4,1,4,3
55462588491,9,-2,-3,-7,-5,-2,-4,-6
55462588491,-2,3,0,-2,-2,1,0,0
55462589288,4,3,3,5,3,3,3,3
55462589288,-10,-2,0,-2,-2,-2,-1,-1
55462610980,-7,-2,-4,-4,-3,-1,-1,-2
55462610980,0,6,2,8,3,3,1,1
55462611745,0,-3,-1,-3,0,-3,0,3
55462611745,5,0,-2,-11,-4,-2,-1,-3
55462634133,-5,0,0,-3,0,1,0,2
55462634133,2,3,2,6,5,4,1,1
55462634920,-13,-4,0,-4,-1,2,-3,-3
55462634920,12,1,-2,-1,-2,2,-4,-1
55462648925,-26,-6,1,2,0,-1,1,0
55462648925,3,-2,-1,-4,-4,-3,-1,3
55462649720,-3,-1,2,2,-3,0,0,-3
55462649720,1,1,0,2,1,-1,2,2
55462671092,6,-2,-1,0,0,-1,1,-1
55462671092,10,-1,-4,-2,-3,-1,-2,1
55462671803,-3,-1,-4,-1,-3,-2,-1,-3
55462671803,14,0,4,-1,-2,0,-1,0
55462693436,1,0,-4,-7,-4,-1,-2,1
55462693436,-1,-1,5,4,4,4,2,-1
55462694253,14,4,-2,-2,0,0,-1,1
55462694253,-7,-5,-1,-4,-2,-1,-1,-2
55462708458,4,6,0,0,-1,0,-3,3
55462708458,-26,-12,-3,-3,-1,-1,-1,-2
55462709264,14,8,1,-3,-3,-3,-2,0
55462709264,-2,4,5,-2,-1,3,-2,-2
55462731014,8,6,1,-5,-4,-4,0,-1
55462731014,-12,-2,-9,-4,-2,-2,0,2
55462731739,-3,-22,-1,6,2,1,-3,-2
55462731739,-4,17,-1,-5,-2,-3,-1,-3
55462754397,-11,-26,-4,-2,-2,-1,-5,-2
55462754397,8,-5,-4,-5,-3,0,-1,-3
55462754949,-9,-3,9,2,1,-2,2,1
55462754949,3,5,-7,6,0,-4,-2,-1
55462768647,-8,20,5,-2,1,0,-1,-1
55462768647,1,-4,0,-12,-2,-2,1,0
55462769311,-1,-5,0,7,1,1,-1,1
55462769311,-1,1,5,5,2,0,-2,-5
55462791147,12,17,4,3,0,2,-1,-3
55462791147,-9,-1,-4,-4,-4,1,-3,1
55462791780,-8,18,4,-8,-3,0,-1,1
55462791780,-9,-43,-5,-3,-3,-2,1,1
55462814184,0,7,2,3,3,-1,2,1
55462814184,30,53,10,0,-1,-4,0,-1
55462814945,-28,-52,-12,-7,-3,-2,0,-6
55462814945,-9,-17,-9,-1,-2,0,0,0
55462828530,-6,-20,-9,-5,0,3,-1,-2
55462828530,1,0,0,-4,-10,-5,-4,-5
55462829265,17,20,16,20,13,3,1,3
55462829265,5,25,3,-4,-3,-2,1,1
55462851096,-4,-25,3,7,0,-2,-2,-2
55462851096,-5,7,-10,0,-2,-1,0,-2
55462851777,0,-5,-3,-5,-5,-1,0,0
55462851777,-10,21,9,-2,-2,-5,-5,-2
55462874306,12,-42,1,5,0,-4,-4,-2
55462874306,15,31,10,7,8,1,1,3
55462874967,-32,-47,-20,-5,-1,0,-3,-6
55462874967,-9,-12,-2,-9,-5,-2,-3,-4
55462887889,16,23,-1,3,1,3,4,4
55462887889,-14,-43,-4,2,-2,0,-3,-1
55462896076,1,2,2,-7,-7,-3,-2,-1
55462896076,4,2,-7,-9,-6,-1,-1,2
55462911164,-7,8,3,10,5,3,0,0
55462911164,-1,-12,2,0,-2,-2,0,-1
55462911806,4,16,-10,-4,4,-2,-1,-2
55462911806,11,3,10,5,0,1,0,3
55462934149,-7,-8,-22,-16,-11,-5,-3,-1
55462934149,-1,-7,0,2,2,-1,-3,0
55462934911,13,10,8,5,3,2,2,2
55462934911,4,12,-1,3,-1,0,0,-1
55462947808,-14,-28,-7,-9,-6,-5,-1,-8
55462947808,-1,13,7,1,-11,0,0,0
55462955999,1,5,-10,-5,-4,-3,0,2
55462955999,2,13,8,6,4,-1,-2,0
55462970951,-9,-52,-12,-1,-2,-3,-4,-4
55462970951,-5,-14,3,0,-1,-1,2,1
55462971738,14,36,-4,-4,-3,-1,0,1
55462971738,-6,-18,-1,3,2,0,-3,-3
55462993483,5,45,9,-5,1,0,1,0
55462993483,1,-8,1,13,-4,0,0,0
55462994317,-1,-13,2,-6,-3,-3,-3,-1
55462994317,-2,18,-8,5,9,1,2,-1
55463007947,-1,6,-1,-6,-3,0,1,-2
55463007947,0,-8,-2,-3,-13,2,-2,-1
55463016046,2,8,5,1,-2,-2,1,-2
55463016046,1,6,-1,-4,-4,0,-1,0
55463030967,1,21,9,6,7,2,-1,1
55463030967,-18,-52,-18,-8,5,-2,0,-3
55463031741,0,-10,-10,-3,-9,-2,0,-3
55463031741,-12,-27,-5,-3,1,-3,0,-1
55463054411,21,43,4,-4,-12,-3,-2,0
55463054411,14,8,3,-4,6,1,0,-2
55463054969,-6,5,-5,1,-1,-3,-3,-3
55463054969,-14,-29,-8,3,1,-1,1,0
55463076945,-15,10,13,6,0,3,1,0
55463076945,24,17,-10,-4,24,-1,-2,1
55463077451,4,-3,14,3,1,1,-1,1
55463077451,-1,3,-12,-7,-3,-3,-2,-3
55463091097,-3,7,-3,3,9,-1,-1,1
55463091097,-4,2,1,-4,-6,-2,-2,-1
55463091782,-1,-3,1,2,3,2,0,-1
55463091782,-1,-19,-4,-5,1,2,-2,-2
55463114200,3,17,6,-2,-10,-1,0,-2
55463114200,-10,-35,-9,0,-1,0,-2,-2
55463114993,23,19,3,-1,-2,0,-1,2
55463114993,0,0,5,0,0,2,0,-3
55463127908,-2,2,-4,1,-7,-3,-1,0
55463127908,-9,4,13,4,3,-1,2,0
55463136120,-5,-8,-7,4,-1,-3,-2,-1
55463136120,3,7,0,-4,-6,-2,0,-1
55463151001,-1,-27,0,0,14,-2,-1,2
55463151001,-7,0,-8,-6,5,-2,0,-5
55463151724,-4,-1,-4,-1,-1,-6,0,-3
55463151724,0,10,1,2,-2,0,-1,-5
55463174261,-2,-11,-7,-4,-3,-1,0,0
55463174261,-7,-6,-5,-4,-5,-2,1,1
55463174972,-4,2,1,-4,3,2,-2,-1
55463174972,3,-3,14,13,8,0,1,1
55463187973,-1,-6,1,-6,-4,0,0,0
55463187973,2,26,4,6,-1,1,0,1
55463203692,-8,7,-4,-1,-1,0,-2,-3
55463203692,-6,-3,-3,-6,-3,-3,1,3
55463211140,10,-12,-9,-6,-4,-4,0,0
55463211140,-1,-3,10,13,18,-1,-2,0
55463211772,4,16,4,-2,-1,-4,-1,-7
55463211772,-4,-40,-17,1,-2,1,-1,3
55463234249,-3,-8,4,1,0,-1,-2,-3
55463234249,-4,9,-7,-16,-19,-2,-3,-10
55463234984,-6,-11,1,5,-1,1,0,3
55463234984,7,4,-11,-7,4,-1,-2,-3
55463257500,1,16,-2,4,3,0,-2,-1
55463257500,-4,-17,-2,-4,-8,-2,-1,0
55463257538,4,23,-4,-4,-3,-1,2,6
55463257538,-2,-21,-4,-4,-5,-5,-2,-9
55463271113,-4,-11,1,1,3,1,-1,1
55463271113,-3,21,14,15,5,3,-2,-8
55463271776,-3,-12,-14,-13,-5,-4,-5,-4
55463271776,-5,-19,-5,-5,-6,2,1,12
55463294113,-2,-19,-3,-2,0,-2,2,4
55463294113,7,34,4,5,12,-1,0,-7
55463294924,-6,-32,3,-5,-11,0,-3,-4
55463294924,-4,13,15,-4,-3,-1,-5,-8
55463316920,-3,21,-5,5,-13,0,-2,-5
55463316920,-1,-22,-22,-1,-1,1,2,13
55463317486,4,-36,1,-8,-6,-4,-1,0
55463317486,1,46,5,4,4,-1,0,3
55463331150,-3,12,13,8,4,3,1,0
55463331150,-4,-17,-11,-11,-12,0,-1,-1
55463331793,16,30,11,6,3,1,-2,0
55463331793,-8,-35,2,2,-5,-2,-6,-5
55463354241,12,10,-8,-7,-6,-3,-3,-3
55463354241,-1,1,8,-3,5,-1,1,2
55463354940,-5,-23,-1,6,6,-1,-1,-1
55463354940,-4,-22,-5,0,-18,-1,3,3
55463376886,-5,32,3,-6,14,2,-3,-4
55463376886,0,-8,9,-4,10,0,0,-2
55463377470,0,-3,-4,6,-15,0,1,5
55463377470,7,6,15,8,1,-3,2,3
55463391137,-9,-14,-17,-10,-11,7,0,-10
55463391137,2,2,-1,-1,-11,-16,-4,3
55463391768,-1,13,-6,-3,7,-7,-1,0
55463391768,6,36,-1,-1,4,0,4,7
55463412894,-2,-17,8,6,-4,-2,0,-2
55463412894,0,19,-8,-13,14,-3,-2,12
55463421829,-9,-62,-10,-1,1,5,-3,-20
55463421829,-6,-20,-16,-6,0,-5,-10,-9
55463436638,3,19,22,3,2,4,1,3
55463436638,7,34,2,3,-14,1,3,4
55463438266,1,11,-3,7,-2,-16,-3,1
55463438266,2,-14,-12,-7,-1,-6,-4,-5
55463459138,0,-12,-2,-2,25,6,3,5
55463459138,-10,-30,-5,4,-14,-2,1,-7
55463460759,1,42,14,-5,-7,-3,-1,11
55463460759,-9,-30,-10,-10,-4,-3,-4,-13
55463481715,11,22,3,6,6,-4,-2,2
55463481715,-13,-63,-11,9,-2,1,-1,-4
55463483260,0,33,19,8,12,0,4,6
55463483260,5,36,1,-1,-17,5,0,-4
55463496614,-4,-23,-6,-4,-1,7,0,-10
55463496614,0,25,-5,-10,0,3,-6,-12
55463498244,-9,-13,-1,8,4,-1,-12,-14
55463498244,9,26,2,5,1,-1,7,14
55463519268,-7,9,2,-9,-19,-21,3,11
55463519268,22,78,6,0,7,-13,-5,-5
55463520767,-25,-57,-8,-8,-2,5,8,8
55463520767,17,54,18,1,4,-8,-3,-3
55463532792,-37,-84,-48,-14,3,-4,-6,-10
55463532792,-2,7,-8,-2,-8,6,-1,1
55463541782,6,2,5,4,9,2,0,16
55463541782,-13,-30,13,6,6,0,-5,-23
55463556915,14,39,-4,-7,-2,-4,1,6
55463556915,-32,-34,-19,-13,-9,7,-3,-7
55463558281,2,-12,-2,11,4,-14,-4,-1
55463558281,-4,6,17,2,18,-3,6,4
55463579336,-2,-28,-14,2,25,-6,-4,7
55463579336,6,7,7,-4,-9,10,3,-6
55463580950,-5,37,2,-11,-35,1,-4,-10
55463580950,16,-30,-6,-7,1,6,-5,10
55463601761,-14,25,14,13,-8,0,3,-9
55463601761,-3,-49,-5,-2,-15,-6,-7,-1
55463603290,1,-44,-14,-5,22,8,2,-6
55463603290,-2,104,1,0,15,-6,-3,-3
55463616655,22,38,32,6,-18,6,-2,4
55463616655,-6,-14,2,-6,4,-4,2,9
55463618229,-5,-37,-8,-3,-3,2,3,-4
55463618229,12,12,2,10,0,8,-2,5
55463639228,45,43,25,2,-1,4,1,10
55463639228,-26,32,-7,3,9,-10,-7,-17
55463640784,23,82,14,-3,12,-11,-1,10
55463640784,19,-23,10,-3,1,-1,10,23
55463652902,-39,-32,-26,-18,-27,-10,-19,-48
55463652902,44,22,-1,5,-7,5,4,18
55463661810,-20,25,-6,-2,10,9,-1,-16
55463661810,-58,-47,-41,-6,-19,-10,-6,-19
55463676062,-2,90,64,16,6,2,-7,4
55463676062,14,-5,-30,-11,-13,4,9,13
55463682889,-26,-79,-30,-16,24,13,-1,9
55463682889,8,-52,0,4,-18,15,1,-3
55463700739,1,-19,-14,7,25,-2,1,-5
55463700739,-23,-51,25,10,0,-1,-11,-30
55463702228,42,53,36,16,-20,6,0,1
55463702228,-23,-44,-21,-14,-8,-3,-1,3
55463712846,-3,-73,-17,2,7,6,5,-9
55463712846,3,88,54,16,-1,-2,-2,7
55463721799,24,47,4,-3,-34,-8,1,0
55463721799,5,60,-7,1,34,28,-5,-9
55463736095,43,52,27,-9,5,-10,9,38
55463736095,-19,-34,-58,-22,8,-7,9,4
55463742848,2,96,12,-15,-14,-5,-16,-15
55463742848,21,15,44,22,12,15,1,11
55463759728,33,33,-6,5,-20,-4,-1,6
55463759728,41,42,45,27,16,19,3,18
55463761252,-55,-39,-16,5,20,-20,2,-29
55463761252,-49,-86,-48,-24,-13,0,2,2
55463781684,-57,-73,-62,-19,-16,-6,-2,-6
55463781684,30,13,9,9,-6,-13,-8,-11
55463783277,-15,-80,-33,-1,10,27,7,21
55463783277,3,37,27,-6,-32,-14,-5,-7
55463796116,88,114,71,36,-26,-2,7,22
55463796116,-1,45,-15,-34,-46,-10,-18,-31
55463802931,33,87,54,10,6,-5,2,18
55463802931,-14,-4,-48,-11,3,-13,1,11
55463819245,5,15,4,9,18,1,4,17
55463819245,-3,-38,1,-8,3,-11,1,-8
55463820757,-7,8,38,6,-21,2,-7,-18
55463820757,14,38,-2,-9,-35,-27,-5,-15
55463841825,-30,-24,-17,-6,4,-2,-7,-9
55463841825,-45,-34,-5,6,24,4,5,6
55463843281,22,-28,1,-16,-52,-8,13,15
55463843281,5,48,7,3,21,4,-3,5
55463856009,-6,-30,-7,-6,28,16,4,-6
55463856009,-38,-84,-30,-11,-18,9,-2,-10
55463862794,27,-13,-23,-13,-58,0,-4,-11
55463862794,-1,12,-3,-4,-9,0,-4,-11
55463879289,-21,-13,-35,-23,6,-17,-2,7
55463879289,7,7,15,9,-27,3,12,14
55463880759,8,5,19,18,40,-12,-18,-12
55463880759,-34,-69,-24,-19,19,-12,-18,-29
55463901746,6,-5,5,-7,-16,9,13,24
55463901746,47,115,49,10,-12,9,-10,12
55463903271,-4,51,-68,-24,-20,-3,-6,-13
55463903271,9,14,17,18,-19,-17,-11,1
55463916107,-51,-67,16,1,4,21,15,-6
55463916107,68,-17,7,15,18,17,0,-1
55463922963,-21,-58,6,18,14,7,-8,1
55463922963,63,68,8,1,20,-3,29,17
55463939135,-28,-10,-5,-6,-57,-20,-29,-37
55463939135,-13,12,-21,4,53,-7,12,19
55463940757,51,68,35,14,25,11,7,-6
55463940757,-2,63,-22,10,-19,16,-15,-1
55463961590,-9,54,12,-5,-18,-14,15,0
55463961590,9,41,16,-5,32,-6,-8,-5
55463963185,-40,-10,18,8,36,-21,3,12
55463963185,68,5,-8,-13,-17,1,14,23
55463975986,-23,14,-50,-14,59,3,-21,-42
55463975986,21,26,0,1,-25,-9,6,16
55463982852,33,69,31,0,39,5,-1,10
55463982852,5,99,87,11,24,-4,-1,-18
55463999167,-14,-63,-28,2,-8,-7,-8,-10
55463999167,-7,-10,-1,-12,-15,-5,12,1
55464000748,12,60,26,3,-4,-18,-32,3
55464000748,-76,-128,-35,2,6,9,18,-26
55464021608,-23,-75,-29,-17,-27,-30,-22,9
55464021608,-38,5,2,8,26,10,4,-17
55464023230,-14,-28,-17,-9,11,5,12,19
55464023230,103,127,84,35,-16,22,28,15
55464035776,-66,-57,-56,-24,-17,-6,-21,-57
55464035776,2,-4,-15,-6,-24,0,-3,-3
55464044230,-27,-2,3,11,-2,0,12,-10
55464044230,4,-3,-19,-6,13,-32,-25,-1
55464059163,36,24,40,4,-3,3,6,20
55464059163,-101,-103,-84,-23,13,-15,-20,-45
55464060755,61,101,80,25,-7,7,28,32
55464060755,-64,-111,-89,-20,-15,8,-12,-2
55464081635,23,93,31,-1,2,11,5,2
55464081635,20,3,-9,-9,-23,-19,-11,3
55464083260,1,-43,-31,5,7,10,18,1
55464083260,-90,-100,-59,-31,23,0,-17,-30
55464095314,39,63,15,9,-42,-2,5,15
55464095314,74,55,53,26,21,23,16,31
55464104261,-40,-82,-36,-21,2,-5,-27,-20
55464104261,-9,56,19,16,-12,-9,-3,-8
55464119242,-4,-2,5,-4,-2,7,-5,3
55464119242,-39,-17,-16,-14,-6,-20,-1,-1
55464120734,-3,75,5,-14,-16,-3,9,-7
55464120734,6,-35,1,8,37,-6,-24,9
55464141705,22,10,16,4,14,10,5,18
55464141705,-2,-7,21,6,2,20,4,0
55464143289,-75,-84,-71,-29,-90,9,-14,-26
55464143289,49,74,59,0,-3,2,6,13
55464156166,-32,-71,-84,-18,-20,-7,-4,-9
55464156166,-19,35,23,13,31,-11,28,13
55464162927,-5,-31,-12,0,-10,6,-5,-1
55464162927,21,41,35,25,19,4,3,3
55464179326,9,-48,-2,12,12,14,4,8
55464179326,18,23,1,0,4,-6,-3,1
55464180769,-25,-39,-4,-20,-13,-21,-1,2
55464180769,53,77,40,10,-4,-5,9,-3
55464201887,-6,-19,-43,-8,67,-9,0,-1
55464201887,24,21,-7,-4,-18,-18,-26,1
55464203290,39,21,8,3,10,-3,5,19
55464203290,-8,1,-4,-6,9,0,-14,-27
55464216052,9,81,20,2,-10,-4,11,8
55464216052,24,35,13,-15,-58,-5,-3,-3
55464222819,-12,-56,-63,-8,45,15,9,-4
55464222819,-37,9,2,-2,-12,10,1,8
55464239274,22,28,3,-4,4,2,26,0
55464239274,11,23,51,18,18,3,-3,-11
55464240751,-38,-39,-75,-40,4,-8,-14,-21
55464240751,-5,-71,-45,-9,-6,-2,-1,-3
55464260888,-12,-38,35,8,-42,10,-4,1
55464260888,10,-8,1,-1,43,-13,-13,-20
55464269369,-16,-36,2,-23,-8,-5,11,27
55464269369,-8,-39,-43,-5,-30,-1,5,10
55464275389,34,75,57,18,44,4,-14,-22
55464275389,-11,-50,-13,-6,8,-17,14,10
55464284278,10,23,10,20,-15,8,33,-27
55464284278,23,-1,1,-8,-45,-6,-40,15
55464299159,20,-39,7,2,-8,-8,1,12
55464299159,-19,9,-12,-2,5,-3,-12,-7
55464300732,1,93,62,28,42,1,-7,-14
55464300732,-12,7,-19,-21,-40,-13,14,14
55464321769,13,37,4,17,40,5,5,13
55464321769,-11,-14,-8,-10,-29,12,-4,0
55464323260,31,55,4,-11,-25,-8,-14,7
55464323260,-36,-78,13,2,26,-4,9,9
55464335420,-11,29,19,-17,-41,-24,-12,-9
55464335420,-22,-29,-48,-11,13,-2,2,-2
55464344289,32,90,29,2,-7,2,-10,-3
55464344289,33,53,24,10,0,-3,0,-1
55464359264,-26,-43,-26,-9,20,-17,9,1
55464359264,-27,-85,-35,3,-5,25,4,0
55464360797,-52,-71,-41,-12,-11,-6,-4,-18
55464360797,-5,-30,9,-1,-3,-6,-25,15
55464381684,34,58,27,4,-6,38,-16,-11
55464381684,-3,3,12,-3,-22,0,-2,-7
55464383370,0,-25,8,7,-12,-10,-6,4
55464383370,-4,35,1,5,53,21,34,15
55464395393,-2,-23,-14,-11,-30,1,30,15
55464395393,10,-4,1,2,20,-1,-20,-4
55464404344,10,5,-45,-5,2,4,-3,11
55464404344,-18,11,0,-9,-38,-1,-2,-22
55464419289,24,48,22,6,12,-1,7,7
55464419289,45,102,17,-6,2,5,4,6
55464420788,30,20,27,17,3,-3,-2,2
55464420788,15,-41,-83,-24,-10,-12,7,17
55464441591,-22,0,1,6,18,10,0,-1
55464441591,-17,-67,-21,-3,37,-4,-4,1
55464443217,3,11,18,7,1,-34,-9,-2
55464443217,-8,-1,10,13,28,4,2,-3
55464455260,2,-9,3,5,1,-7,-7,0
55464455260,27,88,16,6,-8,-9,8,4
55464464313,39,24,8,24,38,15,28,-10
55464464313,-32,31,-12,-3,10,-2,-10,-11
55464479126,-3,-52,-10,1,-48,-7,-16,-1
55464479126,51,115,40,10,13,6,-10,20
55464480746,-53,-87,-10,-11,-14,1,4,-5
55464480746,7,6,-2,0,-34,0,8,-9
55464501596,15,-15,8,3,12,4,-11,10
55464501596,-66,-64,-25,-16,-20,11,-1,-20
55464503221,25,15,26,1,-2,6,1,15
55464503221,46,77,29,7,-3,-7,-36,-10
55464515304,-32,-13,-13,1,-1,0,-10,-7
55464515304,7,-37,7,14,30,-9,3,5
55464524294,-54,-106,-35,-19,-12,-4,-10,-3
55464524294,-31,-50,-20,-2,57,-7,3,-9
55464546712,48,89,52,15,8,9,10,4
55464546712,32,94,-34,-1,-24,6,2,4
55464548275,24,10,-24,1,5,-7,-17,0
55464548275,-21,83,13,2,2,-2,14,-4
55464561757,9,85,23,14,18,-2,11,-3
55464561757,-55,-93,-23,-18,-8,-33,-38,-3
55464563259,43,89,9,-1,-41,5,-1,2
55464563259,-7,-46,10,-2,7,5,5,-1
55464575433,-25,-19,-34,-15,-9,-14,-6,-6
55464575433,63,124,55,22,-1,1,18,20
55464591819,-7,-26,-42,-13,14,8,0,2
55464591819,3,54,45,18,31,-10,-16,-10
55464599204,-12,-35,-27,-12,-21,-3,-7,-7
55464599204,1,26,20,2,1,-1,-4,-7
55464600737,-17,-71,-15,10,26,2,-1,15
55464600737,-57,-115,-76,-24,-25,21,9,-26
55464621763,-1,10,9,-1,-3,-17,-10,1
55464621763,16,8,0,0,15,16,16,15
55464623247,22,53,19,11,11,1,7,4
55464623247,64,89,55,17,25,8,8,24
55464635447,-74,-106,-97,-36,-22,-4,-18,-33
55464635447,-36,-43,-2,-8,-14,1,-2,-43
55464644283,12,35,35,-8,-20,-11,-1,25
55464644283,-3,-63,-38,1,6,-6,-1,-12
55464659243,-18,-54,-55,-17,42,-15,0,-4
55464659243,-25,7,5,-6,-41,4,9,6
55464660772,-14,4,12,0,15,11,-12,-26
55464660772,14,38,4,-9,-33,-18,6,12
55464681672,-14,18,21,8,-6,7,0,-12
55464681672,-28,-98,-36,-5,5,1,24,-3
55464683314,-12,-2,14,6,27,-1,-20,-6
55464683314,27,13,26,-1,-17,7,13,25
55464704295,-11,2,14,7,-25,-1,-1,-11
55464704295,1,5,-50,-3,8,18,2,-3
55464705775,-7,-61,-3,-12,-20,-7,-3,-1
55464705775,19,30,27,12,-21,-8,0,-11
55464719109,-1,78,-5,-6,35,-6,-6,-7
55464719109,-49,-58,-39,-16,37,-5,-17,-12
55464720725,-4,-16,8,10,-14,3,4,-16
55464720725,2,28,6,3,17,3,-2,1
55464741777,8,-29,-3,-6,4,6,9,16
55464741777,17,15,2,4,-38,-5,-3,4
55464743279,-7,41,-1,-4,-1,-10,-6,-17
55464743279,-30,-33,-4,-3,-27,-4,-6,-3
55464764217,4,-2,-2,6,23,12,-4,-2
55464764217,3,33,14,-8,-9,9,-1,11
55464765748,13,70,14,-6,29,-3,2,6
55464765748,19,34,-7,6,-13,5,0,6
55464779295,10,37,30,0,-15,-4,-1,12
55464779295,15,-31,-11,0,-5,-7,-8,-5
55464780798,-35,31,-9,4,11,1,7,-2
55464780798,15,-30,4,-2,16,-4,-5,7
55464801645,-6,-3,16,7,-1,7,1,-3
55464801645,-3,-26,10,0,-23,-9,-1,12
55464803244,2,-41,6,0,-21,1,-5,-5
55464803244,-25,-2,-20,-15,-38,-16,1,1
55464824278,18,-4,-11,4,29,0,4,5
55464824278,-7,6,32,3,-2,6,-4,-9
55464825757,10,34,-13,10,-26,-5,2,-1
55464825757,-9,-15,5,0,2,5,3,-3
55464839318,10,14,5,0,-28,-7,-2,1
55464839318,-6,-30,-9,-6,-3,5,17,-1
55464840770,9,24,-24,-8,18,-5,-10,5
55464840770,-25,-36,-18,-10,-13,-3,-10,-11
55464860801,23,28,22,10,-7,1,-1,11
55464860801,-9,-6,1,6,-11,-6,2,0
55464869286,0,9,6,-5,-17,4,2,1
55464869286,0,17,-3,-5,-9,2,1,-1
55464884185,8,16,0,-3,4,-2,8,1
55464884185,4,26,14,9,-14,-10,-8,1
55464885716,6,32,2,-4,8,3,-1,-4
55464885716,-5,-35,-15,-9,1,3,-2,-3
55464898471,20,1,4,-3,7,3,-2,-2
55464898471,6,32,9,0,-3,-4,-6,-4
55464905405,-1,-13,-7,-5,-2,11,5,7
55464905405,10,2,8,3,-1,-4,3,0
55464921814,-1,3,2,4,-4,-2,-1,0
55464921814,4,16,-4,-5,-8,-2,-4,-1
55464923275,-19,-14,1,4,14,5,2,0
55464923275,16,33,3,-2,0,18,1,1
55464944114,2,-10,-8,-4,-17,-1,-2,1
55464944114,11,67,34,5,12,7,-7,-1
55464945735,-9,-33,-36,-7,-7,-2,7,3
55464945735,-5,1,14,6,19,2,-1,-2
55464958424,4,1,-6,-2,-3,0,0,4
55464958424,4,0,4,-1,9,1,0,-3
55464965229,-7,-13,7,-2,-16,-9,3,-8
55464965229,-7,-10,-4,2,11,-4,0,12
55464981581,-15,-18,-13,-10,5,-3,2,-5
55464981581,4,-14,-3,6,5,-2,-1,-3
55464983579,3,12,5,7,3,-2,-5,-2
55464983579,-6,6,-5,-3,-22,2,17,-9
55465004244,-9,-2,7,4,-1,-4,-43,-7
55465004244,-6,-18,-12,-8,-3,0,1,3
55465005753,5,-5,3,-3,-2,-10,-6,3
55465005753,2,9,7,2,3,-3,-4,-5
55465018592,-3,-7,-7,-3,-13,-9,10,1
55465018592,-3,-14,-3,-1,8,0,-4,-5
55465025325,-5,-16,1,-3,3,-1,-1,2
55465025325,-17,31,4,2,10,3,-3,-5
55465041755,-1,-44,-10,-6,-20,2,4,0
55465041755,-2,7,4,-2,-14,-8,-4,-5
55465043256,3,7,0,1,-14,4,4,0
55465043256,-4,-6,-7,-8,-9,-2,-5,-4
55465064278,-1,13,5,4,20,7,4,-2
55465064278,-3,4,-1,-3,-1,-4,1,-1
55465065783,-3,-18,-2,-1,-7,-3,-1,0
55465065783,6,-6,-2,-5,-6,-3,-4,-2
55465079245,5,12,3,2,7,9,1,1
55465079245,-5,-9,-3,1,5,-14,-2,-1
55465086845,-3,7,4,2,11,0,0,-3
55465086845,20,2,-1,2,2,2,1,5
55465101605,-5,-9,-1,-2,2,-7,0,-4
55465101605,-5,-6,-4,0,-8,4,-2,-7
55465103246,2,6,5,-1,6,2,-11,-2
55465103246,-19,-29,-4,-3,2,-1,7,3
55465124228,2,6,-3,-3,-14,-2,2,0
55465124228,4,1,-3,-3,-6,0,-2,-2
55465125722,0,31,10,1,-8,-1,1,3
55465125722,-8,-8,2,-2,2,-7,-8,-13
55465146750,-16,-27,-6,0,-3,-2,-1,-2
55465146750,-10,-13,-4,-3,4,0,2,-6
55465148258,2,-9,1,1,1,-2,4,1
55465148258,10,-1,3,-1,38,-3,-2,4
55465161830,7,15,9,6,8,0,1,0
55465161830,-2,0,-8,-1,3,1,3,-1
55465163390,3,-6,-4,-4,4,2,-2,1
55465163390,1,-3,0,2,-15,1,-1,1
55465184221,4,6,-2,-4,-15,-3,0,0
55465184221,-4,-3,-2,-1,6,1,-7,5
55465185734,5,-22,-10,-6,-2,1,5,-2
55465185734,-4,-3,-4,-4,-2,-22,-4,-1
55465197858,-27,9,3,1,-17,1,1,-3
55465197858,-4,-14,-4,-1,12,1,-4,1
55465206818,8,19,7,0,-3,-1,-1,-7
55465206818,-8,-16,-10,-2,0,0,-7,-6
55465221753,3,17,5,-1,-8,-2,0,12
55465221753,6,7,-6,-1,-8,-2,3,-1
55465223257,7,-5,2,-2,1,-9,-1,-1
55465223257,-20,-31,-3,0,10,3,1,0
55465244193,5,-15,-12,-4,4,-1,0,0
55465244193,-7,-1,1,2,-2,4,-1,1
55465245729,1,-5,5,1,2,0,0,3
55465245729,8,17,-5,-2,-26,0,-1,0
55465257902,10,2,1,3,19,-3,1,-1
55465257902,-11,-13,0,1,1,1,-1,-6
55465266830,-1,-1,-1,-2,-4,1,-1,-2
55465266830,5,9,7,0,-6,-1,-1,1
55465281695,-2,-5,-3,2,16,3,-3,-2
55465281695,16,15,3,2,-17,-2,0,3
55465283297,-17,-16,-6,-2,4,-1,-9,-3
55465283297,4,-1,-2,-4,4,4,7,4
55465304200,-3,17,-3,-5,-7,-6,-2,-7
55465304200,28,-38,-3,-6,1,-3,-2,6
55465305796,-7,-6,0,-2,-7,-1,-3,-2
55465305796,2,2,3,7,3,1,-3,5
55465317914,-6,-14,-8,-5,-14,-1,-1,-6
55465317914,-3,23,8,1,0,-1,0,-2
55465334364,-17,-4,-1,1,-4,-2,0,-2
55465334364,13,13,-19,-4,7,2,4,-6
55465341764,14,13,8,2,7,0,-1,14
55465341764,-8,-1,-5,-4,-11,-3,-2,-2
55465343233,-15,-25,-8,-5,1,1,1,-2
55465343233,0,9,13,8,15,1,0,-2
55465364278,9,10,0,1,-2,-1,-1,0
55465364278,-13,-9,-2,-3,-6,-2,-2,-2
55465365774,9,21,-1,0,-8,-2,-1,1
55465365774,-14,-22,-5,-4,-5,0,-3,-2
55465377923,8,16,-1,-2,-4,-1,1,-3
55465377923,-1,4,3,2,-1,2,0,0
55465386757,10,8,0,1,2,1,2,1
55465386757,4,32,8,-5,-1,1,-4,1
55465401596,-15,-49,-10,-1,0,2,-2,-2
55465401596,-7,-9,5,-5,-14,-5,-3,-4
55465403225,-21,-4,-19,-2,1,1,0,-5
55465403225,-1,7,1,0,-7,-2,-2,5
55465424611,-7,-4,3,1,-1,0,-9,2
55465424611,6,2,-4,-2,-1,0,8,-1
55465426231,-1,11,5,1,-1,-4,-2,-1
55465426231,9,14,3,-1,-10,0,-1,0
55465437901,-1,2,-3,-7,-11,-4,2,-3
55465437901,0,0,-7,2,13,3,-2,3
55465446764,-4,9,6,-1,28,-1,-1,-2
55465446764,-3,-9,-15,-4,-1,-2,-1,-5
55465461642,-14,-16,1,3,1,0,1,-4
55465461642,5,29,1,-3,0,-3,-1,4
55465463238,11,-29,-5,3,-5,-1,-1,-1
55465463238,-7,1,12,-2,-4,0,-3,1
55465484167,-7,-26,-10,-1,2,0,1,-3
55465484167,18,2,-3,-1,1,0,-2,6
55465485721,5,2,2,1,-2,0,0,2
55465485721,-6,-3,6,0,0,-1,-1,-3
55465497740,29,13,-5,-2,-4,-2,1,0
55465497740,-11,-5,-2,3,9,1,-2,-3
55465506756,15,2,-5,-3,-8,0,-1,0
55465506756,7,-10,-3,0,0,-3,1,-2
55465521610,-6,20,5,-2,-2,-2,1,-2
55465521610,-19,-14,-4,-4,-7,-1,-2,-2
55465523229,-5,8,5,4,17,-2,-3,-2
55465523229,-2,-19,-5,0,-2,0,-2,2
55465544084,-4,7,4,-1,-2,0,2,1
55465544084,-1,9,2,-2,4,-3,0,2
55465545699,-12,-6,8,1,-11,2,-1,0
55465545699,-12,-22,-8,2,-12,-2,-3,-2
55465557761,22,28,5,3,12,1,1,-1
55465557761,12,-22,-6,-4,-7,-6,-2,-2
55465566789,-2,-21,-4,-1,-5,1,0,3
55465566789,-6,2,-2,-7,-2,1,-1,-5
55465580972,0,-3,-4,-3,-1,1,-1,-2
55465580972,-18,3,1,5,1,0,0,3
55465587759,10,4,-4,-10,-9,-1,1,-3
55465587759,16,0,4,-4,6,-2,-1,4
55465604120,-5,-7,-4,6,-1,0,-1,-1
55465604120,4,13,5,-4,-6,0,-1,-3
55465605766,-1,-4,-8,0,1,-1,-2,-5
55465605766,0,15,4,0,-4,-1,-3,-2
55465617767,-9,-19,-7,-5,0,-2,-4,-4
55465617767,-11,-2,-1,3,5,2,-2,-5
55465626760,-4,-1,0,3,-2,0,1,0
55465626760,-4,4,-1,2,5,-2,0,-4
55465640947,-1,6,-1,-7,-18,-3,-1,-2
55465640947,-5,-3,1,1,6,-2,-1,0
55465647799,-5,3,3,-1,-2,0,-3,-1
55465647799,-6,-1,-10,0,1,-1,0,-3
55465664268,33,8,5,2,8,3,1,7
55465664268,6,-6,-2,-2,-6,-3,0,-4
55465665746,-20,-27,-11,-7,2,-4,3,0
55465665746,-4,3,8,5,3,0,-4,0
55465686748,-6,9,-5,-2,-3,-2,-1,-4
55465686748,-2,0,-1,-2,6,2,-2,-3
55465688265,14,23,5,2,-7,1,0,2
55465688265,-3,-9,-1,-3,-17,-1,2,-2
55465701451,-6,-43,-9,0,0,-3,-1,1
55465701451,-15,22,8,0,-5,-1,0,-5
55465707958,6,4,-5,-3,-7,0,-1,-1
55465707958,5,12,4,1,19,-2,-1,-1
55465724245,-11,28,3,-1,-4,-1,-2,0
55465724245,-4,-39,-11,-6,1,-1,-4,-4
55465725748,5,10,-2,-2,-6,-2,-1,-1
55465725748,-4,2,3,4,0,0,-1,-1
55465746754,-3,14,3,-1,8,1,2,-2
55465746754,13,10,3,-2,4,-1,0,6
55465748222,-8,-9,-2,-5,5,-4,-2,-4
55465748222,6,16,-2,-1,-3,1,0,0
55465761062,-22,-19,-1,-1,0,-3,0,-3
55465761062,9,14,5,5,-4,3,0,-3
55465767952,6,14,0,2,0,-2,-1,-2
55465767952,-4,-33,-8,1,0,1,-1,1
55465784251,-11,8,-2,-2,-9,-3,-3,-4
55465784251,-11,-1,0,-4,-4,-3,-1,-3
55465785786,12,5,4,-2,-6,-3,-1,3
55465785786,-3,1,-8,-3,10,0,0,2
55465806579,2,4,3,0,-4,-2,1,0
55465806579,-39,-23,-12,-4,-15,0,0,-4
55465808198,38,-34,-3,3,0,1,-2,1
55465808198,-7,-4,0,-4,-11,-1,-1,1
55465820952,0,-6,0,0,8,-1,-1,-2
55465820952,18,40,-1,-3,-10,0,1,3
55465827903,-19,-29,-3,3,7,0,-1,-4
55465827903,-6,9,2,-1,-5,-1,-3,-2
55465844302,4,-15,-5,-6,-6,-2,-2,0
55465844302,4,-7,3,3,1,0,0,1
55465845767,-9,-3,-11,-10,-10,-1,-2,0
55465845767,11,6,5,3,1,-1,-2,-7
55465866615,-5,4,1,-1,-1,-1,-1,-3
55465866615,-3,-22,-3,0,14,-3,0,0
55465868239,-3,28,2,2,1,-1,3,0
55465868239,-18,-39,-8,-9,-2,-4,1,-1
55465880976,-5,-9,-3,0,-5,-2,-2,-3
55465880976,2,-26,-1,1,-2,-3,-2,0
55465887928,-3,24,2,1,-9,-1,1,2
55465887928,2,5,1,-1,6,2,0,3
55465904230,7,26,3,0,-2,0,-2,1
55465904230,21,-20,-15,-4,9,-1,-1,5
55465905733,-14,2,5,-3,0,-2,-3,-4
55465905733,1,4,-4,2,-7,1,0,2
55465925851,9,-11,2,-1,-14,-1,1,6
55465925851,-2,24,3,2,10,-1,-1,-3
55465934247,-2,4,5,3,4,-3,-1,-1
55465934247,3,-8,-13,-8,-1,-3,-2,0
55465940279,-8,27,8,1,5,-1,0,-1
55465940279,3,-11,-7,-2,-6,-1,-2,-1
55465949423,13,-1,6,4,-1,0,-2,-7
55465949423,-3,16,2,1,0,-1,0,1
55465964300,-11,-34,-6,1,1,0,-2,-7
55465964300,-18,-11,-5,-3,-33,-1,-2,-1
55465965721,6,18,3,-1,17,0,2,3
55465965721,10,14,4,3,-2,0,0,1
55465986609,17,0,-1,-3,-5,0,-2,6
55465986609,0,6,6,3,12,2,1,-3
55465988186,-8,2,-4,-3,-9,-2,-3,-4
55465988186,-7,-8,-1,-2,-3,-2,-2,-2
55466000246,2,-14,-4,1,0,-3,0,0
55466000246,-4,-1,-1,0,3,1,1,1
55466009267,-7,-5,1,-2,-6,0,0,-1
55466009267,-5,-9,-4,-2,7,-3,-2,-4
55466024246,2,22,-2,0,3,1,0,-3
55466024246,9,22,9,-2,3,-1,-1,-4
55466025743,-30,-56,-14,-3,-2,-1,-3,-4
55466025743,-1,4,2,-4,-15,1,-1,-2
55466046724,-5,10,-7,-4,1,0,1,-3
55466046724,1,0,-3,-3,2,-5,0,1
55466048222,1,14,1,0,-5,-1,0,3
55466048222,13,10,1,1,8,0,0,2
55466061015,-20,-26,-1,-1,-4,-2,-3,-3
55466061015,-8,5,-5,-4,-1,-2,-1,2
55466068563,13,-1,-1,2,0,1,-3,-3
55466068563,0,-13,-4,-3,-4,-4,-1,-2
55466083586,6,2,0,-3,-6,-2,1,1
55466083586,6,-3,2,2,10,-3,-1,1
55466084261,-7,3,-1,-2,0,0,0,-3
55466084261,-7,-7,-5,-4,-2,-1,-2,-4
55466106016,16,-3,-3,-2,1,0,5,13
55466106016,-1,-14,-4,-2,-6,0,-9,-5
55466106747,2,15,0,-1,-16,-2,-2,-1
55466106747,-14,-2,1,1,11,-2,-1,-6
55466120282,1,-1,1,1,6,2,1,2
55466120282,-3,0,-3,-4,-2,-3,-1,-1
55466128492,17,-1,-5,-4,-4,-1,1,8
55466128492,13,9,1,3,-3,-2,0,1
55466143436,-21,-5,4,1,-1,-1,-4,-10
55466143436,0,-16,-10,-4,-1,-2,-1,-1
55466144216,-11,-13,-1,1,4,1,2,0
55466144216,1,-9,-3,-1,-3,-1,2,4
55466165900,-18,12,3,-3,2,-2,-4,-8
55466165900,10,-6,4,0,-3,0,1,-1
55466166684,-7,12,4,-3,1,-4,1,-1
55466166684,-5,2,-2,-1,-4,0,-2,-2
55466180401,14,-2,-4,1,-2,0,-2,1
55466180401,-7,13,2,1,0,0,0,-1
55466188575,5,0,-3,-1,-1,-3,-3,0
55466188575,-1,7,1,-2,-2,-3,-2,-1
55466203309,5,-6,-2,0,0,1,-2,1
55466203309,0,7,1,-1,-1,-1,2,0
55466211046,4,3,-2,-4,-2,-1,-2,3
55466211046,-1,4,-1,2,1,8,-1,-6
55466226187,-3,-6,2,2,0,-1,2,-7
55466226187,-5,-2,-4,-2,-4,-2,1,-1
55466226704,-6,-2,-1,1,1,-1,-3,-3
55466226704,-12,-3,-2,-3,-3,0,-1,-1
55466240294,9,1,2,-3,1,0,-2,0
55466240294,-10,13,3,0,-2,0,-2,-8
55466256072,-15,-27,-7,0,1,-2,-1,-7
55466256072,-4,3,2,-4,-1,-4,-1,0
55466263588,-1,6,-2,-1,1,-2,0,-1
55466263588,-4,-7,0,-1,0,-2,1,1
55466264249,2,4,1,-1,0,-1,0,2
55466264249,2,-4,-3,-1,-2,-3,0,1
55466286015,-6,-1,-1,-2,1,-1,-1,1
55466286015,8,3,1,1,-1,1,-1,-4
55466286722,4,3,-1,-4,1,0,-1,0
55466286722,3,-10,-6,-4,-3,-3,-2,0
55466300380,2,-3,2,2,-1,-1,-1,1
55466300380,-6,0,-4,0,-1,-3,-3,0
55466308594,2,-1,0,1,1,-1,-2,-2
55466308594,1,1,0,2,1,-1,0,2
55466323527,2,1,-2,-3,0,-2,0,2
55466323527,-6,-4,-2,-2,0,-1,-1,-5
55466324215,4,2,-1,-1,-2,0,-1,-1
55466324215,-2,-3,1,0,-3,0,-4,0
55466354190,-8,-6,-2,-2,1,-2,-3,-6
55466354190,1,6,2,0,0,1,0,-1
55466354895,-1,13,3,-2,0,-1,-1,-2
55466354895,0,-20,-6,-3,-1,1,0,-5
55466360273,1,3,0,0,0,-3,-1,0
55466360273,-1,2,-1,-1,-2,-2,-2,0
55466368425,-2,-12,-2,0,-1,1,-2,-3
55466368425,3,9,0,-1,-1,-1,-1,0
55466383423,-8,-4,-3,-1,-2,-1,0,3
55466383423,8,-6,2,-1,-1,0,1,2
55466384230,-4,10,-5,1,-2,-2,-3,0
55466384230,1,13,2,-1,-1,-1,1,-1
55466405932,-5,-24,-6,-4,-4,-2,0,-1
55466405932,5,-4,-1,-2,-2,-2,-1,1
55466406686,7,0,0,1,-1,-3,-2,0
55466406686,-1,-1,-1,1,-1,-3,0,1
55466420372,-18,-3,-1,0,-2,1,-1,-8
55466420372,9,2,-1,-2,-1,-1,-1,2
55466428511,-7,-6,-2,-1,-1,-2,-1,-1
55466428511,1,-1,0,-2,-2,0,-1,3
55466443584,-1,5,-1,-2,-2,-2,-1,1
55466443584,-3,-3,1,0,-2,-1,0,1
55466444228,-12,9,-1,-3,-3,-1,-1,-3
55466444228,-2,-20,-5,-3,0,-2,-2,-3
55466466150,10,12,2,-1,2,-1,-1,0
55466466150,-5,-9,-1,1,1,-1,-2,0
55466466706,3,-1,2,-3,-1,1,-1,-2
55466466706,-3,13,1,2,-1,0,0,-1
55466489341,10,-9,-8,-1,-1,-3,-1,-4
55466489341,-4,0,-1,-4,-3,-2,-1,-4
55466489919,0,-2,2,-2,0,-1,-1,-2
55466489919,13,2,1,0,-4,0,-2,-1
55466503569,3,0,-1,0,3,1,0,2
55466503569,-1,0,-3,-4,-2,-9,0,3
55466504190,5,-4,-2,1,1,-3,0,1
55466504190,3,5,2,2,0,0,-1,-2
55466525810,-6,-1,1,-3,-5,-2,-1,2
55466525810,-5,-3,-1,-1,-1,2,2,0
55466533453,11,-7,-3,0,-1,2,2,1
55466533453,2,7,-2,-1,0,-3,0,1
55466540251,2,3,1,-1,-1,-2,1,2
55466540251,-7,-3,-1,-1,-1,1,0,-1
55466548465,-1,3,0,-1,-1,-3,2,1
55466548465,-8,-4,-5,-4,0,0,-2,-2
55466563420,-1,-3,0,0,0,2,-1,-4
55466563420,9,13,2,-2,-1,-1,-1,0
55466564146,-5,-16,-2,0,-3,0,-2,-4
55466564146,6,-2,-2,-3,-2,-2,1,4
55466586122,-11,-8,-1,-2,-1,1,-4,-3
55466586122,0,6,-1,2,0,-2,-1,-3
55466586769,-1,4,0,-3,3,5,-1,0
55466586769,-3,22,3,0,2,-6,-1,-2
55466609263,-5,-32,-10,-1,-4,-1,1,-2
55466609263,-5,-6,-2,0,-1,2,-2,-1
55466609894,-1,-1,0,0,-2,0,-1,-1
55466609894,-5,-11,-1,-1,-2,0,-2,-3
55466623582,4,15,3,-1,-1,-1,-1,-3
55466623582,-12,0,-1,-1,0,-1,-3,-9
55466624206,-5,6,-1,-1,1,-3,-2,-1
55466624206,2,-12,-5,-1,-3,0,0,-3
55466645961,2,-4,1,3,3,-1,-2,1
55466645961,-4,-8,-1,1,0,-1,-1,1
55466646716,-1,9,-2,0,-1,-2,-3,0
55466646716,-3,-2,-2,-2,-1,-1,-1,0
55466669260,-5,4,-2,-1,-1,-1,0,0
55466669260,25,12,2,-1,0,0,0,4
55466669912,-4,-48,-7,-2,-3,-3,1,5
55466669912,-3,-14,-4,0,0,-3,-1,-5
55466683485,-2,-7,-2,2,2,0,-1,-2
55466683485,-1,18,1,1,0,1,-3,-3
55466684213,0,8,1,-3,-3,-2,-1,-3
55466684213,-2,-6,-2,-1,-1,2,-2,1
55466705957,3,10,3,-1,-1,-1,0,2
55466705957,11,-12,-4,-2,-2,-3,-2,-2
55466706722,0,9,0,0,0,0,0,-6
55466706722,-26,-18,-6,0,-2,1,-1,-7
