63147444604,-3,0,-1,-2,-3,0,1,2
63147444604,-2,-1,1,-3,-2,-2,-4,-6
63147445282,-2,-3,-2,1,-3,3,1,-3
63147445282,-2,0,-1,0,-2,0,0,-2
63147446102,-5,-2,1,-2,-2,-2,-2,-10
63147446102,4,1,-2,0,-4,-1,1,16
63147446921,0,1,0,-5,-1,2,2,2
63147446921,-1,-1,1,0,0,0,1,-2
63147467134,1,3,3,1,1,1,-1,1
63147467134,2,0,1,-2,0,0,1,3
63147468685,-1,1,1,-1,-2,-3,-3,-8
63147468685,0,0,0,-2,-1,-2,-2,-6
63147472714,2,0,-1,-1,-2,-4,-5,13
63147472714,2,0,1,0,1,1,2,-5
63147488341,0,1,-2,0,-2,-6,-3,1
63147488341,-1,-1,-1,-1,-1,-1,1,3
63147496359,-3,-1,-2,-1,1,0,1,-8
63147496359,-3,-2,0,-1,-1,-1,-2,-5
63147511318,2,-1,-2,-1,-2,-1,-3,3
63147511318,-5,-2,-2,0,-1,0,-3,-7
63147519088,0,-2,-2,-1,-1,-4,-1,2
63147519088,-3,-3,-2,1,-1,3,0,-6
63147532630,0,1,0,-1,0,-1,1,10
63147532630,-3,-1,-2,-2,-1,-2,0,-4
63147574175,2,0,0,-2,0,2,2,3
63147574175,-2,-1,-1,-1,-2,-9,-2,-4
63147574966,0,-1,-2,-4,-2,-3,-2,5
63147574966,-1,-1,-3,0,-1,4,-4,2
63147578158,-5,-1,-1,0,-1,-10,5,-12
63147578158,0,0,-1,0,-1,2,-3,-3
63147578859,-4,-1,-1,-1,-3,-1,2,-2
63147578859,-1,-2,-2,0,-3,-2,-3,0
63147585689,-4,0,-1,-2,-2,-5,-5,-8
63147585689,1,-1,-1,-1,-3,0,-2,0
63147592511,2,-1,0,0,-1,-1,-1,0
63147592511,-4,-2,-2,-4,-3,-3,-5,-11
63147599930,0,-3,0,-2,-3,3,-4,-4
63147599930,-3,-2,-1,1,-1,1,-1,-6
63147614957,1,0,0,-1,-4,-1,-1,7
63147614957,1,1,1,-2,-3,-3,0,0
63147622450,0,-2,0,0,-3,-1,0,2
63147622450,-3,-3,-2,-4,-1,1,3,3
63147646301,2,-1,1,0,0,0,0,-2
63147646301,1,1,2,1,1,-1,3,3
63147646975,1,2,2,-1,-3,0,3,4
63147646975,-2,1,1,0,-2,-1,-3,-9
63147660681,1,1,0,0,0,-2,-2,2
63147660681,-2,-2,-1,-1,-1,-2,-1,3
63147661363,4,0,0,-1,1,2,9,16
63147661363,1,0,1,-1,-2,-1,-11,-1
63147683005,-7,-1,0,-3,0,2,-1,-16
63147683005,0,0,0,-3,-1,-1,-1,2
63147683807,-1,0,-2,-1,1,-2,-4,-4
63147683807,1,1,-3,-1,1,-1,0,1
63147706170,-2,-1,1,1,-1,-2,7,15
63147706170,-1,0,0,0,-1,0,4,16
63147706948,-2,0,-1,-1,0,3,-3,0
63147706948,1,0,-1,-3,0,3,3,0
63147720606,0,-1,-2,-3,-2,-9,-9,-5
63147720606,0,-1,-2,1,0,-2,4,-4
63147721306,-6,-3,-2,0,0,0,-4,-9
63147721306,4,-1,2,1,1,3,6,15
63147744330,0,0,-1,0,1,-1,-1,-4
63147744330,-2,-4,1,-3,0,0,3,8
63147744937,-2,0,-1,1,0,-2,-8,-6
63147744937,2,-1,-1,-1,0,-2,0,-2
63147766321,-3,-3,-1,0,1,2,6,-1
63147766321,4,2,-1,1,2,-2,-4,-5
63147767010,-2,-2,0,1,0,0,-2,-4
63147767010,0,-3,-3,0,0,-1,0,-2
63147780605,1,0,-1,-2,1,0,1,25
63147780605,-6,-2,-1,-2,-2,0,-3,-27
63147781338,-1,0,-1,-2,-2,0,0,8
63147781338,0,1,-2,-2,0,-3,-1,-3
63147803812,-2,-3,-1,1,-1,-1,-5,-10
63147803812,2,-1,-1,-1,2,1,0,-1
63147804466,3,1,-1,-2,0,0,-2,-5
63147804466,-2,-1,2,-2,-2,-3,-4,10
63147826341,-1,-3,-3,-2,-1,4,5,-1
63147826341,-1,-2,1,0,-3,0,-2,2
63147827005,1,-1,-3,0,-2,-1,0,-2
63147827005,-6,-2,-2,-1,1,-2,-2,-18
63147840002,4,2,-1,0,-1,-1,-4,-8
63147840002,-4,-1,0,-1,0,-4,-1,4
63147848153,1,-2,-2,0,1,-2,5,0
63147848153,-2,0,2,-2,-1,0,-9,3
63147863801,-1,-1,-2,-2,-1,-1,-3,-9
63147863801,-2,0,-2,-3,-2,0,1,-5
63147864493,1,-2,-1,-1,0,-2,-1,2
63147864493,-1,-1,0,0,-1,-3,3,6
63147886308,-2,-1,1,-1,-1,0,-2,1
63147886308,2,-2,-1,1,0,6,-3,-6
63147887001,-2,-2,1,-1,1,-15,-7,-2
63147887001,0,-2,0,-1,-2,-1,2,-2
63147899938,-5,-3,-1,0,-1,0,-4,-14
63147899938,-1,0,0,0,-2,1,2,11
63147907907,-3,-1,0,-1,-1,3,0,-7
63147907907,0,-1,-2,1,0,-4,-6,-5
63147923886,1,-3,-2,-1,-1,-5,-5,-10
63147923886,0,-1,-2,-2,1,-1,0,3
63147924579,-2,0,2,0,-2,0,-1,-1
63147924579,-1,-1,-2,0,-2,-1,-1,11
63147946250,-3,-1,-1,0,-2,0,-3,-8
63147946250,1,-1,-3,1,0,-2,-1,2
63147946998,0,-1,-2,-2,-1,1,-3,2
63147946998,-1,0,-2,-3,-2,1,4,-5
63147959983,-1,1,2,-2,0,0,2,4
63147959983,1,1,1,-1,-1,-3,-4,1
63147968141,0,0,-1,0,-1,3,1,1
63147968141,-1,-1,-2,0,-1,-2,0,-1
63147983857,2,-2,-3,-1,-1,-3,0,11
63147983857,-3,0,-2,-2,-1,-2,1,-3
63147984452,1,-1,-3,-2,-3,1,1,2
63147984452,0,-2,0,1,0,-1,-5,2
63148006322,-3,-1,-1,0,-1,0,2,-2
63148006322,2,-1,0,0,-1,-1,-2,1
63148007034,-3,-2,-2,-1,-1,0,-1,-1
63148007034,0,-3,0,-2,0,0,2,3
63148019981,-3,0,0,-1,-1,-2,-3,-10
63148019981,0,-1,0,1,-1,-1,6,8
63148028146,1,-2,0,-1,-1,1,-2,-3
63148028146,-2,-1,-1,-1,-3,-5,2,-5
63148043830,-2,0,-3,0,-1,-1,-3,-1
63148043830,-6,-1,-3,0,-1,0,-10,-13
63148044484,7,0,-1,-1,0,6,20,26
63148044484,-3,-2,0,-2,0,-2,-3,-8
63148066369,0,0,-1,-1,-1,1,0,9
63148066369,-1,-1,0,-2,-1,4,-5,-6
63148067004,-1,-1,0,-1,-1,-2,-6,2
63148067004,-3,2,-2,-2,-1,0,-2,-29
63148088750,-2,-1,0,-2,0,3,4,5
63148088750,2,0,-2,0,0,-3,1,2
63148089507,-5,-3,-1,-1,-1,-3,-5,-7
63148089507,0,-1,-2,-1,0,2,2,2
63148103799,0,-2,0,-1,-2,-3,-3,0
63148103799,-5,-3,-2,-1,0,-2,1,-9
63148104465,1,1,0,2,0,-3,-12,-6
63148104465,-6,-1,-1,-2,-1,2,11,-3
63148126217,1,1,-1,0,-1,1,0,4
63148126217,5,-1,0,-2,0,-4,0,4
63148127820,-10,-2,0,0,1,5,0,-17
63148127820,6,-1,0,0,-1,-2,-5,11
63148139982,0,0,-1,-1,1,-1,3,10
63148139982,-1,-1,-1,-1,0,-3,-1,-6
63148148838,-1,-1,-2,-1,0,-3,-2,-1
63148148838,0,-1,0,-1,-2,1,-4,-3
63148163215,-4,-2,-1,-2,-2,-6,-4,-11
63148163215,4,0,-1,-2,-2,3,-1,4
63148169947,-2,0,-2,0,-1,-2,-1,0
63148169947,-1,-1,-1,-1,-1,-6,0,1
63148185243,1,0,-2,1,0,-1,-2,0
63148185243,-4,-2,0,-1,-2,0,-7,3
63148193805,-1,-1,-1,0,0,0,11,-1
63148193805,4,1,0,-1,-1,1,1,6
63148199837,-2,-2,-1,-2,-2,0,3,-4
63148199837,-6,-4,-1,-1,0,-2,4,7
63148208808,-1,0,-1,-2,-1,-2,-3,-10
63148208808,0,1,-1,-1,-1,0,3,-2
63148222297,2,-1,-1,0,-3,0,-10,14
63148222297,-4,-1,-2,-2,0,-3,-4,-8
63148231292,3,-2,-1,-1,-2,4,2,3
63148231292,-3,-1,-2,-2,-1,-2,-1,0
63148246139,-4,-1,-1,0,-3,-2,-4,-19
63148246139,1,-1,0,0,-3,-1,-1,-3
63148247766,-3,-2,0,-2,-1,-1,-5,3
63148247766,-3,-3,0,-2,-1,-1,-5,-2
63148268779,3,-2,0,-2,-1,1,1,0
63148268779,-3,0,-1,1,-1,-2,-2,-3
63148270248,0,-1,0,-1,0,-2,-2,3
63148270248,2,-1,-2,1,0,-1,1,13
63148283809,-8,-1,-1,-3,0,-1,-6,-27
63148283809,0,-1,0,-1,-1,1,3,5
63148285245,-1,-1,-2,-1,-1,-3,-5,-2
63148285245,3,1,-1,-1,-1,1,-2,5
63148306318,-1,0,-1,-1,2,1,1,1
63148306318,3,-1,-2,-1,-3,-4,1,8
63148307817,-6,-2,0,1,0,-1,-5,-15
63148307817,1,0,-1,-4,-1,0,-2,9
63148328952,-1,-2,0,-1,-2,-3,4,1
63148328952,-4,-2,0,-2,-1,1,-13,-15
63148330245,1,-1,-2,-2,2,0,11,21
63148330245,-4,-2,-1,0,-2,0,-4,-11
63148343826,-2,-2,0,-3,-2,1,1,5
63148343826,3,-1,0,-1,1,-3,-2,-2
63148345421,-2,-1,-1,-2,-2,1,-2,-1
63148345421,-4,-1,-2,-1,0,0,-4,-12
63148366213,0,0,0,0,-1,-2,3,7
63148366213,-3,-1,-2,-3,-2,-3,1,-4
63148367824,1,-1,-1,0,-1,0,0,8
63148367824,-7,-2,-2,-1,-1,-4,-7,-22
63148396036,3,-1,-3,0,-1,1,-1,11
63148396036,-2,-1,-1,0,0,-1,3,-1
63148403774,-2,-2,-2,-1,-2,-5,-6,-6
63148403774,-2,-2,-1,0,-1,0,3,2
63148404464,2,0,-2,0,-1,-1,-1,20
63148404464,-5,-1,-1,0,0,0,-1,-8
63148410018,1,0,-2,-1,-1,-2,-2,1
63148410018,-2,-3,-1,0,0,1,2,0
63148426383,-1,-2,-1,-1,-1,-7,-4,-7
63148426383,-1,0,-1,0,-1,1,1,0
63148427817,1,-1,-3,0,-2,-2,-5,0
63148427817,0,-2,-1,-2,-3,-2,2,3
63148448709,1,-4,-1,-1,-2,3,0,-5
63148448709,-2,-1,0,-3,-2,-10,-1,7
63148450230,-1,-2,-2,0,-2,-1,-3,-15
63148450230,3,0,-3,2,0,-1,-3,12
63148471430,1,1,-2,-1,2,0,1,-4
63148471430,-5,-2,-3,-2,0,1,-4,-7
63148472819,-3,-1,-1,-2,-1,1,0,-12
63148472819,-1,1,0,-1,-2,-1,1,-12
63148486278,1,0,0,1,0,0,3,15
63148486278,-1,-1,-2,-1,0,1,-3,-8
63148487814,0,-1,0,-3,2,1,1,0
63148487814,-2,0,1,-2,-1,1,-1,1
63148508879,-3,-1,-1,1,-3,-3,-2,-11
63148508879,1,-2,-2,-1,0,3,3,9
63148510289,5,1,-1,0,0,-4,2,9
63148510289,-6,-1,-2,0,1,-4,-10,-6
63148523079,1,0,-1,-2,-1,4,-1,2
63148523079,0,0,-1,0,-3,0,2,8
63148529999,-3,-1,-1,0,-2,-3,-6,-5
63148529999,2,-1,-1,0,0,1,7,9
63148544998,-4,-1,0,1,0,-3,-2,-12
63148544998,1,0,-1,-1,1,0,-3,-6
63148553868,-3,-3,-2,-1,-1,2,-1,-5
63148553868,0,-1,-2,0,0,5,-1,-3
63148568579,0,-2,0,-3,-2,0,12,12
63148568579,-2,-1,2,0,1,-1,-5,0
63148574963,-2,1,-1,2,-2,0,8,0
63148574963,1,-1,0,-2,-3,-1,-1,5
63148591306,-1,1,-2,-1,-1,-3,-7,-11
63148591306,3,0,-1,-3,-1,2,3,8
63148592860,-3,-1,0,-1,-2,-6,-3,0
63148592860,2,-2,-1,-1,-1,-3,2,6
63148604929,-3,-2,-2,0,0,-1,-4,-11
63148604929,1,-1,0,-3,-3,-1,-3,-2
63148613817,-5,-1,-2,-2,1,-2,-3,-4
63148613817,4,0,-1,-1,-1,-2,8,15
63148628785,-3,-1,-1,-1,0,-3,-10,-4
63148628785,-3,-2,-3,1,-2,0,2,-3
63148630295,0,-1,0,0,-4,3,0,2
63148630295,-5,-2,0,-1,-1,-6,2,16
63148651265,0,-2,0,-2,-2,0,0,2
63148651265,-1,-2,-2,-1,-2,-2,-2,-6
63148652850,2,1,-2,-1,-1,-5,-8,0
63148652850,-1,-3,-2,2,-1,7,10,-2
63148664832,-1,0,-1,-2,0,-1,-5,-1
63148664832,-6,-1,0,-2,-1,-2,0,-7
63148673848,6,1,-1,-2,-1,-2,0,19
63148673848,-1,-1,0,1,-2,-3,-6,-3
63148688666,-3,-3,-2,1,-1,-1,2,-4
63148688666,2,-1,0,-1,0,2,-1,-2
63148690240,-9,-2,-1,-1,-2,-4,-5,-10
63148690240,9,2,1,-1,1,1,1,12
63148711160,1,0,-3,-1,-1,1,-1,-1
63148711160,0,1,-2,0,-2,-3,0,13
63148712726,-6,-4,0,-1,-1,1,0,-9
63148712726,-5,-1,-1,-2,-2,-3,-5,-20
63148733777,-2,0,-1,0,0,-4,-1,1
63148733777,0,-1,-2,-2,-2,1,4,-2
63148735283,5,-3,-1,-1,0,1,1,4
63148735283,-4,-3,-3,-3,-1,-3,-3,-9
63148747998,-2,0,-2,-3,-2,0,-1,-3
63148747998,-3,-2,-1,-1,-1,-3,-2,-7
63148754791,1,-2,-1,-2,0,1,3,3
63148754791,-3,-1,-1,-1,0,-4,-10,-10
63148771282,2,-1,-1,0,0,0,7,11
63148771282,1,0,0,0,-2,0,-7,3
63148772790,-8,-2,-1,-1,-1,-1,1,-14
63148772790,4,0,-1,-1,-1,-1,1,11
63148793837,-2,-3,0,0,-1,-2,-3,-6
63148793837,2,-1,-1,0,-1,0,2,1
63148795297,3,1,-2,-1,0,0,-2,7
63148795297,-8,0,0,-1,-2,-1,-3,-3
63148808777,-4,0,-1,-1,-2,0,1,-7
63148808777,-1,-1,-1,0,-1,-2,5,-1
63148810243,-3,0,-1,-2,-2,-1,-5,1
63148810243,-4,-3,-2,0,-2,-2,-1,-5
63148831253,6,-1,1,-3,0,-1,-2,7
63148831253,-1,0,0,-1,1,-3,2,-3
63148832790,3,-1,-1,2,-1,3,1,-2
63148832790,-6,-1,-1,-3,-2,-4,-11,-6
63148853860,0,0,0,1,0,0,7,-3
63148853860,-4,-2,-4,-1,0,-3,-4,-1
63148855240,0,0,0,1,0,2,-2,2
63148855240,-3,-2,-2,-2,-2,-6,1,-2
63148868134,4,-2,-2,-2,-1,-5,-6,12
63148868134,-3,-3,-1,-1,0,1,-2,-16
63148874840,-2,-2,-1,0,0,-1,4,16
63148874840,-1,1,0,-1,2,2,1,-13
63148891394,-10,-3,-2,-3,-2,-2,-2,-3
63148891394,2,2,-1,-1,1,-3,0,10
63148892796,-1,-1,-1,-2,1,-2,-2,-7
63148892796,-3,0,-3,0,-1,0,-4,-5
63148913806,-1,-1,-1,-1,-1,-1,0,4
63148913806,1,0,-1,-1,-1,1,0,-3
63148915266,-3,-1,0,-1,1,-2,-5,-8
63148915266,2,-1,-1,-1,0,-1,3,7
63148928100,0,-1,-2,0,-1,-2,-4,-5
63148928100,-3,-2,-3,-2,-3,-3,-7,-6
63148934984,5,1,0,-1,2,-1,2,11
63148934984,-2,-2,-1,-1,-1,0,-2,-1
63148951304,3,1,0,0,-1,3,0,-7
63148951304,-4,-3,0,-2,0,-2,3,-6
63148952797,-1,-2,-3,-2,-2,0,-2,6
63148952797,1,0,-2,2,-1,-1,-1,-1
63148973885,-5,-2,0,1,0,-1,-3,-12
63148973885,2,-2,-1,0,0,0,1,9
63148975263,0,-2,0,0,-2,-2,1,-3
63148975263,0,0,-1,0,0,-5,-3,-2
63148988134,-3,0,0,-1,-1,12,5,-3
63148988134,-3,-1,-3,0,0,-9,-5,-1
63148994972,0,-1,-1,-2,-1,-4,0,1
63148994972,-3,0,-1,-3,-1,0,-2,-7
63149011309,-3,0,-1,-2,-1,0,0,1
63149011309,-4,-1,-1,0,-1,4,2,-5
63149012824,5,1,-1,-1,-2,-3,-2,-7
63149012824,2,0,0,-1,-1,-1,-2,-6
63149033794,-1,-2,-1,0,-1,-5,-1,-1
63149033794,-10,-1,-1,-1,-2,1,2,8
63149035267,8,2,-1,0,0,-7,0,7
63149035267,0,-2,1,-3,0,4,0,-3
63149048090,-1,0,1,0,0,-4,2,7
63149048090,1,0,0,-2,-1,0,-8,9
63149054939,-6,-1,-2,-1,-2,2,-3,-14
63149054939,1,-1,-1,-1,-1,-1,10,11
63149071350,-4,-3,-1,-3,-3,-4,-8,-6
63149071350,1,0,1,-2,-2,-1,0,-1
63149072809,-4,-1,1,-2,1,3,1,4
63149072809,-1,0,-2,2,-1,-1,-2,-4
63149093914,-1,-3,-1,-2,0,1,-2,-3
63149093914,3,0,-1,0,0,-8,-1,-2
63149095238,-3,-3,-3,-1,-1,-2,-3,-6
63149095238,-1,0,-1,0,-2,2,0,-3
63149108151,-1,0,-2,-2,0,-2,-1,8
63149108151,0,1,0,0,-3,2,-3,-7
63149114979,-7,-2,-4,-2,-1,-3,-1,-2
63149114979,-1,1,-1,0,1,-2,0,0
63149131420,6,0,-1,0,-1,-3,-3,-2
63149131420,-3,-4,0,-1,1,0,0,1
63149132799,-7,-2,-1,-1,-1,-1,-2,-5
63149132799,0,-3,-1,-1,-3,1,-1,7
63149153858,-11,-3,-1,-3,-2,-3,-4,-26
63149153858,5,1,-3,1,0,-1,1,-4
63149155239,3,1,-1,2,-2,0,6,0
63149155239,-1,-3,-2,0,-1,-3,-8,1
63149168157,-1,-2,0,-1,1,1,0,-8
63149168157,-3,-1,-2,0,-1,2,-1,2
63149174940,-3,-1,0,0,-1,0,0,-7
63149174940,0,0,-2,1,-1,-1,0,-2
63149191174,4,-2,-1,-1,-1,-3,-3,6
63149191174,1,-1,-2,0,0,-5,7,3
63149192785,2,-1,-1,0,-1,-1,-4,-2
63149192785,-3,-3,0,-2,-1,-3,-2,-1
63149213682,0,-2,-3,-1,-1,0,-3,-3
63149213682,0,-1,-1,-1,-3,5,0,-1
63149215232,0,-3,0,-1,-2,-4,-5,-5
63149215232,0,-2,-2,-2,0,3,3,0
63149227289,-2,0,1,-1,-1,-2,-3,5
63149227289,-2,-2,-1,-1,-2,-2,-3,1
63149236312,0,0,-1,-2,-2,1,-1,-6
63149236312,-1,-3,-3,-3,-1,0,4,5
63149251307,-2,-1,0,0,0,0,-4,-6
63149251307,-4,0,-1,-1,0,0,-2,-19
63149252855,-1,-1,0,-2,0,2,4,18
63149252855,-3,0,0,0,0,-5,-6,-2
63149273804,-1,-1,-1,-1,0,-1,12,0
63149273804,2,-2,-3,-2,-2,0,-3,0
63149275264,-3,0,-1,-1,-1,1,2,-4
63149275264,-1,-2,1,0,-1,-1,-2,-9
63149287449,-2,-1,-1,1,-1,-1,0,6
63149287449,1,-1,0,0,1,2,-2,-4
63149296353,-5,-4,-1,-2,0,1,-2,-2
63149296353,0,-1,-2,-3,-2,0,0,2
63149311358,-1,-1,1,0,-1,-6,-6,-3
63149311358,-3,-1,0,-3,-1,4,3,2
63149312816,0,0,0,-2,0,-6,2,11
63149312816,0,3,0,0,0,-1,2,-3
63149333863,-1,-1,-2,-3,-3,-2,-8,2
63149333863,-3,-1,-1,1,0,-1,-3,-6
63149335275,6,1,-2,0,-1,-2,-10,14
63149335275,0,-1,-1,0,0,1,12,-6
63149347431,-1,-2,-3,-1,-1,2,2,15
63149347431,0,-2,2,-3,0,-5,-1,3
63149356295,-5,-3,-1,-1,-2,-2,-4,-14
63149356295,0,-3,1,-3,0,-1,-1,1
63149371255,-1,1,-1,-2,-1,-1,2,5
63149371255,6,-1,-2,1,-2,-1,-2,5
63149372860,-4,-2,-2,-1,1,0,2,-5
63149372860,0,-2,-2,-1,-1,-1,-4,2
63149393769,-1,-2,-1,-1,0,1,2,-7
63149393769,-5,-2,-2,-1,-2,-3,-1,7
63149395289,2,0,0,-1,-4,0,2,3
63149395289,-2,-2,-1,0,-2,-3,-7,4
63149407844,-4,-2,0,0,-1,-2,4,-12
63149407844,-4,0,-1,1,-1,-2,-1,2
63149416324,4,0,-1,2,-2,-1,-2,-3
63149416324,-5,0,-1,0,0,2,-2,-1
63149430357,4,0,-2,-1,-3,-7,-6,0
63149430357,0,-1,-2,-1,1,1,2,-3
63149438797,-3,-1,-2,-2,0,-2,-2,-11
63149438797,-1,0,-1,0,0,2,1,-2
63149453760,0,-1,-1,-2,-2,0,-2,9
63149453760,-5,0,-2,-1,0,-1,-3,-15
63149455275,-4,-2,-2,-1,-1,-2,-6,-9
63149455275,2,-1,-2,-1,-1,1,10,10
63149476321,4,-1,-1,0,0,-1,-2,4
63149476321,-3,-1,-1,0,-1,2,0,1
63149477831,5,1,0,-2,-2,-2,-1,-3
63149477831,-1,-2,-2,-1,-2,0,-4,-8
63149491284,-6,-3,-2,-1,0,-2,1,11
63149491284,5,1,1,-1,-1,-3,-4,10
63149492789,-2,-1,-3,0,0,0,-3,-13
63149492789,0,-2,-2,-1,-1,3,7,19
63149513835,-1,-1,-2,-1,-1,-4,-10,-13
63149513835,-4,-2,0,-3,0,-3,-8,-5
63149515247,-1,-1,0,-2,0,2,8,12
63149515247,-5,-1,-2,-2,-2,-1,-7,-25
63149527432,1,0,0,1,-3,2,3,5
63149527432,-6,-2,-4,0,-2,2,3,-8
63149536330,-1,2,0,-1,-1,-3,-3,-3
63149536330,-1,0,-1,-3,-1,-2,-6,-1
63149551283,-4,0,0,-1,-2,2,3,-4
63149551283,2,-2,-1,-1,0,-2,0,0
63149552788,-3,-3,0,-1,-2,-3,1,4
63149552788,-4,-3,0,-1,0,-2,2,-1
63149581310,0,-1,-2,0,0,0,-9,-7
63149581310,7,-2,-1,-1,-1,-4,2,15
63149582787,-5,0,-1,0,0,0,-1,-3
63149582787,-3,-2,-1,0,-1,-3,-5,-4
63149587349,1,0,-1,0,-2,-3,-1,8
63149587349,0,0,-2,-1,-2,-4,2,-2
63149596354,-1,-3,0,0,-2,-2,2,-2
63149596354,1,-2,-3,0,-2,0,-10,-4
63149611327,-2,0,0,-2,0,1,0,-12
63149611327,3,-2,-2,0,-1,-1,2,14
63149612792,-5,-3,0,-1,0,1,-7,-11
63149612792,2,0,0,-1,-2,1,5,5
63149633761,0,-2,-3,1,-1,-10,1,2
63149633761,0,2,1,-2,0,0,-2,-4
63149635266,1,-2,0,-3,0,0,1,3
63149635266,-1,0,0,1,1,-5,-6,-5
63149647460,-1,-1,-2,0,-1,4,0,-5
63149647460,-1,0,-1,-1,-2,-1,0,-2
63149656295,-1,-1,-1,-1,-1,-1,-3,-1
63149656295,-3,-1,-1,0,0,0,2,-5
63149671229,3,1,0,-2,-2,-3,-2,1
63149671229,-4,-3,1,1,1,5,1,-1
63149672777,0,1,-1,-2,0,1,6,5
63149672777,0,-1,1,-1,-1,-2,-3,-3
63149693677,-2,-4,-1,0,-2,-1,6,3
63149693677,-3,0,-2,-4,-1,-3,-9,-10
63149695281,-1,-1,-3,0,-2,-1,-2,-3
63149695281,-2,1,-1,-1,-1,-3,3,9
63149716112,0,0,-1,-2,0,2,4,-1
63149716112,-1,-1,-1,-1,-1,-3,0,-4
63149717725,2,-1,-2,-3,0,0,2,8
63149717725,-4,0,-1,0,-2,-3,-4,-8
63149731268,-1,-1,-2,-3,-1,1,1,-3
63149731268,1,-3,-2,0,-2,-2,-1,1
63149732777,1,-2,-3,0,0,0,-5,-6
63149732777,-1,-2,-1,0,-2,2,-1,7
63149753758,1,0,-2,-2,0,-4,-1,5
63149753758,-2,-1,-1,-1,-1,2,3,-9
63149755265,-3,-1,-2,2,-2,0,1,-10
63149755265,3,-2,-1,1,-1,-12,-6,-4
63149776298,-5,-3,0,-2,-2,1,-3,-9
63149776298,0,0,0,-2,-2,-3,-2,7
63149777802,-6,0,-1,0,-2,-5,-5,-21
63149777802,0,-2,-1,-2,-1,1,2,-1
63149791653,1,-1,0,2,0,1,-5,11
63149791653,-2,-1,-1,1,-2,-5,0,-3
63149793306,-5,-2,0,-1,0,4,4,0
63149793306,3,0,-1,-2,-1,-1,-5,3
63149813675,-8,-3,-1,-2,0,1,1,-2
63149813675,1,-2,-1,-1,-1,1,-1,-1
63149815272,0,-1,0,0,1,0,-4,4
63149815272,-1,-2,-2,-3,-1,0,7,4
63149836347,-5,-1,0,-2,-3,0,-2,-27
63149836347,0,1,-1,0,-2,-1,1,1
63149837791,2,-2,0,-1,-2,-1,-4,9
63149837791,-1,-2,-1,1,-2,0,3,0
63149858673,1,0,-1,-3,-1,0,-4,-7
63149858673,-2,-1,-2,-1,-1,0,-3,-4
63149860252,3,-1,0,-2,0,-4,2,8
63149860252,-6,0,0,-1,-1,2,-1,-20
63149873777,2,1,-3,1,0,-3,-6,9
63149873777,-2,1,-2,-4,0,-1,10,6
63149875256,3,-1,-2,-3,0,-1,3,11
63149875256,-1,-2,-1,1,-1,-3,-14,-2
63149896333,-2,-3,0,0,-2,0,7,0
63149896333,-2,-3,-2,-1,-3,-2,-4,6
63149897765,1,0,-3,-2,0,5,3,-5
63149897765,-1,0,-2,-1,-2,-10,-4,-5
63149910590,-3,0,0,-1,-1,-4,-4,-2
63149910590,-2,0,-3,2,-1,2,-2,-5
63149917440,-5,-3,-1,-1,-1,0,-1,-13
63149917440,4,-1,0,-3,0,2,-1,35
63149933812,0,1,-2,0,0,0,0,4
63149933812,-6,-1,1,0,2,5,5,-9
63149935285,-2,-2,-1,-1,-3,-3,-7,-4
63149935285,0,-2,0,0,1,4,1,0
63149955331,-1,-2,0,-2,-1,-2,0,-1
63149955331,0,2,1,0,-2,-2,-3,1
63149963851,-1,-1,-1,1,-2,-2,-1,3
63149963851,-2,-1,-1,-1,2,1,3,-4
63149970598,-1,-1,-1,3,0,1,1,5
63149970598,-4,-1,0,-1,0,-2,-5,-7
63149977468,3,0,0,0,-1,-4,2,-1
63149977468,-7,-3,-2,-2,-2,-1,-12,-15
63149993968,2,-3,0,0,-1,0,5,30
63149993968,-3,-1,-1,0,0,-4,-7,-25
63149995324,-5,0,-4,-1,-3,-1,2,5
63149995324,-1,1,-1,-2,-2,0,4,-5
63150016170,-4,1,1,-1,-1,0,-11,-14
63150016170,3,-1,-1,-2,-1,-2,0,5
63150017784,-1,-1,-2,-2,0,-3,0,4
63150017784,1,0,0,-1,0,1,3,-5
63150029832,0,-1,-2,0,0,-1,-3,-5
63150029832,2,-3,-2,-2,-2,-3,-3,6
63150038806,-1,-1,0,-2,-2,1,2,-3
63150038806,-2,-1,-2,-1,-1,-1,1,0
63150053828,-1,-1,-2,0,1,-1,1,-4
63150053828,-1,-2,-2,-3,-1,0,-3,-1
63150055253,-2,-1,1,-1,2,-1,-2,1
63150055253,0,-2,-2,-1,-3,1,-2,-4
63150076335,3,-1,-2,-2,-1,-4,3,0
63150076335,-1,0,-2,-1,0,-2,1,9
63150077762,-4,-1,-1,0,-2,-4,-8,-13
63150077762,-2,0,0,1,0,-1,-1,-11
63150090626,-1,-1,1,-2,1,-1,5,6
63150090626,0,-1,0,-1,-3,2,0,3
63150097421,6,0,-2,-1,-3,3,-1,8
63150097421,-13,-1,0,1,0,-6,-2,-15
63150113760,-2,-1,-3,-2,-3,1,-4,-7
63150113760,1,-2,-2,-2,0,0,0,1
63150115257,-2,3,-3,2,0,-1,1,8
63150115257,2,0,-3,-2,0,0,-2,-1
63150136332,-1,1,-3,-1,-1,2,3,6
63150136332,-2,-1,0,-2,-1,-1,6,1
63150137795,0,0,-2,-2,0,-2,1,-1
63150137795,-4,-2,-2,-3,-3,-1,3,6
63150150644,6,0,0,2,-2,0,1,23
63150150644,-4,-3,-1,0,0,-2,-2,-10
63150157542,-1,0,0,-1,-1,-1,-1,-9
63150157542,-2,-2,-1,-1,-3,-1,4,14
63150174027,-1,-1,1,-2,-1,1,-1,-8
63150174027,-3,0,-1,0,-1,-2,-9,-7
63150175278,2,-1,1,0,1,1,8,15
63150175278,0,0,-3,-2,-3,-5,-6,-4
63150196197,-3,-2,-2,-2,-2,-1,-5,-14
63150196197,3,-3,-3,0,0,-2,4,21
63150197776,-3,0,-2,-1,-1,-1,-5,-18
63150197776,2,-3,-2,1,-2,-1,-3,-4
63150209921,-6,-1,-2,-1,-2,-1,7,2
63150209921,2,3,-1,-1,1,-1,-3,0
63150218833,-4,-2,-1,0,-1,-1,-3,-7
63150218833,6,0,-1,-2,-1,1,0,0
63150233816,1,-1,-2,1,-2,-3,2,10
63150233816,-6,-1,0,-1,-3,-3,-2,-16
63150235287,-3,-2,-2,-3,-2,-1,-2,-1
63150235287,2,0,-2,-1,0,-1,0,-4
63150256275,-3,-2,-2,-1,2,1,-4,3
63150256275,3,1,-3,1,0,0,0,-1
63150257782,-5,-3,-1,-1,-1,-3,-3,-4
63150257782,-4,-1,0,-1,-3,1,1,2
63150269833,-4,-1,-1,-4,-1,-3,-8,-11
63150269833,2,-3,0,1,-2,-2,1,5
63150278743,0,0,-1,1,-1,2,-1,1
63150278743,3,1,-1,-2,1,1,4,10
63150293771,-2,0,1,-1,-1,-3,-7,-14
63150293771,-4,-1,-1,-2,-1,-3,-1,-2
63150295245,-1,-1,0,-2,-2,-2,0,-2
63150295245,0,0,1,2,1,2,-6,9
63150316273,6,0,-2,-1,-1,1,1,-3
63150316273,2,-3,-2,-1,-1,-1,0,8
63150317773,1,-2,0,-2,0,-3,4,2
63150317773,-3,-1,-1,-1,-1,-1,-8,-7
63150329993,-4,-1,-2,-1,-2,0,2,-3
63150329993,0,-2,-1,1,0,0,-3,-13
63150338809,0,0,0,-1,-2,-4,-1,7
63150338809,0,-2,2,1,-2,2,-1,1
63150353757,-3,-1,0,-1,-1,-4,7,-7
63150353757,1,-1,-2,0,-2,0,-2,5
63150355257,-4,0,-2,1,0,-4,-8,-15
63150355257,-3,-3,-2,-1,0,3,10,13
63150376270,2,-1,0,0,-2,-1,-1,4
63150376270,2,3,-2,0,-2,-1,-7,-1
63150377780,-7,-4,-3,-3,-2,2,2,-10
63150377780,-3,1,0,-2,1,-4,-10,-26
63150389852,-4,-2,2,-3,-1,-6,0,6
63150389852,-3,0,0,-1,-1,-3,0,0
63150398897,6,-1,-2,2,2,1,-6,1
63150398897,-1,-1,-3,1,0,-1,4,4
63150414347,-3,1,-2,0,-1,-1,-8,-10
63150414347,0,0,0,-3,-1,1,2,-3
63150415749,-1,-2,-1,-4,-1,-4,-2,4
63150415749,-2,-3,-1,-1,-2,-1,2,2
63150443778,0,-2,0,0,0,1,-1,1
63150443778,-4,-2,-1,-1,0,1,9,0
63150445289,4,1,-1,-1,-2,1,4,16
63150445289,-3,0,-2,-1,-1,-3,-1,-12
63150449939,0,1,-2,-1,-2,1,-4,-10
63150449939,-3,-2,-2,-3,0,-2,-2,-6
63150458807,-5,-2,-1,-2,-2,-1,-2,-10
63150458807,3,0,-1,-1,-2,-2,2,7
63150473852,0,-1,-2,-1,-1,-1,-2,-5
63150473852,-3,-3,-2,-1,0,0,-2,4
63150475286,0,-2,0,0,0,0,-1,0
63150475286,-2,-3,0,-3,0,-3,-3,0
63150496267,2,0,0,0,-2,0,-1,-3
63150496267,-3,-2,-1,1,1,-4,-8,4
63150497762,2,0,-1,-1,-3,-2,4,12
63150497762,-6,-2,-1,-1,-1,-2,-2,-11
63150518741,-2,-1,-1,-1,0,-1,-2,-1
63150518741,0,-2,0,-2,-3,-1,-3,-5
63150519226,-3,-1,1,1,-1,0,3,-7
63150519226,5,-1,-2,0,-1,-2,-7,2
63150533108,-4,-2,-2,-1,1,4,16,17
63150533108,-5,-1,-2,0,-2,-2,-3,-9
63150533788,3,1,0,1,-2,-1,-4,7
63150533788,4,0,0,-1,-3,-2,2,3
63150555565,-1,0,0,-1,0,2,-2,19
63150555565,-4,-3,0,-2,0,-3,5,-5
63150556291,-4,-4,-2,0,-1,1,-4,-3
63150556291,2,0,-2,-1,-3,-1,-2,10
63150578108,-4,-1,-2,-1,-2,-4,-6,-19
63150578108,-3,-1,0,-1,-1,0,2,-4
63150578747,7,2,-1,-1,-1,-1,-1,7
63150578747,-8,-3,1,-1,-1,0,4,10
63150593076,5,-1,0,-2,0,-2,0,-4
63150593076,2,1,0,0,-1,0,1,5
63150593787,-4,-2,0,2,0,-1,-3,-11
63150593787,0,0,-1,-1,-2,-1,0,-4
63150615601,-2,-1,-3,0,-1,5,1,1
63150615601,-1,-2,-3,0,1,-14,-11,-2
63150616261,-2,-1,-2,-3,0,-1,11,-1
63150616261,-2,-1,0,0,-2,-1,-10,-5
63150638054,-2,-2,0,-2,-3,5,2,9
63150638054,3,1,-2,0,-2,-1,-2,-11
63150638738,-5,-1,-3,-2,-3,-5,-4,-8
63150638738,2,1,-1,-3,0,-3,-2,3
63150653078,1,-1,2,0,0,-3,-1,-2
63150653078,-2,0,0,-1,-1,3,1,-1
63150653756,1,0,-1,0,0,-1,-7,2
63150653756,-5,-2,-1,-1,-3,3,6,-7
63150675634,4,-1,-1,0,-2,-7,-9,-9
63150675634,2,-1,-1,-1,0,5,6,14
63150676280,-4,-3,0,-3,1,-1,-1,5
63150676280,0,0,-1,-1,-1,0,1,0
63150698075,-1,-2,-1,0,1,-1,0,-3
63150698075,2,2,-1,0,-1,1,-2,1
63150698778,0,-1,-2,-2,-1,-3,0,5
63150698778,-1,-1,0,-1,1,-1,-7,-7
63150713079,-2,-1,1,-1,0,-4,4,-3
63150713079,-4,-1,-2,0,-3,1,-4,-11
63150713758,1,0,-2,0,0,-1,-4,-9
63150713758,1,-2,-1,0,-1,-2,7,3
63150735529,-6,0,-2,0,-2,-5,-6,-14
63150735529,4,-1,0,-2,0,5,2,10
63150736233,1,-1,-1,-1,-2,-1,-3,-5
63150736233,0,-3,-3,0,-1,-3,4,0
63150758044,-5,-1,-2,-2,-1,-2,-2,-2
63150758044,6,1,2,-1,0,1,-4,7
63150758712,-2,0,-1,-2,-1,-1,7,3
63150758712,-2,-2,-1,-1,-1,3,-2,-3
63150773077,2,0,-1,0,-3,-1,-1,2
63150773077,-10,-3,-2,-3,0,-4,0,-7
63150773763,1,1,-2,0,0,5,-2,-2
63150773763,0,0,0,-2,-1,-5,-2,9
63150796183,1,-1,0,-1,0,1,-1,-6
63150796183,-1,-2,1,-2,-1,-6,-4,0
63150796731,-7,-2,1,0,0,3,4,-9
63150796731,2,0,0,1,0,-3,-2,-8
63150817858,0,-1,-1,-2,0,-2,-2,1
63150817858,0,-1,1,0,-1,1,-1,-2
63150825654,-2,-1,-2,-1,-1,-5,-2,2
63150825654,-3,-1,-1,-1,0,1,1,-7
63150833073,-3,0,-3,0,1,-2,-1,-5
63150833073,-2,-3,-3,0,-1,-1,-2,-5
63150833763,4,0,-1,-4,0,0,5,2
63150833763,1,0,0,-3,-1,-3,2,27
63150855464,-4,-2,-1,0,-1,-2,-3,-14
63150855464,0,0,-2,-2,1,4,3,0
63150856243,-1,-1,1,1,-2,-7,-8,-2
63150856243,-5,-2,-1,-1,-1,1,-4,-14
63150878772,4,-1,-1,-4,0,0,-1,9
63150878772,-9,-3,-1,-2,-2,-1,-6,-2
63150879492,1,-1,-1,-1,0,3,8,-9
63150879492,1,0,-3,1,-1,-2,0,17
63150893119,2,-2,-2,0,-1,3,9,8
63150893119,0,0,-2,2,0,-8,-9,-8
63150893754,-3,-1,-3,-2,-2,-2,-8,-1
63150893754,4,-1,-2,-3,-1,-1,1,0
63150915585,1,1,0,0,-1,-1,-7,-9
63150915585,-2,-2,0,-2,-2,1,12,24
63150916248,-5,-2,-2,1,-1,-4,-16,-7
63150916248,-7,-3,-3,-2,0,3,0,-22
63150938780,5,1,1,-3,1,-3,1,18
63150938780,1,-1,-1,-4,-2,-2,3,-6
63150939461,1,-2,0,-1,-2,-2,-2,9
63150939461,-4,-2,-1,2,0,-2,-1,-6
63150953107,-2,-1,0,1,-3,0,-2,2
63150953107,-2,-1,-2,-2,-2,-2,0,5
63150953714,-1,-1,0,0,1,-1,0,8
63150953714,-3,-1,0,1,0,-5,-8,-15
63150975533,-3,-1,0,-2,-3,1,9,7
63150975533,8,2,-1,3,0,2,1,0
63150976232,1,-1,-3,0,-2,2,-1,-3
63150976232,-6,-2,-3,-1,0,-5,-5,-4
63150998758,-3,0,-1,2,-3,-2,-9,-10
63150998758,-5,-2,1,-2,-2,-1,-6,-18
63150999438,1,-1,0,-1,1,3,6,4
63150999438,1,0,-1,-2,-1,4,4,1
63151013090,-2,-3,-4,-1,-1,-1,-9,1
63151013090,0,0,0,-1,-2,-3,-4,-9
63151013773,-3,-2,-1,-1,-1,-3,0,-1
63151013773,1,-1,0,-2,0,-3,2,-10
63151035497,0,-4,-1,-2,1,-4,2,4
63151035497,-4,0,-1,-1,1,1,-1,1
63151036270,-2,-2,-2,0,-3,-2,-1,3
63151036270,0,0,1,-2,1,1,-2,-4
63151058720,-5,-2,-1,0,-1,0,-3,-12
63151058720,8,0,0,1,0,0,1,13
63151059404,-4,0,-2,-1,-1,-2,-5,-13
63151059404,0,0,-1,-1,0,1,1,12
63151073008,-4,0,-1,-2,-1,-1,-2,-7
63151073008,-6,-2,-2,-2,-3,-5,2,-14
63151073746,1,-1,0,-1,-2,-2,-2,12
63151073746,1,-1,-1,-1,-2,0,-2,-2
63151095661,3,-1,0,-2,-1,-1,0,12
63151095661,-4,0,-1,-2,-1,2,-1,-7
63151096240,3,1,-2,-1,-1,-5,5,6
63151096240,-4,0,-2,-2,-5,-5,0,-3
63151118749,1,-2,-2,-1,1,4,5,-1
63151118749,5,0,-3,-2,-1,2,1,15
63151119420,-3,-4,-1,-2,-1,-9,-12,8
63151119420,-3,-2,-1,0,-1,0,7,-4
63151133116,1,-1,-2,-4,-3,-3,0,4
63151133116,-3,-1,-1,0,-1,3,1,-3
63151133801,0,-2,-2,0,-1,-4,-2,-7
63151133801,-4,-3,0,-1,1,0,-4,-2
63151155585,-3,-1,1,-1,-1,-2,-3,-2
63151155585,-2,-1,-2,-1,0,-4,2,-8
63151156261,-2,-2,-2,0,-2,2,2,1
63151156261,1,1,0,0,-1,-2,-3,3
63151178731,-10,0,-1,0,-1,-2,-2,-33
63151178731,-1,0,0,-2,0,-2,-2,7
63151179401,-2,-1,0,0,0,4,0,-14
63151179401,2,0,1,1,-2,1,3,4
63151192966,0,0,-2,-1,0,-1,-1,5
63151192966,0,1,-2,-1,0,-5,-5,-10
63151193755,-3,-1,0,-2,1,3,-6,-7
63151193755,-1,-3,-4,0,-1,-1,-5,2
63151215561,4,0,-1,-1,1,-3,1,11
63151215561,1,-3,-3,-4,0,-2,-5,-15
63151216233,1,-2,0,0,-1,2,4,14
63151216233,0,-1,-4,-2,-2,2,-2,-6
63151246381,0,-2,-2,0,0,0,-2,-4
63151246381,-4,-2,-2,-2,-2,1,5,-4
63151246935,-4,-1,2,0,-1,-4,-7,-12
63151246935,1,1,0,-2,-2,2,11,5
63151252488,-3,0,0,-2,-1,0,-2,1
63151252488,1,-2,-2,0,-2,-10,-4,12
63151260598,0,1,-2,1,-2,0,2,-4
63151260598,0,0,1,-2,0,-3,-7,-11
63151275588,-4,-1,-1,2,0,-3,-2,-8
63151275588,3,1,0,0,1,2,3,15
63151276262,-1,-1,-2,0,0,-1,2,-3
63151276262,-2,0,-1,0,-1,-3,-3,-7
63151298708,4,1,-1,2,-1,1,-1,7
63151298708,-4,-3,-1,0,-2,-1,1,-4
63151299464,-1,-1,0,-1,-2,-2,-9,1
63151299464,-3,0,-3,-1,-2,0,1,0
63151312472,-3,-3,0,-1,0,-1,-1,3
63151312472,-2,0,-1,-2,-3,-1,1,-2
63151320600,4,0,-2,-2,-2,-1,2,3
63151320600,-1,-1,0,-1,-2,-2,-3,3
63151335448,-6,-2,0,0,-4,-3,1,-1
63151335448,4,-2,0,-2,0,1,-5,-6
63151336232,-2,-3,-2,-2,-1,3,-1,2
63151336232,2,-1,0,1,0,-3,4,6
63151358804,-2,-1,-2,1,0,2,0,-20
63151358804,-3,-1,0,0,2,1,-1,3
63151359462,-2,0,0,-1,0,-1,-2,-6
63151359462,1,-2,1,-2,-1,-1,-5,1
63151372365,-3,-1,-2,-3,0,-2,-3,-15
63151372365,1,-1,1,0,-1,0,6,23
63151380589,-1,-3,-2,0,-2,-3,-4,-7
63151380589,-2,-2,-1,0,1,-1,-4,1
63151395614,5,-1,-1,-2,-1,-1,6,15
63151395614,-4,-2,-2,-1,-1,1,-7,2
63151396254,-1,-1,0,-1,0,0,4,2
63151396254,-1,-5,-2,-2,0,1,-2,-2
63151418699,1,-1,-2,-4,-3,-5,-1,9
63151418699,0,0,-2,0,0,1,-3,-13
63151419380,-2,1,-1,-2,-2,0,1,4
63151419380,-2,-1,0,-1,-1,2,2,0
63151432407,-1,0,-1,0,1,1,-2,17
63151432407,-2,-2,-1,-2,0,-4,-1,-8
63151440640,-1,-1,0,-2,-2,-2,-6,-1
63151440640,-2,-1,-3,-1,-1,-2,0,-6
63151455531,-7,0,-1,-1,-1,0,-2,-16
63151455531,6,-1,-2,0,-1,-3,-1,18
63151456224,3,0,0,0,2,-1,-2,3
63151456224,-4,-1,-1,-1,-1,0,11,-3
63151478506,-3,0,0,0,0,-2,-5,-17
63151478506,-7,-2,-2,-2,-1,1,0,-17
63151485563,6,0,-2,0,-2,0,3,17
63151485563,-8,-2,1,-2,-1,-2,-7,-7
63151492444,-5,-3,-1,-2,-1,-1,-4,2
63151492444,-1,-1,-1,0,-2,-1,-3,-5
63151500656,-3,0,-1,0,-2,0,5,-12
63151500656,3,0,-1,-2,-1,-1,-2,4
63151523748,3,0,-2,-1,-2,1,3,4
63151523748,-3,2,-1,0,-1,-2,-5,-3
63151524472,-4,-1,-3,-1,0,-5,-3,-2
63151524472,1,-1,-3,0,0,4,0,0
63151538734,1,-2,1,-1,1,-1,-1,1
63151538734,-2,-1,-1,-1,-1,0,-1,1
63151539414,-4,-3,-2,-1,-1,-4,-2,-7
63151539414,6,1,-1,2,-1,-3,-1,7
63151552416,-2,-3,-1,0,-2,2,-3,0
63151552416,-4,-1,-1,-2,-1,-2,-3,-18
63151560545,-1,0,1,-1,-1,1,3,1
63151560545,-2,-3,-2,-3,-1,-1,-2,9
63151575733,1,0,-1,-1,0,-3,9,10
63151575733,-4,-2,-1,-1,-1,-3,-16,-4
63151576216,2,-2,1,-2,0,0,7,-5
63151576216,1,0,0,1,-2,-1,-3,-4
63151598672,-4,-2,-3,1,-2,-3,-4,-2
63151598672,2,1,-2,-1,-1,-3,3,2
63151599467,-4,-2,-3,-3,-1,1,-3,1
63151599467,1,0,-1,1,0,-3,-2,3
63151628667,1,-1,-1,-2,1,-2,0,-3
63151628667,0,0,0,-2,-1,5,3,-4
63151629471,-5,-1,-2,-1,-4,-11,-8,-11
63151629471,6,1,1,-1,-1,3,1,2
63151635516,-3,-2,-2,0,-2,-3,-2,-9
63151635516,4,-1,0,1,0,3,1,14
63151636265,0,-2,-1,-1,0,-6,2,0
63151636265,-5,-3,-3,-1,-3,1,-1,-6
63151658734,5,-1,0,-2,-2,-2,-3,4
63151658734,-2,-2,1,-2,1,-4,4,3
63151659435,0,0,0,0,-1,2,1,0
63151659435,-3,-2,0,1,1,-3,-8,-6
63151681257,0,0,-2,0,-1,-1,1,2
63151681257,-6,-1,-1,0,-2,-1,-1,-1
63151681898,0,-3,-3,-2,0,4,11,20
63151681898,-5,-2,-1,-3,0,-7,-7,-8
63151695481,-1,1,1,2,0,2,-2,-4
63151695481,0,-2,-1,0,0,-1,2,3
63151696298,-1,-3,-1,1,-2,1,-6,-9
63151696298,-1,-1,-2,-2,-1,-1,1,-2
63151718586,-3,-1,0,-3,-1,-1,1,-4
63151718586,3,0,-1,0,-2,0,2,-4
63151719362,-1,2,-1,-2,1,-2,-5,-6
63151719362,0,0,-2,-3,-3,-4,-3,3
63151741231,-3,-1,-1,-2,-2,4,-6,-8
63151741231,1,-1,-2,-4,-1,-2,8,19
63151741905,-4,-3,-2,1,-2,4,-3,-23
63151741905,-3,-3,-1,0,0,-6,-4,2
63151755419,0,-1,-1,0,-1,-1,9,7
63151755419,1,-1,-1,-1,-1,-1,-13,-12
63151756340,-2,-3,-2,0,0,-1,6,14
63151756340,-3,0,-1,0,-2,0,1,-8
63151778627,1,-1,-1,0,-2,-2,-7,-7
63151778627,-1,-1,-1,-3,-3,0,7,-3
63151779452,1,1,0,-2,-1,0,-2,-2
63151779452,2,1,1,-2,0,-1,2,3
63151801624,2,-2,-2,-1,-4,-2,-2,8
63151801624,-4,-2,-2,0,-2,-3,-2,-8
63151802380,5,-1,0,-3,-3,-1,-3,3
63151802380,-3,-2,0,-1,0,6,2,-2
63151815612,3,-2,0,-2,1,-3,-1,4
63151815612,-4,-1,-1,-2,-2,-1,-2,-7
63151816216,0,-1,-2,-2,-2,-6,5,-2
63151816216,0,-1,-1,0,-1,5,-6,-1
63151838666,-1,0,-2,0,-2,-2,-4,-8
63151838666,-2,-1,-1,1,2,-3,-1,-4
63151839427,-2,2,1,0,1,0,-1,-4
63151839427,3,-2,-1,-1,-2,-2,1,6
63151861211,-6,-1,-1,-2,2,1,-4,-1
63151861211,2,0,0,-2,-3,1,-4,4
63151861906,0,1,1,-2,-1,0,-3,9
63151861906,-4,-1,0,0,-1,-4,-1,-10
63151875567,1,0,-2,0,-2,1,1,8
63151875567,1,0,-1,-1,-3,-3,-4,-2
63151876257,-1,-2,-1,0,2,0,-3,-6
63151876257,0,-2,-2,-2,-2,-6,-3,-4
63151898728,-2,-2,1,0,0,-2,4,4
63151898728,-2,-2,-2,1,0,-3,0,-1
63151899433,1,-1,-3,-2,-4,1,0,3
63151899433,-2,-2,-3,-2,1,7,-4,-5
63151921242,-1,0,-3,-2,-1,-4,-3,-3
63151921242,0,0,0,-3,-1,-3,1,-5
63151921903,-6,-2,1,-1,-1,2,-1,3
63151921903,-1,-1,-3,-1,0,-2,-1,-4
63151935610,-2,-2,-1,-1,-3,1,0,13
63151935610,-4,-3,0,1,0,1,-2,-19
63151936255,10,-2,0,-1,0,0,4,30
63151936255,-5,0,-1,0,-1,-3,1,-9
63151958739,-3,0,1,-1,-1,0,-4,-16
63151958739,-5,-3,-2,-3,-1,-3,-1,7
63151959412,-3,0,-1,1,-1,1,4,-13
63151959412,0,1,2,-2,0,-5,-1,2
63151981234,2,-1,2,-2,1,2,3,3
63151981234,-2,0,-2,-1,-2,-2,-7,-4
63151981931,-2,-2,-1,1,0,0,-3,-5
63151981931,1,-1,-2,-3,-4,-13,2,9
63151995554,-4,-2,-7,-8,-11,-7,-10,-10
63151995554,2,0,1,12,7,2,8,8
63151996289,-2,-1,2,-6,-9,0,-4,-3
63151996289,-4,-5,-8,-4,2,6,1,0
63152018653,4,5,4,5,6,-2,1,4
63152018653,-3,2,7,5,0,-1,2,0
63152019401,-3,-2,-5,-3,5,10,-4,-5
63152019401,0,-5,-7,-2,-9,-18,-6,-2
63152041125,3,5,13,16,10,13,0,-1
63152041125,-1,-5,-14,-14,-10,-4,-1,3
63152042748,0,7,16,10,8,7,-1,-6
63152042748,1,-3,-10,-15,-11,-14,-8,0
63152054854,-3,-10,-3,4,12,11,11,1
63152054854,1,1,-1,-2,-8,-14,-21,-4
63152063772,-2,-3,-6,-3,9,-18,5,-1
63152063772,-7,-5,-10,-13,-17,1,-6,-6
63152078401,-2,0,3,28,5,-22,0,-1
63152078401,-2,-4,-13,-27,14,14,3,-2
63152084870,-2,-3,6,20,-13,-24,-7,-6
63152084870,5,6,8,-6,19,52,20,8
63152100207,-6,-12,-24,-35,-32,-36,-26,-9
63152100207,6,12,43,58,26,-17,11,9
63152108749,-7,-7,-13,-12,-9,1,-17,-7
63152108749,1,-1,-4,-8,13,4,6,3
63152114923,-3,-6,-9,-1,-6,31,11,-3
63152114923,-6,-8,-14,-19,-28,-16,-7,-4
63152123812,-3,-4,-6,-7,5,14,-1,0
63152123812,-15,-16,1,15,11,-20,-5,-10
63152146262,0,2,-6,-24,-7,-6,-10,0
63152146262,-3,-3,-6,-1,-18,-31,-3,-3
63152147769,3,2,2,4,6,20,17,3
63152147769,-3,-2,-3,-8,-18,3,-6,-4
63152161139,0,0,2,5,20,-5,1,4
63152161139,-2,-2,-6,-11,-17,6,1,-2
63152162779,5,8,9,-2,-6,-21,-1,1
63152162779,-2,-2,0,12,28,20,-8,1
63152183747,0,7,11,5,-18,-7,7,-3
63152183747,6,6,4,-4,37,62,9,10
63152185204,-5,-6,-18,-16,-14,-23,-10,-7
63152185204,2,-7,-3,9,-11,-21,-8,-1
63152198643,0,0,12,11,17,52,13,-1
63152198643,-2,-1,0,-5,5,11,-5,-1
63152200196,-4,3,0,-1,-8,-30,-4,-5
63152200196,6,3,6,5,-2,9,7,-5
63152221279,-20,-34,-14,-5,29,9,-10,-5
63152221279,5,34,12,4,-13,-24,5,3
63152222745,4,14,8,-10,-38,1,-7,-13
63152222745,-9,6,-2,-2,-3,7,5,-12
63152234758,9,-10,-1,-5,-24,-47,-11,22
63152234758,-7,-15,-14,-9,-8,7,-7,-15
63152243739,-9,-26,-6,15,25,-65,3,5
63152243739,25,20,12,11,-11,-36,7,10
63152258667,-24,-32,-25,-24,-62,7,-26,-28
63152258667,-14,30,11,6,23,25,26,15
63152260268,32,14,7,3,-2,-33,-5,19
63152260268,-15,-9,-6,0,15,88,7,1
63152280162,22,34,21,5,-7,-66,-3,13
63152280162,18,-10,2,-17,-68,-75,-8,-7
63152288840,-22,7,-5,-3,24,16,-27,-10
63152288840,1,-39,-11,12,6,31,33,26
63152294853,3,47,6,6,64,-2,-20,-30
63152294853,-22,-7,6,-4,-27,11,18,-19
63152303739,22,-2,-6,-16,-45,48,-7,25
63152303739,-8,-7,3,2,24,-6,5,-10
63152317804,19,14,8,-1,-9,48,17,26
63152317804,-4,-23,-19,3,22,-2,-29,-11
63152326305,-5,-7,3,7,40,74,32,-2
63152326305,13,24,7,-8,-24,-89,-16,4
63152341349,-13,-15,-10,-10,-30,7,6,2
63152341349,7,2,-2,7,29,27,-7,2
63152342741,-8,-12,-1,14,38,109,27,-24
63152342741,-6,-5,-9,-27,-55,-84,-8,-24
63152355222,4,27,21,11,37,-40,-12,5
63152355222,-18,-9,4,5,2,83,-13,-9
63152363758,3,-10,-20,-6,-28,-82,25,24
63152363758,-19,-9,6,-2,19,50,-30,-17
63152378741,8,-28,-6,7,19,85,3,-12
63152378741,24,17,16,5,-9,76,31,28
63152380248,-34,-28,-19,3,23,-80,-32,-21
63152380248,23,44,23,-9,-36,24,29,17
63152402584,-7,-14,3,20,38,-12,-7,8
63152402584,-22,-21,-11,1,4,-33,-12,52
63152404168,14,-14,3,3,-10,-74,-1,20
63152404168,3,11,-8,-5,-2,-81,-65,7
63152414853,-9,6,-5,-11,2,-11,-3,-26
63152414853,10,-8,-4,1,7,-7,5,5
63152423794,6,18,13,-7,-11,6,19,4
63152423794,-24,-12,-8,18,28,48,8,-13
63152438661,14,7,8,-4,-33,-64,-2,16
63152438661,11,-8,-15,7,42,19,26,13
63152440271,-14,-29,-21,-30,-75,-47,-31,18
63152440271,15,38,21,5,1,-2,-7,-35
63152461245,-23,-13,-7,15,38,52,25,-12
63152461245,11,-16,-8,-17,-42,-56,-35,-20
63152462719,-5,13,13,-7,-48,-59,-10,-27
63152462719,-6,-9,-3,18,82,-48,2,40
63152474735,-13,12,-10,-22,-75,27,18,-19
63152474735,-11,-22,-15,-4,-20,-40,-6,-30
63152491257,-11,8,15,18,49,96,25,-4
63152491257,31,13,-5,-29,-84,-45,-39,21
63152498150,8,-8,-8,-2,-2,-28,-7,6
63152498150,-5,6,10,14,61,127,14,-5
63152504891,16,12,5,-1,14,18,16,19
63152504891,-39,-5,5,2,-19,40,25,-19
63152521393,-8,-18,-15,-12,16,-7,-23,-37
63152521393,-3,8,6,-8,-19,27,12,29
63152522728,6,-4,-7,-3,4,-39,-33,-19
63152522728,-5,-13,-12,1,-4,58,10,-2
63152543675,1,2,2,-1,2,-25,-8,11
63152543675,-16,16,10,3,15,29,25,-19
63152545238,0,-2,-12,-3,-31,-48,23,-3
63152545238,23,-10,-4,-16,-47,-49,-54,36
63152557661,27,8,5,14,4,21,41,11
63152557661,-15,-21,-6,9,31,-68,-21,6
63152566299,-12,33,18,4,15,38,5,-57
63152566299,-3,-14,-6,2,13,-75,8,-9
63152581165,10,12,5,-6,-14,45,17,67
63152581165,10,-16,-16,-19,-62,-105,-37,-7
63152582772,6,10,1,8,31,37,-9,7
63152582772,-13,-11,-3,0,10,25,15,-18
63152603736,-3,0,2,9,11,-12,-2,1
63152603736,-2,0,-1,2,34,14,2,-20
63152605249,2,-17,-12,-3,1,28,-1,-6
63152605249,10,8,9,-7,-40,-31,-2,26
63152618050,-14,-10,-7,2,24,9,7,-43
63152618050,13,15,5,-7,-30,-58,-31,4
63152624828,-9,-14,-8,-5,-2,64,-1,2
63152624828,-1,-9,-2,12,51,42,17,6
63152641107,-22,-13,-15,-17,-32,-22,-13,-4
63152641107,12,32,17,-6,-5,-25,-21,-42
63152642702,-19,-10,-8,-13,-28,-58,-43,12
63152642702,0,-17,-9,12,33,71,25,21
63152663775,-13,1,8,17,67,50,4,-23
63152663775,15,13,1,-20,-74,-53,-8,18
63152665231,-5,-2,-9,-5,2,-29,-13,-2
63152665231,9,-11,1,-2,5,4,17,6
63152677950,-6,-22,-21,0,-12,-43,-5,-13
63152677950,10,27,14,15,59,29,14,18
63152684704,17,19,4,-5,10,38,-9,-12
63152684704,-25,-9,-11,1,-4,-47,20,4
63152701165,17,5,2,-6,23,-16,-38,-37
63152701165,-19,-7,-12,-9,-10,81,21,-31
63152702729,-10,9,4,-4,-40,-13,16,6
63152702729,-4,13,4,7,31,76,11,4
63152723869,13,-5,-14,-11,-38,-55,-27,20
63152723869,-1,-14,-3,10,28,39,16,10
63152725249,0,-6,-7,-7,2,-54,-18,-5
63152725249,-4,-4,-3,2,6,6,-19,-16
63152746219,-4,-3,21,22,48,82,45,13
63152746219,5,2,-15,-31,-73,-84,-81,5
63152747733,15,1,11,23,49,81,82,26
63152747733,-2,2,-9,-18,-26,-23,-2,-13
63152761096,-3,-8,0,2,-28,-12,0,-13
63152761096,-19,-17,-8,5,14,-4,10,13
63152762762,4,-10,-1,9,33,16,-2,2
63152762762,-3,3,5,-2,16,6,-6,-13
63152783739,6,-10,-9,-19,-36,-21,16,19
63152783739,3,-18,4,21,32,11,18,13
63152785244,-19,11,-10,-21,-54,-35,-25,-4
63152785244,-4,-3,4,16,35,15,15,-5
63152797332,2,-6,-1,-9,-18,31,-19,6
63152797332,-6,21,11,-4,48,37,-6,-12
63152806272,4,-15,-13,-11,-32,41,17,11
63152806272,1,-20,-4,7,10,5,-1,-9
63152821246,3,54,19,-9,-38,-59,-14,8
63152821246,-6,-15,-11,2,-12,-1,14,-13
63152822714,1,-3,7,6,22,1,-12,-5
63152822714,8,22,12,0,-22,-14,-12,6
63152851097,5,-15,-1,15,62,69,19,-11
63152851097,0,1,3,6,-5,68,42,-4
63152852744,-12,-51,-25,-4,-3,-25,-36,9
63152852744,22,43,30,9,45,77,32,-1
63152858067,-8,-8,-13,-8,-40,-87,-12,4
63152858067,-7,2,-1,-15,-47,-34,0,-9
63152864885,5,13,12,16,54,61,-2,-6
63152864885,-18,-30,-13,6,12,24,20,19
63152881282,29,24,5,-12,-30,-9,-19,-13
63152881282,3,-4,-10,4,20,6,1,10
63152882747,-9,-10,1,5,-30,32,16,-13
63152882747,1,0,-5,-6,14,25,-12,-6
63152911238,-4,1,-2,-6,-15,1,5,6
63152911238,-1,-15,-9,5,0,-37,-1,3
63152912737,8,15,11,6,37,8,-3,-4
63152912737,-3,-14,-24,-28,-50,-48,-25,-38
63152918084,0,-2,8,3,-26,-59,12,20
63152918084,3,1,3,9,33,56,7,-3
63152924883,-14,4,5,2,23,47,11,4
63152924883,-11,9,2,-13,-61,-82,-36,-15
63152941232,-5,-17,-12,9,46,75,-5,-7
63152941232,21,2,6,3,-8,-45,-6,9
63152942742,5,40,24,15,20,6,0,13
63152942742,5,-9,-18,-31,-69,-82,-4,29
63152963611,5,-3,-4,-6,-9,-1,-27,-10
63152963611,6,-5,0,11,14,-10,23,5
63152965183,19,-11,-13,-3,-7,-55,-23,-2
63152965183,-8,5,15,10,16,41,45,41
63152978057,-16,-1,-3,2,11,33,-9,-2
63152978057,-10,-9,-6,4,35,-61,-8,-9
63152984936,-2,-5,-15,-39,-118,-24,0,-21
63152984936,5,11,-5,-4,-3,-6,-35,-32
63153001128,-8,-16,-5,4,15,-16,17,24
63153001128,-4,19,7,-9,-1,39,-12,-5
63153002685,5,2,5,12,16,-3,21,2
63153002685,-3,-1,0,6,11,19,-14,-19
63153024071,-20,-8,0,-3,7,44,22,-16
63153024071,20,9,-5,-6,-32,-78,-30,29
63153025675,-26,-8,0,-10,-4,26,6,-4
63153025675,11,4,6,2,2,49,8,1
63153037361,-5,-10,-8,-2,7,-29,-14,-6
63153037361,-6,-4,0,4,-1,18,12,-2
63153046251,-1,12,3,-5,-3,-38,-25,-16
63153046251,0,-7,2,14,41,25,43,0
63153061252,-4,2,-2,-9,-30,6,-16,-1
63153061252,0,-4,1,0,14,110,28,-1
63153062687,13,3,-7,-5,-12,-15,-17,4
63153062687,-3,-22,-10,4,16,-1,-2,-10
63153083728,-3,27,18,2,11,21,3,16
63153083728,-6,-4,0,-12,-31,18,17,8
63153085219,5,-8,0,9,30,-40,5,-6
63153085219,2,-24,-19,-15,-43,-53,-32,24
63153097407,20,17,3,-2,9,45,1,-17
63153097407,-14,-1,1,2,8,-53,-14,-14
63153106248,-2,-2,7,0,1,37,-4,23
63153106248,-3,6,-11,-6,-1,-18,-1,-4
63153121706,1,-17,-2,1,1,-18,6,9
63153121706,1,-3,-7,-8,-26,26,-17,0
63153123193,7,-2,-5,8,34,13,19,8
63153123193,-5,13,3,-6,-30,-55,-27,-22
63153143591,-1,1,4,1,3,-1,0,2
63153143591,-3,9,0,-2,-12,-20,-7,-18
63153145277,-18,-23,-6,0,2,-24,-4,2
63153145277,13,7,11,10,17,29,13,11
63153157349,-14,-14,-13,-2,47,41,-5,-10
63153157349,-13,-9,-5,-17,-49,-63,-2,-23
63153166238,6,9,6,4,-3,19,-2,25
63153166238,-13,-3,-6,-9,3,-8,-15,-27
63153188748,7,-4,-5,2,-6,-16,-7,5
63153188748,-20,-5,-1,7,20,-7,28,-14
63153190201,1,-12,-2,8,32,15,-8,-8
63153190201,-5,22,7,-2,-18,-39,5,-12
63153203790,17,-2,1,-4,-39,-43,3,19
63153203790,-15,-4,-3,-5,-20,-20,-5,-29
63153205236,-2,4,1,5,18,-19,13,-3
63153205236,2,-3,4,4,8,38,-6,3
63153217233,-5,0,-6,-6,-14,-22,23,-7
63153217233,13,5,2,-1,13,24,0,14
63153226275,-2,-12,-9,-9,-26,29,-12,-9
63153226275,-10,1,2,5,5,12,-11,-2
63153241345,3,6,4,1,7,-6,-4,-21
63153241345,22,-1,-3,-4,-7,16,-14,70
63153242737,9,7,8,7,22,-26,34,9
63153242737,-10,-9,-6,-11,-39,-6,-35,-13
63153263609,-9,1,3,10,23,62,22,-11
63153263609,7,-6,3,5,9,-16,-5,-9
63153265219,4,10,-6,-8,7,14,-28,5
63153265219,9,-11,-7,-1,10,10,18,-11
63153277340,-5,7,13,9,-9,-39,-10,1
63153277340,-6,0,-5,-6,11,13,-29,-17
63153293780,-13,-9,1,5,5,10,3,-9
63153293780,1,-6,-9,-8,4,12,-3,1
63153301167,-13,-9,-9,-6,5,-5,-6,5
63153301167,7,-3,0,-6,-19,-31,-8,-6
63153302739,3,7,0,-3,-15,-9,1,-2
63153302739,-1,-3,3,5,28,15,4,5
63153323560,-2,-3,-4,-1,-6,3,1,0
63153323560,6,-1,-6,-8,8,7,7,2
63153325254,2,-7,2,3,-22,-43,-1,13
63153325254,-3,-3,-1,2,-6,-34,-36,-10
63153337417,6,7,1,-6,-18,31,44,1
63153337417,-16,-4,0,8,39,39,11,0
63153346260,1,0,-1,2,15,14,-3,-7
63153346260,-1,-7,0,1,-9,0,8,-4
63153361205,8,22,8,-12,-51,-120,-12,23
63153361205,3,1,1,8,11,-10,-15,-12
63153362689,-11,-5,-5,-7,-8,28,15,-2
63153362689,4,5,1,3,1,-12,12,13
63153383848,-12,-10,-2,0,21,25,3,7
63153383848,5,-9,-6,3,-27,-16,18,-32
63153385213,-8,5,4,-8,-15,-59,-36,8
63153385213,32,9,3,-4,-20,10,25,48
63153406261,-2,-1,-9,-3,12,-8,6,-8
63153406261,-6,-14,2,-4,-1,22,4,10
63153407689,-5,-4,0,5,-1,-6,1,-24
63153407689,-17,-6,-4,-3,15,19,-6,-18
63153421261,8,-1,0,0,5,56,-1,6
63153421261,-3,2,-4,-2,-4,-8,-4,5
63153422746,-7,1,-10,-11,-32,3,-3,-19
63153422746,4,1,4,6,18,3,7,8
63153443738,1,7,0,-2,5,-8,-17,-5
63153443738,-8,13,5,5,11,-15,-19,-7
63153445220,1,-12,-4,-1,-14,6,-5,-1
63153445220,-7,-3,0,-7,-7,35,10,6
63153466259,-11,-12,-5,11,21,-4,-3,-11
63153466259,14,10,3,-6,-29,-80,-3,14
63153467753,-1,7,-2,-12,-27,-12,-18,0
63153467753,8,-9,-4,7,36,11,2,-4
63153481238,0,-2,-4,-4,-14,-6,-6,-15
63153481238,-3,-6,1,2,24,38,21,13
63153482742,4,2,-5,6,16,-11,5,4
63153482742,-1,3,0,-6,-35,-62,2,4
63153503688,-1,-4,-1,-4,-18,11,-11,-20
63153503688,-3,-5,-4,5,19,6,-9,1
63153505187,0,0,2,-4,-17,15,0,-1
63153505187,2,9,2,0,4,17,1,-7
63153526631,8,-4,-6,1,3,-22,1,14
63153526631,-10,-8,-2,-1,-1,32,0,6
63153532403,-6,6,0,0,13,3,8,-4
63153532403,6,-5,-3,1,3,-16,-16,-4
63153541229,12,-2,3,-1,-6,3,9,10
63153541229,-2,8,2,-2,-12,-21,-11,-3
63153542687,2,-3,-2,0,4,5,-2,2
63153542687,-10,1,-2,-2,3,56,12,-14
63153571180,-8,-7,-6,3,6,-18,-10,2
63153571180,5,-1,-3,-6,1,17,6,-3
63153572695,-7,-1,3,0,-14,-64,-12,-3
63153572695,-5,-4,-11,-9,-7,-42,-9,-11
63153586227,2,-1,4,1,19,56,37,16
63153586227,-8,-4,-7,-4,-27,-34,-25,-19
63153587693,8,-1,1,-4,10,5,3,-2
63153587693,0,5,2,8,1,-1,2,-3
63153601182,-10,-3,1,-1,-23,-47,-17,-4
63153601182,-1,2,0,-2,15,21,15,2
63153602775,-2,-4,-3,-4,-1,21,-5,-6
63153602775,-2,-3,-2,-4,-8,-13,11,11
63153623705,-2,-6,-1,3,2,-52,-42,9
63153623705,-24,-1,-1,5,13,-16,-4,-20
63153625230,21,5,1,-1,-6,11,10,15
63153625230,-6,3,1,2,16,44,5,-3
63153646291,-7,-5,-7,-12,-6,-9,-7,-11
63153646291,7,2,-1,2,18,19,-5,4
63153647730,3,5,3,-1,-2,21,8,-3
63153647730,2,6,5,0,-13,-38,-8,4
63153660463,-1,-8,0,1,12,41,12,5
63153660463,3,8,0,-4,-19,-26,18,-16
63153667315,-4,1,-3,1,15,21,5,-2
63153667315,-4,-7,0,8,25,52,10,3
63153683802,-11,-2,-9,-19,-63,-48,-38,-30
63153683802,0,-10,-5,-5,-1,26,17,6
63153685215,-4,2,2,2,-18,-3,2,6
63153685215,-3,-4,-3,-2,3,5,12,-12
63153706301,6,2,4,8,18,49,-13,6
63153706301,-6,-6,-6,-9,-12,-31,2,-2
63153707690,-4,-4,-6,-5,-12,-19,-13,-5
63153707690,-1,-4,-1,0,-7,-9,-1,0
63153720493,0,5,-1,1,23,49,17,4
63153720493,-1,-2,2,4,-1,5,-5,4
63153727329,-2,-4,1,2,2,-10,-1,-2
63153727329,-3,-8,-5,-3,16,-3,-12,-2
63153743758,12,9,3,-1,-14,-25,6,4
63153743758,1,0,2,2,12,2,-1,-10
63153745208,1,-6,-9,-11,-4,-8,-6,5
63153745208,1,1,-1,-7,-13,18,-19,3
63153766394,-9,5,4,3,10,10,13,-5
63153766394,11,4,-1,0,-10,-4,-1,25
63153767696,-3,-3,-2,1,-1,-9,-7,-12
63153767696,-9,3,-1,-3,-4,-5,-4,-9
63153780502,-1,1,-1,3,4,9,14,6
63153780502,-5,-7,-2,1,12,-11,-16,-2
63153787314,4,3,1,-4,-25,23,4,8
63153787314,-3,-5,-2,5,5,-21,-10,2
63153803708,-1,-8,-6,-10,-16,-2,6,-2
63153803708,-6,-6,-4,-2,-7,-7,-1,-4
63153805184,1,1,0,2,26,55,16,-1
63153805184,-2,-3,1,1,-9,-9,2,-2
63153826137,0,2,-2,1,13,32,-3,-6
63153826137,2,1,0,-3,-14,4,-4,-1
63153827705,-4,-5,1,3,17,-13,-11,-5
63153827705,3,1,3,-1,-22,-13,10,-2
63153840388,0,4,1,3,9,-19,-8,2
63153840388,-3,-1,-2,-4,-2,17,-3,-3
63153848734,-3,-7,-2,4,1,-20,10,6
63153848734,0,-1,-2,0,14,4,-4,-4
63153863839,-8,-6,-4,-4,-12,-26,-7,-1
63153863839,2,6,-1,2,3,7,-4,-1
63153865178,-6,-1,-2,-2,-2,-10,-7,-13
63153865178,2,0,-1,-1,3,3,0,-1
63153886212,3,-1,-2,0,-3,5,2,13
63153886212,-2,-4,0,-2,5,8,-13,-5
63153887724,-6,-3,-4,-2,6,-7,0,0
63153887724,-2,-1,-3,-3,-11,-11,0,-2
63153900513,-2,-2,0,-2,2,-17,-18,-7
63153900513,-4,-2,0,-3,-10,-5,0,-5
63153907384,8,3,2,3,3,4,3,9
63153907384,-2,-2,1,0,7,-6,10,1
63153923808,4,-1,0,-2,-5,-5,3,1
63153923808,-6,-4,-3,0,6,29,6,-5
63153925188,-1,0,0,2,-4,-28,-9,-4
63153925188,0,0,-1,-3,-4,-2,-1,1
63153945865,1,1,4,4,5,1,-5,-2
63153945865,5,1,0,-1,-5,5,10,3
63153952396,-2,0,-1,0,1,2,10,-5
63153952396,0,1,0,0,5,3,-1,1
63153959892,1,1,1,-1,-18,-9,4,-1
63153959892,-1,-4,1,0,-7,-14,-2,2
63153968720,0,2,0,-3,1,7,-3,-2
63153968720,-2,-2,-4,-1,-3,-3,-6,-2
63153983796,-3,-1,-3,-1,-1,14,8,-2
63153983796,1,0,1,0,0,-14,-1,1
63153985239,-4,-1,-1,-2,14,8,-3,4
63153985239,0,1,1,0,-20,-14,0,1
63154006212,-2,-2,-1,-1,7,3,-8,-2
63154006212,1,-2,-1,1,-2,0,3,2
63154007753,-1,-1,-1,-3,0,-1,2,-2
63154007753,-1,-1,0,-1,-1,-5,-1,-2
63154021640,-1,-1,1,1,10,6,-1,0
63154021640,1,0,-1,-4,-8,-3,-3,0
63154028839,-3,-3,-4,-2,-6,-14,-9,-3
63154028839,0,0,1,2,0,10,6,2
63154043742,1,0,0,0,-3,-10,3,3
63154043742,0,-1,0,0,5,6,-3,1
63154045187,-1,-1,-1,2,-2,3,4,-4
63154045187,-3,-2,-5,-5,-1,-11,-6,-3
63154066315,0,1,0,-2,-11,-6,6,0
63154066315,-1,-3,-5,-2,2,-16,-4,-3
63154067713,-2,2,3,2,-3,9,3,1
63154067713,0,-3,-2,-4,7,7,-12,0
63154079844,-1,-2,-3,-3,-4,0,8,-3
63154079844,1,0,0,1,10,8,-2,1
63154088753,-1,-1,-5,-3,-9,7,0,-4
63154088753,0,-1,0,0,-4,-9,-4,-2
63154103707,-2,0,1,0,7,13,-3,-3
63154103707,-3,-1,1,0,-3,-8,4,-2
63154105192,1,-2,-2,-3,-4,-9,-9,-2
63154105192,-3,1,1,4,5,15,9,-1
63154126106,-3,-5,-7,-4,-1,-10,1,-1
63154126106,-1,-3,-6,-4,-11,-28,-5,-1
63154127743,1,-2,0,1,-5,-3,0,-2
63154127743,0,1,1,0,1,1,-1,-1
63154139731,1,0,5,5,10,11,0,-1
63154139731,-1,-3,0,2,-3,1,-2,-3
63154148748,0,-1,-1,-2,7,18,12,0
63154148748,1,0,-1,-3,-6,-17,-8,0
63154163826,-5,-2,-3,-5,-11,-20,-7,-11
63154163826,4,0,-2,1,5,17,-3,6
63154165206,-2,2,-1,2,5,-8,-4,0
63154165206,-2,-2,5,1,-3,19,11,3
63154186211,0,2,0,-1,2,-6,-8,-1
63154186211,-3,-1,4,-1,-6,-2,9,-2
63154187720,0,-1,0,-2,1,20,-1,-2
63154187720,-2,-4,-6,-5,-3,-7,-4,-3
63154199880,0,-3,1,1,-2,0,-1,2
63154199880,-1,-3,-3,-1,0,-4,4,-1
63154208803,-2,-3,-2,-4,-4,-17,-26,-5
63154208803,-3,1,-1,-1,-1,14,9,0
63154223375,-3,0,-1,-4,1,-9,-11,-1
63154223375,0,1,-1,2,4,4,3,2
63154229858,-3,-2,-1,0,-1,7,6,-4
63154229858,-1,-1,-3,0,0,-4,-5,-1
63154246162,1,-3,-5,-2,-3,-1,-15,2
63154246162,-5,-2,-6,-4,0,-20,7,-14
63154247720,1,1,1,2,-16,-22,6,0
63154247720,-3,-2,-2,2,8,8,-7,-3
63154259834,0,-2,-1,-3,-2,4,5,2
63154259834,-1,0,0,0,3,13,-3,1
63154268749,2,-2,-2,-2,0,1,-6,-6
63154268749,-2,-3,-3,0,-8,-26,0,-1
63154283830,0,0,-1,-4,-10,3,1,-4
63154283830,0,0,-3,1,4,2,-3,3
63154285193,1,1,8,-2,-3,-1,3,-2
63154285193,1,-1,-7,-5,-9,-18,-1,0
63154306106,-1,-3,-2,1,8,31,7,2
63154306106,-4,-1,1,-3,0,-11,-8,-10
63154307686,4,-2,-3,-6,-5,-7,-11,7
63154307686,2,-1,1,0,10,4,5,3
63154319882,-4,-1,-5,-4,-3,-7,-7,-9
63154319882,-1,-1,1,1,0,8,-3,1
63154328745,-1,-2,-3,0,1,2,12,0
63154328745,-1,1,2,-2,-4,-5,-13,-5
63154343103,0,-4,-4,1,17,12,2,-3
63154343103,0,0,1,-2,-23,-25,-5,2
63154349853,-4,-1,-1,2,16,1,-19,-4
63154349853,1,-3,-2,-4,-13,-1,4,2
63154366198,-1,-1,1,7,16,23,8,1
63154366198,-1,-1,-2,-3,-6,-14,3,-3
63154367696,-1,-2,-1,0,10,15,-1,12
63154367696,-1,-1,-2,-6,-11,-24,0,-5
63154388742,1,-1,1,-1,2,-6,-2,7
63154388742,-2,-2,-1,-3,-2,19,1,-1
63154390210,-1,-1,-2,0,1,-6,4,-4
63154390210,0,-1,2,-1,-5,6,7,1
63154403533,1,3,3,2,0,-12,-1,1
63154403533,2,-1,0,-2,-3,2,-3,1
63154409765,-3,-2,-2,-2,-5,-8,-3,-5
63154409765,-4,-1,0,3,23,9,-7,-7
63154426192,3,-2,-6,-1,-18,-18,-8,13
63154426192,1,0,-2,5,8,10,4,-2
63154427725,-1,1,8,-1,-5,-21,-3,0
63154427725,0,0,-4,2,5,9,3,-1
63154448718,-4,-2,-2,-4,0,-2,-3,-5
63154448718,-3,-3,-4,-1,4,17,5,-3
63154450165,2,3,0,0,6,10,1,1
63154450165,-3,0,1,-3,-9,-5,-3,-3
63154463016,2,-1,-2,-3,6,9,-6,-4
63154463016,0,-1,0,-2,-19,-21,3,5
63154469927,-1,-4,-3,2,7,12,13,-2
63154469927,4,-1,1,-2,4,4,-4,4
63154486202,-3,-2,-2,-2,-24,-12,8,2
63154486202,0,-1,0,-2,7,2,-9,-1
63154487723,-3,1,-1,-1,-3,0,-2,-1
63154487723,0,1,0,2,1,-2,6,2
63154508617,-2,-1,-1,-2,1,-5,-1,-4
63154508617,-1,-1,-2,0,2,4,-4,-5
63154510194,-1,-1,-2,-3,-12,-16,6,2
63154510194,1,1,0,-1,5,10,3,7
63154523035,0,0,1,-1,-1,-5,-10,-1
63154523035,-8,-2,-1,-4,-5,-12,-17,-19
63154529884,4,2,-2,1,4,15,14,7
63154529884,-1,-2,0,0,-1,-3,-5,-6
63154546191,1,-1,2,1,-2,0,2,-2
63154546191,-5,-1,-2,-2,-1,-2,-6,-11
63154547663,0,-2,-2,0,-1,3,-5,-9
63154547663,0,-2,-1,-2,-1,2,2,21
63154567798,1,0,1,-3,-5,-10,4,-17
63154567798,2,0,-1,-2,5,10,0,25
63154576219,-4,-1,-1,-3,-3,-5,-7,-9
63154576219,-2,-4,-1,0,-3,2,-1,-2
63154583057,-1,-2,-1,-3,-5,-5,0,-2
63154583057,2,-2,0,2,6,4,0,0
63154589881,0,-2,-1,-1,2,2,0,6
63154589881,-2,-5,-5,-4,-6,-5,2,-5
63154606247,-6,0,-2,-1,4,8,-5,-8
63154606247,4,-2,-1,-1,-3,3,14,8
63154607683,-1,-2,-3,-1,-6,-10,-1,0
63154607683,-3,-1,-2,0,-1,2,-8,-17
63154628705,2,0,0,-4,-1,0,4,5
63154628705,2,-1,1,-1,0,-5,-3,8
63154630206,-5,-2,-2,-2,-2,-2,-4,-10
63154630206,-3,-1,-2,1,-2,2,-2,-17
63154643057,-6,-2,-1,1,-3,-4,4,17
63154643057,1,0,0,-1,1,1,-2,1
63154649742,-1,-2,-1,-3,-3,-5,-1,1
63154649742,1,0,-1,0,2,0,-4,-9
63154666359,0,-2,-1,-1,-2,-5,0,-2
63154666359,1,0,-2,1,-1,1,-2,-6
63154667715,-4,-3,0,1,2,3,1,11
63154667715,1,-1,0,0,1,-3,-9,-1
63154688704,0,-2,-4,-3,1,8,16,-2
63154688704,-2,-1,-2,-3,-3,-17,-8,4
63154690185,-2,-2,-1,-3,-1,1,-1,-13
63154690185,4,1,-1,-2,-1,0,-1,13
63154702255,-4,-1,-1,-2,-2,2,0,-4
63154702255,-3,0,1,1,1,4,2,4
63154711224,-1,0,-1,-2,-4,-5,2,-1
63154711224,-2,0,1,0,-2,-1,-2,-1
63154726175,-2,-2,0,0,2,-5,-4,-9
63154726175,1,-1,0,-1,0,2,-1,0
63154727669,1,1,-1,-2,0,-4,-6,-2
63154727669,-1,-1,-1,0,-3,2,9,9
63154748752,-4,-1,-1,-2,-3,-2,-5,-3
63154748752,-1,0,0,1,1,1,0,-6
63154750192,-2,-3,-2,-2,-1,0,0,12
63154750192,-2,-1,-2,-1,1,1,-1,-2
63154762265,-3,-2,0,2,0,-2,-5,-15
63154762265,-1,-3,-3,-3,-1,-3,-2,1
63154771211,-1,0,-1,-3,-3,3,3,-8
63154771211,-9,-3,0,-2,1,-12,-14,-13
63154786155,10,1,0,-1,0,7,13,30
63154786155,-1,-1,-3,-2,-2,-1,-6,-8
63154787672,1,0,-1,1,0,-4,-1,-5
63154787672,-1,0,-2,-2,-1,1,-1,-5
63154808757,-6,-2,-2,-2,-1,-2,-6,12
63154808757,-1,0,-2,-2,-2,0,1,-6
63154810222,-1,-2,-3,0,1,-3,-1,2
63154810222,-1,-1,0,-2,-2,1,3,-2
63154822924,1,0,1,-3,-1,-6,-7,-3
63154822924,-2,0,-2,-2,0,2,3,-3
63154829812,4,0,-1,-1,-1,-1,0,5
63154829812,-8,-3,0,0,-2,0,4,-6
63154846276,-3,-1,-1,1,-1,6,-7,-9
63154846276,1,1,-1,0,0,-6,-5,-2
63154847705,-1,-1,0,-1,-2,1,0,-7
63154847705,-3,-1,-1,-3,1,2,3,-2
63154868730,8,1,1,-1,0,-3,1,14
63154868730,-5,-1,0,1,2,3,-1,-8
63154870208,0,-2,0,1,-2,-13,-7,7
63154870208,2,-1,-2,-2,-1,3,0,-6
63154883059,-8,-2,-1,-2,-4,-7,-3,-12
63154883059,1,0,-3,-2,-1,0,-14,-5
63154889858,0,-1,-2,-1,-2,0,9,13
63154889858,-2,-3,-1,0,2,2,-1,-5
63154906221,-1,-1,1,2,-1,-5,-2,-10
63154906221,-4,-2,-1,-2,0,-2,0,-2
63154907692,-2,-1,-3,-2,0,4,-2,-5
63154907692,-1,-1,-3,0,-2,-3,-3,-2
63154928757,1,-1,-1,-1,-2,-2,-2,-2
63154928757,0,1,2,-1,0,0,8,9
63154930169,-3,-1,-2,0,0,-1,-5,-6
63154930169,1,1,-2,-1,0,-1,3,2
63154942232,-1,-1,-1,-1,0,-4,-1,-1
63154942232,-5,-3,-2,-1,-1,1,-7,-10
63154957370,3,0,-1,-1,-1,-1,2,12
63154957370,1,-1,-1,2,1,0,0,4
63154966299,-3,-3,-4,-2,0,-3,0,-8
63154966299,-2,-3,-2,-1,-1,0,6,14
63154967667,-3,-2,-2,-3,-2,2,-5,-12
63154967667,1,-1,0,-1,-2,-2,0,7
63154988752,1,1,0,-2,1,-2,-5,-2
63154988752,-3,1,0,-1,-2,-1,2,-5
63154990219,1,0,0,1,0,-1,3,2
63154990219,-1,0,0,-1,-4,-9,-4,-3
63155002177,1,0,-3,-3,-1,-1,-2,1
63155002177,3,-1,0,-2,-3,-3,1,12
63155011224,3,0,-1,-2,-1,2,-3,-23
63155011224,-9,-3,1,-3,0,0,1,25
63155026087,-2,-2,-3,1,1,0,2,-1
63155026087,2,-4,-2,0,-2,-3,-9,1
63155027681,-2,-1,-1,-2,-1,-2,0,-13
63155027681,5,-2,-2,0,-1,1,-4,2
63155048722,-4,-2,-1,-2,-2,-4,-5,-2
63155048722,3,-1,-2,-2,-1,3,7,-2
63155050229,-8,-3,0,-3,0,-3,7,5
63155050229,-1,1,-3,-1,-1,-1,-8,-7
63155062342,2,1,2,0,-3,-1,-1,5
63155062342,-5,-4,-2,0,1,-2,-3,-5
63155071251,-1,-2,0,0,-2,-2,-3,-9
63155071251,-5,-1,-1,-3,-1,1,3,-7
63155086243,2,0,1,-1,0,-4,-3,5
63155086243,2,0,0,-1,-1,0,4,-4
63155087701,-2,0,0,0,-3,3,-1,4
63155087701,2,-1,-3,0,0,-3,0,-1
63155108743,-5,0,-3,-3,-1,3,-2,-21
63155108743,1,-2,-1,-2,0,-1,3,13
63155110265,-1,1,0,-2,-2,-1,-7,2
63155110265,3,-1,-1,-1,-1,-1,2,2
