63284030289,-0.150695800781,-0.220581054688,-0.2236328125,0.937316894531
63284054072,-0.150695800781,-0.220703125,-0.2236328125,0.937316894531
63284069508,-0.151184082031,-0.223266601562,-0.223571777344,0.936645507812
63284090261,-0.151428222656,-0.22216796875,-0.223388671875,0.936889648438
63284113916,-0.151794433594,-0.220886230469,-0.223205566406,0.937194824219
63284127725,-0.152099609375,-0.220092773438,-0.223022460938,0.937377929688
63284151435,-0.152099609375,-0.220092773438,-0.223022460938,0.937377929688
63284180835,-0.151000976562,-0.223937988281,-0.223754882812,0.936462402344
63284228047,-0.149230957031,-0.229553222656,-0.224792480469,0.935119628906
63284228725,-0.148803710938,-0.230651855469,-0.225036621094,0.934875488281
63284237049,-0.148620605469,-0.230895996094,-0.22509765625,0.934814453125
63284251665,-0.148864746094,-0.230285644531,-0.224975585938,0.934997558594
63284274255,-0.14990234375,-0.229919433594,-0.224609375,0.934997558594
63284312422,-0.149719238281,-0.230041503906,-0.224670410156,0.934997558594
63284316840,-0.149658203125,-0.230041503906,-0.224670410156,0.934997558594
63284352683,-0.149658203125,-0.230041503906,-0.224670410156,0.934997558594
63284362727,-0.149658203125,-0.22998046875,-0.224670410156,0.934997558594
63284368978,-0.150634765625,-0.2294921875,-0.224487304688,0.934997558594
63284390740,-0.151977539062,-0.223083496094,-0.223388671875,0.936584472656
63284413296,-0.152160644531,-0.222290039062,-0.223266601562,0.936767578125
63284443380,-0.152526855469,-0.221069335938,-0.223022460938,0.937072753906
63284451533,-0.153015136719,-0.219665527344,-0.222778320312,0.937377929688
63284475325,-0.1533203125,-0.218811035156,-0.222595214844,0.937561035156
63284497116,-0.153259277344,-0.219055175781,-0.22265625,0.9375
63284511493,-0.15283203125,-0.220275878906,-0.222900390625,0.937255859375
63284534691,-0.152282714844,-0.2216796875,-0.22314453125,0.936950683594
63284557158,-0.151977539062,-0.222473144531,-0.223327636719,0.936767578125
63284571568,-0.150756835938,-0.223999023438,-0.223754882812,0.9365234375
63284594656,-0.150390625,-0.223999023438,-0.223876953125,0.9365234375
63284617186,-0.150390625,-0.224060058594,-0.223876953125,0.9365234375
63284631562,-0.150390625,-0.224060058594,-0.223876953125,0.9365234375
63284654623,-0.150329589844,-0.224060058594,-0.223876953125,0.9365234375
63284677209,-0.150390625,-0.22412109375,-0.223999023438,0.936462402344
63284698207,-0.150512695312,-0.224182128906,-0.224060058594,0.936401367188
63284722152,-0.150512695312,-0.224182128906,-0.224060058594,0.936401367188
63284737161,-0.150512695312,-0.224243164062,-0.224060058594,0.936401367188
63284759659,-0.150451660156,-0.224243164062,-0.224060058594,0.936401367188
63284774702,-0.150451660156,-0.224304199219,-0.22412109375,0.936401367188
63284797215,-0.150451660156,-0.224304199219,-0.22412109375,0.936401367188
63284818075,-0.150573730469,-0.224365234375,-0.224243164062,0.936340332031
63284842173,-0.150695800781,-0.224365234375,-0.224365234375,0.936279296875
63284857176,-0.150939941406,-0.224426269531,-0.224548339844,0.936157226562
63284878298,-0.151428222656,-0.224365234375,-0.22509765625,0.935974121094
63284894701,-0.151550292969,-0.224243164062,-0.226196289062,0.935729980469
63284917186,-0.152038574219,-0.224060058594,-0.227966308594,0.935241699219
63284938200,-0.157043457031,-0.223388671875,-0.231323242188,0.933776855469
63284954670,-0.161010742188,-0.224670410156,-0.234619140625,0.931945800781
63284977204,-0.16357421875,-0.226989746094,-0.236022949219,0.930603027344
63284999737,-0.168518066406,-0.225646972656,-0.239135742188,0.929260253906
63285014663,-0.178161621094,-0.218322753906,-0.245361328125,0.927551269531
63285043193,-0.191467285156,-0.203125,-0.249084472656,0.927368164062
63285058203,-0.203186035156,-0.182434082031,-0.24755859375,0.929565429688
63285073974,-0.204467773438,-0.162719726562,-0.245056152344,0.93359375
63285096915,-0.197143554688,-0.14208984375,-0.241882324219,0.939392089844
63285118219,-0.186218261719,-0.118774414062,-0.237731933594,0.945861816406
63285133990,-0.178161621094,-0.0911254882812,-0.234008789062,0.951416015625
63285157156,-0.17626953125,-0.0580444335938,-0.22998046875,0.955322265625
63285179661,-0.176818847656,-0.0218505859375,-0.225219726562,0.957885742188
63285194049,-0.176330566406,0.0148315429688,-0.219665527344,0.959350585938
63285217167,-0.173645019531,0.0507202148438,-0.213745117188,0.9599609375
63285239662,-0.169555664062,0.0861206054688,-0.208435058594,0.959350585938
63285254018,-0.166076660156,0.120788574219,-0.203674316406,0.957214355469
63285277660,-0.164367675781,0.153747558594,-0.198974609375,0.953796386719
63285299614,-0.164733886719,0.183959960938,-0.193664550781,0.949462890625
63285313986,-0.166381835938,0.211486816406,-0.186828613281,0.94482421875
63285343426,-0.169006347656,0.236450195312,-0.180603027344,0.939575195312
63285359652,-0.171203613281,0.258911132812,-0.175598144531,0.934204101562
63285382178,-0.173767089844,0.278625488281,-0.171203613281,0.928894042969
63285403336,-0.175720214844,0.296020507812,-0.166809082031,0.923889160156
63285419030,-0.176940917969,0.3115234375,-0.162231445312,0.919372558594
63285442224,-0.178039550781,0.324340820312,-0.158813476562,0.915344238281
63285463422,-0.179443359375,0.335327148438,-0.156494140625,0.911499023438
63285479653,-0.179992675781,0.343933105469,-0.154479980469,0.908508300781
63285502612,-0.1806640625,0.350463867188,-0.152648925781,0.906188964844
63285523479,-0.180969238281,0.35595703125,-0.150695800781,0.904296875
63285538990,-0.181823730469,0.36083984375,-0.14892578125,0.902465820312
63285562135,-0.183654785156,0.364868164062,-0.148010253906,0.900634765625
63285583280,-0.183837890625,0.367065429688,-0.147338867188,0.899841308594
63285598991,-0.182922363281,0.367858886719,-0.146606445312,0.899841308594
63285622121,-0.18212890625,0.368103027344,-0.146057128906,0.899963378906
63285644734,-0.182067871094,0.368225097656,-0.145751953125,0.899963378906
63285659667,-0.18212890625,0.367919921875,-0.145751953125,0.900085449219
63285682178,-0.181640625,0.367431640625,-0.146240234375,0.900329589844
63285704618,-0.1806640625,0.366943359375,-0.147155761719,0.900573730469
63285719636,-0.179748535156,0.366577148438,-0.148254394531,0.900695800781
63285742214,-0.179504394531,0.366027832031,-0.149536132812,0.900756835938
63285764632,-0.179809570312,0.365539550781,-0.151000976562,0.900695800781
63285779633,-0.179748535156,0.364807128906,-0.152282714844,0.900756835938
63285802158,-0.18017578125,0.364318847656,-0.153625488281,0.900634765625
63285832227,-0.180358886719,0.36376953125,-0.155151367188,0.900573730469
63285838998,-0.1796875,0.362854003906,-0.156494140625,0.900817871094
63285862171,-0.178833007812,0.361755371094,-0.15771484375,0.901245117188
63285884643,-0.178527832031,0.360961914062,-0.158386230469,0.901489257812
63285890193,-0.179138183594,0.360778808594,-0.158874511719,0.9013671875
63285906589,-0.179870605469,0.360595703125,-0.159545898438,0.901184082031
63285927694,-0.18017578125,0.360290527344,-0.160400390625,0.901062011719
63285950200,-0.179992675781,0.359924316406,-0.161254882812,0.901123046875
63285966607,-0.179626464844,0.359680175781,-0.161987304688,0.901123046875
63285987720,-0.179626464844,0.359558105469,-0.162353515625,0.901123046875
63286010170,-0.179870605469,0.359619140625,-0.162780761719,0.901000976562
63286026486,-0.179870605469,0.359558105469,-0.163269042969,0.90087890625
63286047529,-0.179504394531,0.359313964844,-0.164001464844,0.900939941406
63286070141,-0.179260253906,0.359191894531,-0.16455078125,0.900939941406
63286085136,-0.178894042969,0.358825683594,-0.1650390625,0.901062011719
63286110477,-0.178588867188,0.358154296875,-0.165344238281,0.9013671875
63286130148,-0.177978515625,0.357360839844,-0.165588378906,0.901733398438
63286146586,-0.177429199219,0.356323242188,-0.165954589844,0.902221679688
63286167572,-0.176574707031,0.355407714844,-0.166137695312,0.902709960938
63286190074,-0.175903320312,0.354675292969,-0.166259765625,0.903076171875
63286205196,-0.175231933594,0.354125976562,-0.166320800781,0.903381347656
63286227611,-0.174865722656,0.353637695312,-0.166564941406,0.903625488281
63286250068,-0.174743652344,0.353210449219,-0.166870117188,0.903747558594
63286266579,-0.174438476562,0.352844238281,-0.167114257812,0.903930664062
63286287653,-0.174499511719,0.352905273438,-0.167358398438,0.903869628906
63286310171,-0.174438476562,0.352844238281,-0.167724609375,0.90380859375
63286333961,-0.174499511719,0.352783203125,-0.168029785156,0.903747558594
63286347569,-0.174621582031,0.352966308594,-0.168212890625,0.903625488281
63286370134,-0.174621582031,0.35302734375,-0.168212890625,0.903625488281
63286387918,-0.174621582031,0.353454589844,-0.168273925781,0.903442382812
63286407724,-0.174499511719,0.353942871094,-0.168151855469,0.903259277344
63286430068,-0.174255371094,0.354309082031,-0.168212890625,0.903198242188
63286446584,-0.173828125,0.354675292969,-0.168212890625,0.903137207031
63286467683,-0.173461914062,0.355163574219,-0.168151855469,0.903015136719
63286491510,-0.173400878906,0.355773925781,-0.168029785156,0.90283203125
63286506654,-0.173583984375,0.356201171875,-0.16796875,0.902587890625
63286527645,-0.173461914062,0.356506347656,-0.168029785156,0.902465820312
63286550106,-0.173156738281,0.356689453125,-0.168334960938,0.902465820312
63286566514,-0.172668457031,0.356628417969,-0.168579101562,0.902526855469
63286587576,-0.172241210938,0.356262207031,-0.168762207031,0.902709960938
63286610137,-0.171997070312,0.355651855469,-0.169006347656,0.902954101562
63286627914,-0.171203613281,0.354553222656,-0.169372558594,0.903442382812
63286647582,-0.169616699219,0.352661132812,-0.17041015625,0.904296875
63286671589,-0.166564941406,0.349792480469,-0.171630859375,0.90576171875
63286687976,-0.162658691406,0.346435546875,-0.173034667969,0.907470703125
63286707598,-0.160217285156,0.34228515625,-0.175415039062,0.908996582031
63286732937,-0.157836914062,0.33740234375,-0.178405761719,0.910705566406
63286747935,-0.15478515625,0.330261230469,-0.182556152344,0.913024902344
63286770493,-0.150695800781,0.320556640625,-0.187866210938,0.916076660156
63286790151,-0.147155761719,0.308959960938,-0.192687988281,0.919616699219
63286807915,-0.145263671875,0.294677734375,-0.196838378906,0.923706054688
63286827675,-0.144470214844,0.277526855469,-0.200378417969,0.928405761719
63286850110,-0.144287109375,0.257995605469,-0.203735351562,0.933288574219
63286875450,-0.143371582031,0.236450195312,-0.206909179688,0.938415527344
63286887637,-0.140502929688,0.212829589844,-0.209838867188,0.94384765625
63286910110,-0.135803222656,0.186462402344,-0.212280273438,0.949584960938
63286927918,-0.130187988281,0.157531738281,-0.214538574219,0.955078125
63286947756,-0.122497558594,0.1279296875,-0.215576171875,0.960266113281
63286970173,-0.115905761719,0.0987548828125,-0.215209960938,0.964599609375
63286987945,-0.111755371094,0.069580078125,-0.214477539062,0.9677734375
63287007605,-0.110534667969,0.0411987304688,-0.213928222656,0.969665527344
63287030140,-0.1123046875,0.0149536132812,-0.214172363281,0.97021484375
63287047925,-0.116027832031,-0.0096435546875,-0.215209960938,0.969604492188
63287067482,-0.119201660156,-0.0335693359375,-0.216674804688,0.968322753906
63287090196,-0.121948242188,-0.0569458007812,-0.218688964844,0.966430664062
63287107964,-0.126220703125,-0.0794067382812,-0.222106933594,0.963562011719
63287127638,-0.132019042969,-0.100646972656,-0.226806640625,0.959655761719
63287151491,-0.139099121094,-0.120971679688,-0.232116699219,0.955017089844
63287167910,-0.146728515625,-0.141174316406,-0.237731933594,0.949768066406
63287187500,-0.154968261719,-0.161926269531,-0.243347167969,0.943664550781
63287217684,-0.163696289062,-0.18359375,-0.249328613281,0.936645507812
63287228005,-0.172485351562,-0.206298828125,-0.253662109375,0.929138183594
63287248981,-0.182800292969,-0.222473144531,-0.257690429688,0.922302246094
63287270042,-0.204162597656,-0.218627929688,-0.264587402344,0.916809082031
63287287924,-0.221252441406,-0.203491210938,-0.270751953125,0.914489746094
63287308961,-0.230895996094,-0.184875488281,-0.268371582031,0.916748046875
