63419702847,-0.2119140625,-0.209777832031,-0.479309082031,0.825439453125
63419725814,-0.211975097656,-0.209899902344,-0.479248046875,0.825439453125
63419740394,-0.212585449219,-0.210815429688,-0.478881835938,0.825256347656
63419771684,-0.212097167969,-0.206787109375,-0.478515625,0.826599121094
63419786649,-0.21240234375,-0.207702636719,-0.478149414062,0.826477050781
63419808440,-0.212768554688,-0.208374023438,-0.477905273438,0.826416015625
63419822982,-0.213195800781,-0.205932617188,-0.4775390625,0.827087402344
63419846696,-0.213745117188,-0.201293945312,-0.47705078125,0.828369140625
63419862297,-0.214233398438,-0.197143554688,-0.476806640625,0.829406738281
63419884224,-0.214477539062,-0.1962890625,-0.47705078125,0.829406738281
63419913709,-0.214538574219,-0.199401855469,-0.477661132812,0.828247070312
63419926419,-0.21435546875,-0.204895019531,-0.478515625,0.826477050781
63419947570,-0.214477539062,-0.209533691406,-0.47900390625,0.825012207031
63419966160,-0.215087890625,-0.208679199219,-0.479736328125,0.824645996094
63419984392,-0.215393066406,-0.208068847656,-0.481140136719,0.823913574219
63420002955,-0.2177734375,-0.206787109375,-0.483703613281,0.822143554688
63420018031,-0.22265625,-0.205200195312,-0.486572265625,0.819519042969
63420063488,-0.227722167969,-0.203308105469,-0.489685058594,0.816711425781
63420064202,-0.234558105469,-0.192077636719,-0.494018554688,0.814880371094
63420078467,-0.240783691406,-0.186279296875,-0.498657226562,0.811584472656
63420101005,-0.244262695312,-0.173828125,-0.500671386719,0.812072753906
63420123584,-0.245178222656,-0.15234375,-0.498107910156,0.817687988281
63420139553,-0.23876953125,-0.1279296875,-0.491394042969,0.827758789062
63420162257,-0.22802734375,-0.0997314453125,-0.483154296875,0.839416503906
63420184578,-0.214111328125,-0.068115234375,-0.47509765625,0.850769042969
63420205844,-0.200256347656,-0.0333251953125,-0.467346191406,0.860473632812
63420222285,-0.188293457031,0.003173828125,-0.458984375,0.868286132812
63420244799,-0.179077148438,0.0406494140625,-0.44921875,0.874328613281
63420265936,-0.170776367188,0.0796508789062,-0.437866210938,0.879089355469
63420282314,-0.163452148438,0.119934082031,-0.426330566406,0.881530761719
63420304781,-0.158569335938,0.160400390625,-0.414123535156,0.8818359375
63420325932,-0.155883789062,0.2001953125,-0.401062011719,0.880187988281
63420342288,-0.154846191406,0.237426757812,-0.388366699219,0.876831054688
63420364793,-0.155578613281,0.270385742188,-0.376586914062,0.872253417969
63420385740,-0.156860351562,0.296813964844,-0.365905761719,0.867980957031
63420402338,-0.158874511719,0.318725585938,-0.35498046875,0.864379882812
63420432344,-0.162414550781,0.335754394531,-0.345336914062,0.861145019531
63420445995,-0.169616699219,0.351623535156,-0.337646484375,0.8564453125
63420462308,-0.177856445312,0.364440917969,-0.333435058594,0.85107421875
63420484773,-0.183898925781,0.373596191406,-0.330688476562,0.846862792969
63420505933,-0.188537597656,0.379516601562,-0.328186035156,0.844177246094
63420522733,-0.194519042969,0.3837890625,-0.326538085938,0.841552734375
63420544787,-0.2001953125,0.387573242188,-0.325622558594,0.838806152344
63420565984,-0.205688476562,0.389465332031,-0.325378417969,0.836730957031
63420582236,-0.211791992188,0.390014648438,-0.3251953125,0.8349609375
63420604829,-0.216186523438,0.387817382812,-0.326110839844,0.834533691406
63420625981,-0.218322753906,0.384094238281,-0.328063964844,0.8349609375
63420642247,-0.220031738281,0.380981445312,-0.330017089844,0.835144042969
63420664787,-0.223205566406,0.379150390625,-0.331665039062,0.83447265625
63420693373,-0.227233886719,0.377502441406,-0.333374023438,0.83349609375
63420709740,-0.229675292969,0.375122070312,-0.335510253906,0.8330078125
63420724705,-0.230224609375,0.372314453125,-0.337768554688,0.833190917969
63420745993,-0.231079101562,0.370361328125,-0.339904785156,0.832946777344
63420761634,-0.232116699219,0.369689941406,-0.34130859375,0.832397460938
63420785430,-0.233764648438,0.369506835938,-0.34228515625,0.831665039062
63420807260,-0.234741210938,0.369140625,-0.343078613281,0.831176757812
63420822318,-0.23486328125,0.368896484375,-0.343872070312,0.830932617188
63420844784,-0.234741210938,0.368835449219,-0.344543457031,0.830688476562
63420867307,-0.234375,0.368957519531,-0.345092773438,0.83056640625
63420882331,-0.233703613281,0.369262695312,-0.345581054688,0.830383300781
63420904781,-0.232604980469,0.369689941406,-0.346252441406,0.830261230469
63420927307,-0.231506347656,0.369689941406,-0.346984863281,0.830261230469
63420949783,-0.230407714844,0.36865234375,-0.347595214844,0.830749511719
63420972312,-0.230163574219,0.366760253906,-0.348266601562,0.831420898438
63420987282,-0.22998046875,0.365051269531,-0.349304199219,0.831726074219
63421001648,-0.230590820312,0.363159179688,-0.350646972656,0.831848144531
63421024764,-0.232421875,0.360961914062,-0.351989746094,0.831726074219
63421047301,-0.234069824219,0.358703613281,-0.353637695312,0.83154296875
63421069785,-0.235595703125,0.357055664062,-0.355163574219,0.831176757812
63421090920,-0.237182617188,0.356201171875,-0.356262207031,0.83056640625
63421107288,-0.238159179688,0.356018066406,-0.357116699219,0.830017089844
63421129805,-0.238647460938,0.356018066406,-0.357849121094,0.82958984375
63421150810,-0.238708496094,0.35595703125,-0.3583984375,0.829345703125
63421174809,-0.238586425781,0.355651855469,-0.358581542969,0.829467773438
63421189784,-0.238525390625,0.355163574219,-0.358459472656,0.829711914062
63421210848,-0.238525390625,0.354858398438,-0.358032226562,0.830017089844
63421227327,-0.238708496094,0.354736328125,-0.357482910156,0.830261230469
63421250204,-0.238952636719,0.354248046875,-0.357116699219,0.83056640625
63421271095,-0.239135742188,0.353637695312,-0.357116699219,0.830749511719
63421287313,-0.238525390625,0.352966308594,-0.357421875,0.831115722656
63421309780,-0.237915039062,0.35302734375,-0.357727050781,0.831115722656
63421331044,-0.237365722656,0.353881835938,-0.357727050781,0.830932617188
63421347307,-0.236511230469,0.354675292969,-0.358032226562,0.830688476562
63421369781,-0.235412597656,0.355590820312,-0.358337402344,0.830505371094
63421392310,-0.234252929688,0.3564453125,-0.358520507812,0.830322265625
63421407314,-0.233215332031,0.356994628906,-0.35888671875,0.830261230469
63421429761,-0.232238769531,0.357299804688,-0.359375,0.830200195312
63421452284,-0.2314453125,0.357360839844,-0.359985351562,0.830139160156
63421467283,-0.230895996094,0.356994628906,-0.360595703125,0.830200195312
63421489749,-0.229919433594,0.35546875,-0.361450195312,0.830688476562
63421512286,-0.228576660156,0.352844238281,-0.362426757812,0.831787109375
63421526640,-0.22607421875,0.350158691406,-0.36328125,0.833251953125
63421549738,-0.221862792969,0.347351074219,-0.364990234375,0.834777832031
63421573699,-0.2158203125,0.343322753906,-0.368469238281,0.836486816406
63421594771,-0.209838867188,0.337219238281,-0.37255859375,0.838684082031
63421609782,-0.204040527344,0.329284667969,-0.37744140625,0.841064453125
63421632280,-0.198303222656,0.321105957031,-0.383117675781,0.843017578125
63421653304,-0.193359375,0.313232421875,-0.388061523438,0.844909667969
63421669705,-0.190734863281,0.305969238281,-0.391662597656,0.846496582031
63421699806,-0.190063476562,0.298278808594,-0.396484375,0.84716796875
63421713350,-0.191223144531,0.29052734375,-0.401245117188,0.847351074219
63421729786,-0.191650390625,0.283569335938,-0.40478515625,0.847900390625
63421752284,-0.191833496094,0.278198242188,-0.407958984375,0.84814453125
63421773375,-0.192504882812,0.274108886719,-0.410217285156,0.848205566406
63421789783,-0.193054199219,0.271545410156,-0.410766601562,0.848693847656
63421812468,-0.193603515625,0.270874023438,-0.410339355469,0.848999023438
63421833412,-0.193542480469,0.271484375,-0.409790039062,0.849060058594
63421857306,-0.191528320312,0.272583007812,-0.408386230469,0.849792480469
63421872289,-0.187377929688,0.273315429688,-0.406066894531,0.851623535156
63421893558,-0.181762695312,0.273132324219,-0.402648925781,0.8544921875
63421910202,-0.174682617188,0.271545410156,-0.398010253906,0.858642578125
63421932289,-0.166442871094,0.268432617188,-0.392456054688,0.863830566406
63421953568,-0.158813476562,0.264343261719,-0.388549804688,0.868286132812
63421969797,-0.15478515625,0.259521484375,-0.387451171875,0.870971679688
63421992285,-0.15380859375,0.254577636719,-0.387084960938,0.872741699219
63422013585,-0.155212402344,0.251403808594,-0.385864257812,0.873962402344
63422029771,-0.159240722656,0.250122070312,-0.384460449219,0.874206542969
63422052255,-0.16162109375,0.247619628906,-0.384521484375,0.874450683594
63422057695,-0.162719726562,0.2431640625,-0.386169433594,0.874755859375
63422083070,-0.164489746094,0.239624023438,-0.3876953125,0.874755859375
63422095299,-0.167358398438,0.238525390625,-0.38818359375,0.874267578125
63422117690,-0.170104980469,0.2392578125,-0.388061523438,0.873596191406
63422140302,-0.171752929688,0.239868164062,-0.387939453125,0.873168945312
63422155159,-0.172180175781,0.238891601562,-0.388366699219,0.873168945312
63422185196,-0.171875,0.2373046875,-0.388549804688,0.873596191406
63422200175,-0.170837402344,0.23583984375,-0.387878417969,0.874450683594
63422215142,-0.170715332031,0.23291015625,-0.387023925781,0.875671386719
63422237647,-0.171813964844,0.227966308594,-0.387145996094,0.876708984375
63422260298,-0.174926757812,0.221557617188,-0.38720703125,0.877685546875
63422275279,-0.179748535156,0.21435546875,-0.38671875,0.878723144531
63422297770,-0.187377929688,0.206909179688,-0.385559082031,0.879455566406
63422320267,-0.195373535156,0.197937011719,-0.3837890625,0.880493164062
63422335215,-0.202819824219,0.187316894531,-0.382446289062,0.881774902344
63422360581,-0.209167480469,0.175903320312,-0.38134765625,0.883117675781
63422380261,-0.211181640625,0.164916992188,-0.380920410156,0.884948730469
63422395212,-0.200439453125,0.1484375,-0.382202148438,0.889770507812
63422417787,-0.191833496094,0.132446289062,-0.382751464844,0.893920898438
63422440259,-0.191955566406,0.118957519531,-0.386047363281,0.894409179688
63422462791,-0.201293945312,0.112243652344,-0.3916015625,0.890747070312
63422477760,-0.213134765625,0.112854003906,-0.394714355469,0.886596679688
63422500290,-0.224548339844,0.1201171875,-0.392700195312,0.883666992188
63422515399,-0.229553222656,0.126647949219,-0.391174316406,0.882141113281
63422537771,-0.226318359375,0.12939453125,-0.393310546875,0.881652832031
