63487899224,-0.204711914062,-0.196838378906,-0.505981445312,0.814453125
63487914166,-0.204895019531,-0.197021484375,-0.506225585938,0.814208984375
63487938077,-0.204895019531,-0.197448730469,-0.506225585938,0.814147949219
63487959205,-0.205444335938,-0.195678710938,-0.505981445312,0.814514160156
63487974283,-0.205444335938,-0.200012207031,-0.506164550781,0.813354492188
63487997874,-0.205383300781,-0.203796386719,-0.506164550781,0.812438964844
63488019188,-0.205200195312,-0.209228515625,-0.506164550781,0.811096191406
63488034237,-0.204833984375,-0.214172363281,-0.506286621094,0.809875488281
63488056823,-0.204467773438,-0.216003417969,-0.506286621094,0.809448242188
63488101677,-0.204467773438,-0.215393066406,-0.506225585938,0.809631347656
63488112353,-0.204650878906,-0.210021972656,-0.506103515625,0.811096191406
63488126858,-0.205139160156,-0.204345703125,-0.505920410156,0.812561035156
63488141822,-0.204895019531,-0.199645996094,-0.506164550781,0.813598632812
63488158072,-0.206298828125,-0.19921875,-0.506164550781,0.813354492188
63488187393,-0.206665039062,-0.199096679688,-0.506652832031,0.81298828125
63488214038,-0.207153320312,-0.199035644531,-0.507080078125,0.812622070312
63488231859,-0.207641601562,-0.199096679688,-0.507385253906,0.812316894531
63488238543,-0.208129882812,-0.199157714844,-0.507690429688,0.811950683594
63488259794,-0.20947265625,-0.1982421875,-0.507568359375,0.811889648438
63488274764,-0.209045410156,-0.19482421875,-0.507568359375,0.812866210938
63488298570,-0.209228515625,-0.190307617188,-0.507263183594,0.814025878906
63488319802,-0.209594726562,-0.188049316406,-0.507019042969,0.814636230469
63488336581,-0.2099609375,-0.189819335938,-0.507019042969,0.814147949219
63488358638,-0.2099609375,-0.191101074219,-0.507080078125,0.813781738281
63488373001,-0.209777832031,-0.19677734375,-0.507446289062,0.812255859375
63488403623,-0.20947265625,-0.198913574219,-0.507568359375,0.811767578125
63488418611,-0.209228515625,-0.196411132812,-0.507385253906,0.812561035156
63488441075,-0.209228515625,-0.195068359375,-0.507263183594,0.812927246094
63488456044,-0.208251953125,-0.19482421875,-0.507751464844,0.812927246094
63488478636,-0.208679199219,-0.194885253906,-0.507873535156,0.812744140625
63488492920,-0.209045410156,-0.195251464844,-0.508483886719,0.812194824219
63488516096,-0.208984375,-0.195983886719,-0.509521484375,0.811340332031
63488538710,-0.209777832031,-0.195739746094,-0.511474609375,0.809997558594
63488559783,-0.213806152344,-0.192932128906,-0.514953613281,0.807373046875
63488576165,-0.220703125,-0.188598632812,-0.519836425781,0.803405761719
63488598536,-0.228576660156,-0.184265136719,-0.524719238281,0.799011230469
63488619799,-0.235900878906,-0.178771972656,-0.529907226562,0.794738769531
63488636131,-0.242004394531,-0.169860839844,-0.535949707031,0.790771484375
63488658550,-0.2490234375,-0.156188964844,-0.542846679688,0.786743164062
63488681101,-0.256469726562,-0.136657714844,-0.549438476562,0.783386230469
63488696092,-0.261596679688,-0.113403320312,-0.555297851562,0.78125
63488719273,-0.262329101562,-0.0888671875,-0.560424804688,0.780517578125
63488739652,-0.257568359375,-0.064453125,-0.564208984375,0.78173828125
63488756134,-0.251281738281,-0.0364990234375,-0.566833496094,0.783752441406
63488778367,-0.244201660156,-0.00457763671875,-0.568664550781,0.785461425781
63488799615,-0.236083984375,0.0294799804688,-0.5703125,0.786193847656
63488816103,-0.225463867188,0.064453125,-0.571960449219,0.786010742188
63488838643,-0.211791992188,0.0986938476562,-0.5732421875,0.785339355469
63488859644,-0.19775390625,0.132507324219,-0.573486328125,0.783874511719
63488876145,-0.184936523438,0.167663574219,-0.571350097656,0.781799316406
63488906107,-0.173706054688,0.202026367188,-0.566162109375,0.780029296875
63488919691,-0.164978027344,0.234375,-0.558898925781,0.778137207031
63488936124,-0.157836914062,0.264587402344,-0.550720214844,0.775756835938
63488958579,-0.150695800781,0.2919921875,-0.541870117188,0.773559570312
63488990036,-0.143249511719,0.316711425781,-0.53173828125,0.772277832031
63488995555,-0.135009765625,0.338195800781,-0.521179199219,0.771850585938
63489006574,-0.225463867188,0.064453125,-0.571960449219,0.786010742188
63489018664,-0.127380371094,0.357666015625,-0.511413574219,0.770935058594
63489039760,-0.120971679688,0.375061035156,-0.502014160156,0.769836425781
63489055486,-0.115905761719,0.388916015625,-0.493591308594,0.769226074219
63489078609,-0.112915039062,0.397705078125,-0.487976074219,0.768676757812
63489101059,-0.112731933594,0.40478515625,-0.483703613281,0.767761230469
63489115488,-0.111572265625,0.410705566406,-0.480651855469,0.766662597656
63489138367,-0.105834960938,0.413818359375,-0.478515625,0.767150878906
63489168616,-0.09521484375,0.412841796875,-0.477661132812,0.769592285156
63489183628,-0.0831298828125,0.400573730469,-0.482177734375,0.774658203125
63489204767,-0.0733642578125,0.384643554688,-0.488647460938,0.779663085938
63489221110,-0.0701904296875,0.372009277344,-0.494567871094,0.782287597656
63489243586,-0.0770874023438,0.374328613281,-0.494750976562,0.780456542969
63489264736,-0.0888061523438,0.384643554688,-0.487426757812,0.77880859375
63489281158,-0.0996704101562,0.388000488281,-0.480712890625,0.780029296875
63489303540,-0.102844238281,0.383728027344,-0.481018066406,0.781494140625
63489324686,-0.0974731445312,0.377319335938,-0.485717773438,0.782409667969
63489341073,-0.090576171875,0.371948242188,-0.490173339844,0.783020019531
63489363661,-0.087890625,0.369873046875,-0.491455078125,0.783569335938
63489384910,-0.090087890625,0.370239257812,-0.490173339844,0.783935546875
63489401073,-0.0934448242188,0.370910644531,-0.489074707031,0.783874511719
63489423606,-0.0950317382812,0.370971679688,-0.489196777344,0.783569335938
63489444631,-0.0948486328125,0.369873046875,-0.490417480469,0.783386230469
63489461063,-0.0941772460938,0.368408203125,-0.491394042969,0.783508300781
63489489726,-0.0939331054688,0.367431640625,-0.491821289062,0.783752441406
63489512189,-0.0942993164062,0.367309570312,-0.491821289062,0.783752441406
63489521043,-0.0950927734375,0.367370605469,-0.491943359375,0.783569335938
63489543585,-0.095947265625,0.367614746094,-0.492126464844,0.783203125
63489564701,-0.09619140625,0.367797851562,-0.4921875,0.783081054688
63489580433,-0.0961303710938,0.367797851562,-0.4921875,0.783081054688
63489603582,-0.095947265625,0.367553710938,-0.492248535156,0.783142089844
63489626115,-0.095947265625,0.367431640625,-0.492309570312,0.783203125
63489641082,-0.09619140625,0.367309570312,-0.492431640625,0.783142089844
63489663588,-0.096435546875,0.367370605469,-0.492370605469,0.783142089844
63489686101,-0.0968017578125,0.367614746094,-0.492126464844,0.783081054688
63489701762,-0.0968017578125,0.367614746094,-0.492126464844,0.783081054688
63489723595,-0.0968017578125,0.36767578125,-0.492126464844,0.783081054688
63489746066,-0.0968017578125,0.36767578125,-0.492126464844,0.783081054688
63489760434,-0.0963745117188,0.367797851562,-0.491943359375,0.783203125
63489791116,-0.0957641601562,0.367919921875,-0.491577148438,0.783447265625
63489806087,-0.0951538085938,0.367797851562,-0.491394042969,0.78369140625
63489820430,-0.0946655273438,0.367492675781,-0.491271972656,0.783935546875
63489843590,-0.0941772460938,0.367004394531,-0.4912109375,0.784301757812
63489866117,-0.09375,0.36669921875,-0.491088867188,0.784606933594
63489880412,-0.0933227539062,0.36669921875,-0.49072265625,0.784851074219
63489903589,-0.0930786132812,0.366638183594,-0.490539550781,0.785034179688
63489926136,-0.0929565429688,0.3662109375,-0.490539550781,0.785217285156
63489940481,-0.0928344726562,0.365539550781,-0.490783691406,0.785400390625
63489963624,-0.09228515625,0.364624023438,-0.490966796875,0.785766601562
63489986055,-0.0917358398438,0.363525390625,-0.491027832031,0.786315917969
63490000388,-0.0910034179688,0.361999511719,-0.491088867188,0.787048339844
63490023580,-0.0905151367188,0.360107421875,-0.490966796875,0.7880859375
63490046095,-0.0897216796875,0.357238769531,-0.490966796875,0.789489746094
63490068669,-0.0889892578125,0.353454589844,-0.4912109375,0.791076660156
63490083604,-0.0885620117188,0.348754882812,-0.492126464844,0.792663574219
63490106057,-0.0894165039062,0.344360351562,-0.492858886719,0.794006347656
63490127231,-0.0910034179688,0.339721679688,-0.493286132812,0.795593261719
63490143583,-0.0923461914062,0.334106445312,-0.494018554688,0.79736328125
63490174022,-0.0939331054688,0.328002929688,-0.494812011719,0.799194335938
63490190032,-0.0953979492188,0.320922851562,-0.496154785156,0.801025390625
63490203605,-0.0963134765625,0.312866210938,-0.497924804688,0.803039550781
63490226048,-0.0970458984375,0.304077148438,-0.499389648438,0.805419921875
63490247227,-0.0988159179688,0.295043945312,-0.501281738281,0.807373046875
63490263613,-0.101806640625,0.28515625,-0.504455566406,0.80859375
63490286105,-0.104553222656,0.274475097656,-0.507873535156,0.809753417969
63490308680,-0.107971191406,0.263427734375,-0.510864257812,0.811157226562
63490323588,-0.112670898438,0.252319335938,-0.513977050781,0.81201171875
63490346586,-0.1162109375,0.24072265625,-0.518188476562,0.812377929688
63490367245,-0.118103027344,0.229553222656,-0.522033691406,0.812866210938
63490398583,-0.119934082031,0.219909667969,-0.524780273438,0.813537597656
63490406113,-0.121459960938,0.211242675781,-0.527282714844,0.81396484375
63490427216,-0.121948242188,0.203125,-0.529663085938,0.814453125
63490449749,-0.121398925781,0.196105957031,-0.53125,0.815185546875
63490466029,-0.119873046875,0.18994140625,-0.532531738281,0.816040039062
63490488643,-0.118041992188,0.184509277344,-0.53369140625,0.816772460938
63490502947,-0.11669921875,0.180786132812,-0.534362792969,0.8173828125
63490526070,-0.115844726562,0.178466796875,-0.534301757812,0.818054199219
63490548581,-0.115173339844,0.177124023438,-0.533630371094,0.818908691406
63490571034,-0.114624023438,0.176330566406,-0.532897949219,0.819580078125
63490586038,-0.113891601562,0.175537109375,-0.532470703125,0.820190429688
63490608592,-0.113220214844,0.174865722656,-0.531860351562,0.82080078125
63490622989,-0.11279296875,0.174560546875,-0.531127929688,0.821411132812
63490629055,-0.112426757812,0.174621582031,-0.530639648438,0.82177734375
63490651565,-0.111999511719,0.175048828125,-0.530395507812,0.821899414062
63490674134,-0.111083984375,0.175476074219,-0.530395507812,0.821899414062
63490689131,-0.110046386719,0.176208496094,-0.530456542969,0.821838378906
63490711587,-0.109191894531,0.177307128906,-0.530456542969,0.821716308594
63490742909,-0.108703613281,0.1787109375,-0.530334472656,0.821533203125
63490749054,-0.108154296875,0.179931640625,-0.530151367188,0.821472167969
63490771564,-0.107604980469,0.1806640625,-0.530029296875,0.821472167969
63490794072,-0.106872558594,0.180786132812,-0.529968261719,0.821594238281
63490809076,-0.106262207031,0.180419921875,-0.529846191406,0.821838378906
63490834380,-0.106018066406,0.179809570312,-0.529663085938,0.822082519531
63490854058,-0.106018066406,0.179321289062,-0.529602050781,0.822265625
63490870463,-0.106018066406,0.178955078125,-0.529663085938,0.822326660156
63490899036,-0.10595703125,0.178955078125,-0.529663085938,0.822326660156
63490916876,-0.105773925781,0.178771972656,-0.529541015625,0.822448730469
63490928898,-0.105529785156,0.178588867188,-0.529479980469,0.822509765625
63490951582,-0.105285644531,0.178466796875,-0.529541015625,0.822570800781
63490974019,-0.105224609375,0.178466796875,-0.529541015625,0.822570800781
63490989026,-0.105224609375,0.178405761719,-0.529357910156,0.822692871094
63491011507,-0.105224609375,0.17822265625,-0.529235839844,0.822814941406
63491036862,-0.105102539062,0.177795410156,-0.529296875,0.822937011719
63491049055,-0.104858398438,0.177551269531,-0.529357910156,0.822937011719
63491071609,-0.104675292969,0.177185058594,-0.529418945312,0.822998046875
63491093962,-0.104797363281,0.177001953125,-0.529418945312,0.823059082031
63491109080,-0.104919433594,0.177001953125,-0.529296875,0.823120117188
63491131569,-0.104919433594,0.176940917969,-0.529296875,0.823120117188
63491154109,-0.104858398438,0.176940917969,-0.529296875,0.823120117188
