63606719741,-0.2333984375,-0.114074707031,-0.686645507812,0.679016113281
63606742161,-0.2333984375,-0.114074707031,-0.686645507812,0.679016113281
63606765979,-0.234436035156,-0.11474609375,-0.686584472656,0.678588867188
63606780841,-0.235534667969,-0.11865234375,-0.686706542969,0.677429199219
63606802146,-0.233825683594,-0.113037109375,-0.686828613281,0.678833007812
63606825915,-0.232482910156,-0.107666015625,-0.686828613281,0.68017578125
63606840703,-0.232238769531,-0.10693359375,-0.686828613281,0.680358886719
63606869676,-0.232299804688,-0.107238769531,-0.686828613281,0.680297851562
63606892687,-0.232543945312,-0.1083984375,-0.686889648438,0.679992675781
63606939854,-0.234130859375,-0.114440917969,-0.687133789062,0.678161621094
63606940626,-0.2353515625,-0.118041992188,-0.687316894531,0.676940917969
63606941448,-0.235412597656,-0.117431640625,-0.687377929688,0.677001953125
63606953545,-0.237487792969,-0.11962890625,-0.686950683594,0.676330566406
63606978714,-0.237121582031,-0.119750976562,-0.687194824219,0.676208496094
63606997335,-0.237243652344,-0.120361328125,-0.687194824219,0.676025390625
63607015096,-0.237365722656,-0.12060546875,-0.687377929688,0.67578125
63607049483,-0.237609863281,-0.120666503906,-0.687438964844,0.675598144531
63607059753,-0.237670898438,-0.120483398438,-0.687561035156,0.675476074219
63607073383,-0.235717773438,-0.116271972656,-0.688049316406,0.676452636719
63607094454,-0.237182617188,-0.121826171875,-0.688232421875,0.674743652344
63607117037,-0.237487792969,-0.122863769531,-0.688232421875,0.674438476562
63607134875,-0.23779296875,-0.124206542969,-0.688232421875,0.674072265625
63607154561,-0.238098144531,-0.125366210938,-0.688293457031,0.673706054688
63607176931,-0.238098144531,-0.12548828125,-0.688293457031,0.673706054688
63607194827,-0.237854003906,-0.124572753906,-0.688293457031,0.673950195312
63607214481,-0.237487792969,-0.123168945312,-0.688232421875,0.674377441406
63607232342,-0.2373046875,-0.122314453125,-0.688232421875,0.674560546875
63607254832,-0.237365722656,-0.122741699219,-0.688232421875,0.674499511719
63607275877,-0.237365722656,-0.125122070312,-0.688232421875,0.674072265625
63607292235,-0.236755371094,-0.125122070312,-0.6884765625,0.674011230469
63607314841,-0.236267089844,-0.125610351562,-0.688659667969,0.673950195312
63607341906,-0.236145019531,-0.125427246094,-0.689086914062,0.673522949219
63607357053,-0.237731933594,-0.122741699219,-0.690795898438,0.671691894531
63607374867,-0.242553710938,-0.117004394531,-0.694458007812,0.667297363281
63607394586,-0.249206542969,-0.111999511719,-0.698547363281,0.661376953125
63607417024,-0.257629394531,-0.109008789062,-0.701782226562,0.655151367188
63607434844,-0.266906738281,-0.0999755859375,-0.705749511719,0.648620605469
63607455895,-0.270690917969,-0.083740234375,-0.707763671875,0.647155761719
63607477083,-0.269836425781,-0.0606689453125,-0.705383300781,0.652648925781
63607494854,-0.261291503906,-0.0357666015625,-0.702758789062,0.660766601562
63607515835,-0.241455078125,-0.0132446289062,-0.703063964844,0.668762207031
63607537024,-0.213195800781,0.009033203125,-0.705139160156,0.67626953125
63607554793,-0.180603027344,0.0337524414062,-0.7060546875,0.683898925781
63607575871,-0.149841308594,0.0636596679688,-0.705444335938,0.689819335938
63607596953,-0.123291015625,0.100280761719,-0.702270507812,0.693969726562
63607615586,-0.101318359375,0.141357421875,-0.697021484375,0.695617675781
63607635873,-0.0805053710938,0.181945800781,-0.691101074219,0.69482421875
63607659856,-0.0616455078125,0.220275878906,-0.683654785156,0.692993164062
63607674838,-0.0440673828125,0.255676269531,-0.675842285156,0.689880371094
63607695818,-0.0298461914062,0.287841796875,-0.668334960938,0.685241699219
63607725233,-0.0178833007812,0.316284179688,-0.660400390625,0.680847167969
63607734018,-0.008544921875,0.3408203125,-0.652954101562,0.676330566406
63607755161,-0.002197265625,0.360961914062,-0.646728515625,0.671875
63607777644,0.001953125,0.375183105469,-0.642578125,0.668029785156
63607794032,0.00457763671875,0.384521484375,-0.640747070312,0.664489746094
63607815102,0.00482177734375,0.390808105469,-0.640563964844,0.661010742188
63607837628,0.0032958984375,0.39599609375,-0.641479492188,0.657043457031
63607853994,0.000244140625,0.400268554688,-0.643371582031,0.652587890625
63607876567,-0.00250244140625,0.403747558594,-0.645568847656,0.648254394531
63607890851,-0.00360107421875,0.407104492188,-0.647338867188,0.644348144531
63607913967,-0.003662109375,0.411315917969,-0.648254394531,0.640747070312
63607936550,-0.002685546875,0.41552734375,-0.648254394531,0.638000488281
63607957607,-0.00054931640625,0.419128417969,-0.648010253906,0.635925292969
63607974043,0.00164794921875,0.422912597656,-0.6474609375,0.633972167969
63608004043,0.003173828125,0.427062988281,-0.646179199219,0.632446289062
63608010855,0.00421142578125,0.430419921875,-0.645141601562,0.631225585938
63608040186,0.00494384765625,0.43212890625,-0.644897460938,0.63037109375
63608056582,0.006103515625,0.43212890625,-0.6455078125,0.629699707031
63608079072,0.00726318359375,0.431030273438,-0.646850585938,0.629089355469
63608100163,0.007568359375,0.430297851562,-0.647888183594,0.628479003906
63608116600,0.00665283203125,0.430603027344,-0.648193359375,0.6279296875
63608139012,0.0057373046875,0.431030273438,-0.648376464844,0.62744140625
63608160192,0.00592041015625,0.430969238281,-0.648620605469,0.627319335938
63608176463,0.0074462890625,0.430969238281,-0.648376464844,0.627502441406
63608199031,0.0096435546875,0.430786132812,-0.648132324219,0.627868652344
63608220134,0.0121459960938,0.430908203125,-0.647827148438,0.628051757812
63608236702,0.0143432617188,0.431457519531,-0.647583007812,0.627868652344
63608259054,0.01611328125,0.432006835938,-0.647583007812,0.62744140625
63608281557,0.0179443359375,0.432250976562,-0.64794921875,0.626831054688
63608296498,0.0192260742188,0.432678222656,-0.648559570312,0.625915527344
63608319028,0.0205078125,0.433044433594,-0.649353027344,0.624816894531
63608340079,0.021728515625,0.433288574219,-0.650146484375,0.623779296875
63608356593,0.0228271484375,0.433471679688,-0.650634765625,0.623046875
63608385168,0.0236206054688,0.433776855469,-0.650756835938,0.622741699219
63608401575,0.0244140625,0.433837890625,-0.65087890625,0.62255859375
63608416630,0.0255737304688,0.43310546875,-0.651245117188,0.622619628906
63608438981,0.026611328125,0.432006835938,-0.651672363281,0.622863769531
63608461591,0.0274658203125,0.430908203125,-0.651977539062,0.623291015625
63608476570,0.0277099609375,0.430114746094,-0.651977539062,0.623840332031
63608498994,0.027587890625,0.429565429688,-0.652038574219,0.624084472656
63608521582,0.0275268554688,0.429077148438,-0.652404785156,0.6240234375
63608535837,0.02783203125,0.428283691406,-0.652954101562,0.6240234375
63608559463,0.0279541015625,0.427734375,-0.6533203125,0.6240234375
63608581583,0.02783203125,0.427734375,-0.6533203125,0.624084472656
63608595856,0.027587890625,0.427856445312,-0.653198242188,0.624084472656
63608619007,0.027587890625,0.427978515625,-0.653137207031,0.624084472656
63608641582,0.0281372070312,0.427917480469,-0.653076171875,0.624145507812
63608655849,0.0287475585938,0.427917480469,-0.65283203125,0.624389648438
63608679010,0.0292358398438,0.428039550781,-0.652465820312,0.624694824219
63608701474,0.0296630859375,0.42822265625,-0.652160644531,0.624877929688
63608715816,0.0296630859375,0.42822265625,-0.652099609375,0.624877929688
63608739099,0.0297241210938,0.42822265625,-0.652099609375,0.624877929688
63608761481,0.02978515625,0.428527832031,-0.652099609375,0.624694824219
63608775827,0.0299072265625,0.428588867188,-0.652282714844,0.624450683594
63608798994,0.0301513671875,0.428405761719,-0.652587890625,0.624206542969
63608821595,0.0303344726562,0.428283691406,-0.65283203125,0.6240234375
63608836274,0.0304565429688,0.428161621094,-0.652954101562,0.623962402344
63608859032,0.0304565429688,0.428283691406,-0.653015136719,0.623840332031
63608881584,0.0303955078125,0.428283691406,-0.653137207031,0.623718261719
63608902616,0.0306396484375,0.42822265625,-0.653381347656,0.623474121094
63608918959,0.0309448242188,0.42822265625,-0.653625488281,0.623229980469
63608941468,0.0313720703125,0.428100585938,-0.653930664062,0.622985839844
63608962711,0.0316772460938,0.427917480469,-0.654052734375,0.622985839844
63608979043,0.0317993164062,0.427795410156,-0.654113769531,0.622924804688
63609001478,0.0319213867188,0.427551269531,-0.654296875,0.622924804688
63609022848,0.0319213867188,0.427368164062,-0.654541015625,0.622802734375
63609039044,0.0321655273438,0.427368164062,-0.654602050781,0.622741699219
63609061490,0.0322875976562,0.427612304688,-0.654541015625,0.622619628906
63609082640,0.0322875976562,0.427612304688,-0.654541015625,0.622619628906
63609099045,0.0325927734375,0.427551269531,-0.654479980469,0.622680664062
63609121622,0.0324096679688,0.427368164062,-0.654418945312,0.622924804688
63609142631,0.0322265625,0.427429199219,-0.654296875,0.623046875
63609159012,0.0318603515625,0.427490234375,-0.654296875,0.622985839844
63609181590,0.0316772460938,0.427490234375,-0.654235839844,0.623046875
63609202725,0.0316162109375,0.427551269531,-0.654113769531,0.623168945312
63609219465,0.0313720703125,0.427856445312,-0.65380859375,0.623229980469
63609241468,0.0310668945312,0.428100585938,-0.653564453125,0.623413085938
63609262814,0.031005859375,0.428039550781,-0.653442382812,0.62353515625
63609278765,0.0311279296875,0.427673339844,-0.653442382812,0.623779296875
63609301455,0.031005859375,0.427551269531,-0.6533203125,0.623962402344
63609323961,0.0310668945312,0.427429199219,-0.653259277344,0.624145507812
63609338984,0.031005859375,0.427307128906,-0.653198242188,0.624328613281
63609361493,0.0309448242188,0.427185058594,-0.653137207031,0.62451171875
63609391486,0.0309448242188,0.426879882812,-0.653198242188,0.624633789062
63609398358,0.0309448242188,0.426513671875,-0.6533203125,0.624755859375
63609421482,0.0309448242188,0.426086425781,-0.653503417969,0.624816894531
63609443988,0.031005859375,0.425720214844,-0.65380859375,0.624755859375
63609458359,0.031005859375,0.42529296875,-0.654113769531,0.624694824219
63609481587,0.0311279296875,0.424987792969,-0.654296875,0.624694824219
63609504001,0.0310668945312,0.424621582031,-0.654541015625,0.624694824219
63609518321,0.0311889648438,0.423889160156,-0.654907226562,0.624816894531
63609541473,0.0313110351562,0.422485351562,-0.655395507812,0.625244140625
63609563968,0.0311889648438,0.42041015625,-0.656005859375,0.6259765625
63609578333,0.0303344726562,0.417907714844,-0.656860351562,0.626831054688
63609601457,0.0297241210938,0.414794921875,-0.65771484375,0.627990722656
63609624012,0.029052734375,0.411437988281,-0.658630371094,0.629333496094
63609645265,0.0288696289062,0.407897949219,-0.660034179688,0.630187988281
63609668932,0.0288696289062,0.404357910156,-0.661682128906,0.630737304688
63609684004,0.0288696289062,0.400451660156,-0.663452148438,0.631408691406
63609705157,0.0286254882812,0.396850585938,-0.665161132812,0.6318359375
63609721483,0.0281982421875,0.393798828125,-0.666870117188,0.632019042969
63609743962,0.0278930664062,0.390747070312,-0.668518066406,0.632141113281
63609772760,0.0274658203125,0.387390136719,-0.67041015625,0.632263183594
63609781460,0.0272216796875,0.382995605469,-0.672607421875,0.632568359375
63609804012,0.0269165039062,0.3779296875,-0.675048828125,0.632995605469
63609825076,0.02587890625,0.372741699219,-0.677795410156,0.633178710938
63609841500,0.0245361328125,0.368225097656,-0.680053710938,0.633483886719
63609864048,0.0234375,0.364196777344,-0.681640625,0.634155273438
63609884896,0.0223999023438,0.360961914062,-0.682800292969,0.634765625
63609901577,0.0218505859375,0.358154296875,-0.683898925781,0.635192871094
63609923987,0.0219116210938,0.355102539062,-0.685302734375,0.635437011719
63609945138,0.0217895507812,0.351501464844,-0.686767578125,0.635864257812
63609961478,0.0213012695312,0.347778320312,-0.688171386719,0.636352539062
63609983989,0.0203857421875,0.344543457031,-0.689331054688,0.636962890625
63610005040,0.0194091796875,0.34228515625,-0.689880371094,0.637573242188
63610021464,0.0185546875,0.340393066406,-0.690307617188,0.63818359375
63610051510,0.0181884765625,0.338439941406,-0.690856933594,0.638610839844
63610065159,0.0181274414062,0.335754394531,-0.691772460938,0.639038085938
63610081488,0.0179443359375,0.332824707031,-0.692687988281,0.6396484375
63610103998,0.0175170898438,0.329895019531,-0.693298339844,0.640441894531
63610125219,0.0167236328125,0.326782226562,-0.693786621094,0.641540527344
63610131959,0.015625,0.3232421875,-0.694213867188,0.642944335938
63610146845,0.0142822265625,0.318359375,-0.694885253906,0.644653320312
63610169321,0.0128173828125,0.312194824219,-0.695861816406,0.646606445312
63610192007,0.0109252929688,0.3046875,-0.697387695312,0.648620605469
63610206885,0.00830078125,0.295654296875,-0.69921875,0.650817871094
63610229513,0.00531005859375,0.285095214844,-0.701171875,0.653503417969
63610251930,0.00140380859375,0.273376464844,-0.703002929688,0.656555175781
63610266939,-0.00408935546875,0.260864257812,-0.704956054688,0.659484863281
63610289504,-0.0107421875,0.247375488281,-0.707397460938,0.661987304688
63610311921,-0.0173950195312,0.232177734375,-0.710205078125,0.664367675781
63610329776,-0.0244140625,0.21484375,-0.712890625,0.667114257812
