30080094024,-0.284912109375,-0.00958251953125,-0.2216796875,0.932495117188
30080109258,-0.284423828125,-0.00927734375,-0.221862792969,0.9326171875
30080130374,-0.283569335938,-0.00921630859375,-0.222045898438,0.932800292969
30080154135,-0.282409667969,-0.0108032226562,-0.222106933594,0.933166503906
30080169202,-0.279479980469,-0.018798828125,-0.224426269531,0.933349609375
30080190469,-0.276550292969,-0.02587890625,-0.226623535156,0.933532714844
30080214170,-0.273864746094,-0.0305786132812,-0.228271484375,0.933776855469
30080229198,-0.274597167969,-0.0262451171875,-0.227111816406,0.933959960938
30080250572,-0.277954101562,-0.0183715820312,-0.224548339844,0.933776855469
30080306154,-0.279846191406,-0.0187377929688,-0.224426269531,0.933227539062
30080308300,-0.278930664062,-0.0255737304688,-0.226257324219,0.932922363281
30080309030,-0.278991699219,-0.0256958007812,-0.225952148438,0.932983398438
30080326184,-0.282775878906,-0.0170288085938,-0.222229003906,0.932922363281
30080341921,-0.285888671875,-0.0202026367188,-0.221740722656,0.932006835938
30080364222,-0.290466308594,-0.0184936523438,-0.220336914062,0.930969238281
30080407821,-0.295776367188,-0.0150756835938,-0.218444824219,0.929809570312
30080417858,-0.30126953125,-0.0103149414062,-0.216430664062,0.928588867188
30080424157,-0.307006835938,-0.00433349609375,-0.214721679688,0.927124023438
30080446007,-0.311828613281,0.000732421875,-0.213012695312,0.925903320312
30080461645,-0.314331054688,0.00177001953125,-0.212158203125,0.92529296875
30080491036,-0.319213867188,0.0130004882812,-0.2080078125,0.924438476562
30080506673,-0.319946289062,0.0192260742188,-0.206604003906,0.924438476562
30080529839,-0.318664550781,0.0200805664062,-0.206481933594,0.924865722656
30080550837,-0.320251464844,0.0260009765625,-0.203857421875,0.924743652344
30080566631,-0.325927734375,0.0411376953125,-0.196960449219,0.923706054688
30080589801,-0.331665039062,0.0562744140625,-0.189636230469,0.922424316406
30080612333,-0.331848144531,0.0613403320312,-0.185913085938,0.922790527344
30080626693,-0.327270507812,0.0626831054688,-0.183776855469,0.924743652344
30080649789,-0.324279785156,0.0652465820312,-0.180603027344,0.92626953125
30080672302,-0.323120117188,0.0752563476562,-0.175598144531,0.926879882812
30080686670,-0.322448730469,0.0842895507812,-0.170227050781,0.927307128906
30080709825,-0.3232421875,0.0936889648438,-0.164611816406,0.927124023438
30080732320,-0.325073242188,0.103393554688,-0.158813476562,0.926513671875
30080753352,-0.326904296875,0.112854003906,-0.152770996094,0.92578125
30080769764,-0.328857421875,0.122131347656,-0.14697265625,0.9248046875
30080792319,-0.330383300781,0.131286621094,-0.1416015625,0.923889160156
30080806651,-0.331909179688,0.140502929688,-0.136291503906,0.922729492188
30080829786,-0.332580566406,0.149353027344,-0.131225585938,0.921875
30080852308,-0.33251953125,0.157531738281,-0.126159667969,0.921203613281
30080873499,-0.332397460938,0.165405273438,-0.121032714844,0.920593261719
30080889782,-0.332458496094,0.172912597656,-0.116149902344,0.919799804688
30080912417,-0.332885742188,0.18017578125,-0.111694335938,0.918823242188
30080933588,-0.334228515625,0.186706542969,-0.107421875,0.917541503906
30080949824,-0.335693359375,0.19287109375,-0.10302734375,0.916198730469
30080972299,-0.336547851562,0.198608398438,-0.0987548828125,0.915161132812
30080993492,-0.337280273438,0.203918457031,-0.0948486328125,0.914123535156
30081009813,-0.3388671875,0.208618164062,-0.09130859375,0.912841796875
30081032292,-0.341369628906,0.212707519531,-0.0882568359375,0.911254882812
30081053324,-0.344055175781,0.2158203125,-0.085693359375,0.909790039062
30081069758,-0.346801757812,0.217834472656,-0.0834350585938,0.908447265625
30081092319,-0.348876953125,0.21923828125,-0.0814819335938,0.907470703125
30081113385,-0.349609375,0.22021484375,-0.07958984375,0.907165527344
30081129792,-0.349304199219,0.220703125,-0.0777587890625,0.907287597656
30081152317,-0.349243164062,0.220825195312,-0.075927734375,0.907409667969
30081173488,-0.34912109375,0.220336914062,-0.0742797851562,0.907775878906
30081189821,-0.348876953125,0.219543457031,-0.0725708007812,0.908142089844
30081212262,-0.348449707031,0.21875,-0.0707397460938,0.90869140625
30081234795,-0.348266601562,0.218078613281,-0.0691528320312,0.909057617188
30081249789,-0.348205566406,0.21728515625,-0.06787109375,0.909301757812
30081272323,-0.348449707031,0.216552734375,-0.0667724609375,0.909484863281
30081293386,-0.349060058594,0.2158203125,-0.06591796875,0.909484863281
30081300292,-0.350219726562,0.215576171875,-0.0648803710938,0.9091796875
30081322825,-0.35107421875,0.215515136719,-0.06396484375,0.908935546875
30081337766,-0.351806640625,0.215759277344,-0.0630493164062,0.908630371094
30081360443,-0.353759765625,0.216186523438,-0.0620727539062,0.907897949219
30081382742,-0.35595703125,0.216613769531,-0.0613403320312,0.906982421875
30081399171,-0.35791015625,0.217224121094,-0.0604858398438,0.906127929688
30081420340,-0.359741210938,0.21826171875,-0.0593872070312,0.905212402344
30081442829,-0.362060546875,0.219116210938,-0.0584716796875,0.904113769531
30081457789,-0.363952636719,0.219787597656,-0.0577392578125,0.903259277344
30081480437,-0.365661621094,0.220642089844,-0.0570068359375,0.902404785156
30081502713,-0.367736816406,0.221618652344,-0.0562133789062,0.9013671875
30081517800,-0.369873046875,0.222595214844,-0.0555419921875,0.900268554688
30081540328,-0.371643066406,0.223449707031,-0.0552368164062,0.899353027344
30081562776,-0.373046875,0.224060058594,-0.0549926757812,0.898681640625
30081577769,-0.374206542969,0.224609375,-0.0550537109375,0.898010253906
30081600273,-0.375183105469,0.225036621094,-0.0552978515625,0.897521972656
30081622786,-0.376403808594,0.225341796875,-0.0557250976562,0.896911621094
30081637736,-0.377807617188,0.225463867188,-0.05615234375,0.896240234375
30081660385,-0.379028320312,0.2255859375,-0.0565795898438,0.895690917969
30081682853,-0.380065917969,0.225891113281,-0.05712890625,0.895080566406
30081699118,-0.380859375,0.226440429688,-0.0574951171875,0.894592285156
30081720275,-0.381713867188,0.227111816406,-0.0577392578125,0.89404296875
30081742828,-0.382629394531,0.227661132812,-0.0579223632812,0.893493652344
30081759124,-0.38330078125,0.228393554688,-0.0579833984375,0.89306640625
30081780329,-0.383728027344,0.229064941406,-0.0578002929688,0.892700195312
30081802697,-0.384094238281,0.229797363281,-0.0573120117188,0.892395019531
30081819090,-0.38427734375,0.230651855469,-0.0568237304688,0.89208984375
30081840423,-0.384521484375,0.231689453125,-0.05615234375,0.891784667969
30081862845,-0.385192871094,0.232849121094,-0.0552978515625,0.891235351562
30081879141,-0.385925292969,0.234130859375,-0.0545654296875,0.890625
30081900245,-0.386535644531,0.235534667969,-0.053955078125,0.890014648438
30081922883,-0.387084960938,0.237182617188,-0.0532836914062,0.889404296875
30081939148,-0.387939453125,0.238586425781,-0.0526123046875,0.888671875
30081960202,-0.388916015625,0.239868164062,-0.052001953125,0.887939453125
30081982734,-0.389892578125,0.241088867188,-0.0514526367188,0.88720703125
30082000644,-0.390747070312,0.242431640625,-0.0510864257812,0.886535644531
30082020269,-0.391174316406,0.243591308594,-0.0508422851562,0.886047363281
30082042735,-0.3916015625,0.244567871094,-0.0507202148438,0.885559082031
30082065720,-0.39208984375,0.245178222656,-0.050537109375,0.885192871094
30082080144,-0.392761230469,0.245544433594,-0.0503540039062,0.884765625
30082102731,-0.393371582031,0.245727539062,-0.0501708984375,0.884460449219
30082120621,-0.393676757812,0.245910644531,-0.0498657226562,0.884338378906
30082141663,-0.393676757812,0.24609375,-0.0498046875,0.88427734375
30082162803,-0.393432617188,0.246398925781,-0.049560546875,0.884338378906
30082180609,-0.3935546875,0.246826171875,-0.0491333007812,0.884155273438
30082200283,-0.394104003906,0.247253417969,-0.048583984375,0.883850097656
30082222816,-0.394714355469,0.247680664062,-0.0481567382812,0.883483886719
30082240633,-0.39501953125,0.248229980469,-0.0477905273438,0.883178710938
30082260263,-0.395080566406,0.248840332031,-0.0476684570312,0.882995605469
30082282835,-0.395080566406,0.249450683594,-0.0476684570312,0.8828125
30082300583,-0.395324707031,0.25,-0.0477294921875,0.882568359375
30082320303,-0.395690917969,0.250305175781,-0.0477905273438,0.88232421875
30082342604,-0.396179199219,0.250427246094,-0.0479736328125,0.882019042969
30082360573,-0.396667480469,0.250366210938,-0.0482177734375,0.8818359375
30082380264,-0.397094726562,0.250366210938,-0.0484619140625,0.881591796875
30082398116,-0.397277832031,0.250671386719,-0.0485229492188,0.881469726562
30082420573,-0.397705078125,0.250915527344,-0.0486450195312,0.881164550781
30082440344,-0.398376464844,0.251220703125,-0.0485229492188,0.880798339844
30082458116,-0.398986816406,0.251647949219,-0.0482177734375,0.880432128906
30082480581,-0.399536132812,0.251831054688,-0.0479736328125,0.880126953125
30082500277,-0.399658203125,0.252075195312,-0.0477905273438,0.880004882812
30082518054,-0.399719238281,0.252685546875,-0.0476684570312,0.879821777344
30082540607,-0.399780273438,0.253234863281,-0.047607421875,0.879638671875
30082560138,-0.400024414062,0.253356933594,-0.0475463867188,0.879455566406
30082578066,-0.400207519531,0.253112792969,-0.0476684570312,0.879455566406
30082600607,-0.400634765625,0.252746582031,-0.0479125976562,0.879333496094
30082620243,-0.401062011719,0.252685546875,-0.0478515625,0.879150390625
30082638141,-0.401611328125,0.252624511719,-0.0479736328125,0.878967285156
30082660564,-0.40185546875,0.25244140625,-0.0481567382812,0.87890625
30082681712,-0.401794433594,0.252136230469,-0.0484619140625,0.878967285156
30082698103,-0.402038574219,0.251892089844,-0.0487060546875,0.87890625
30082720595,-0.402404785156,0.251647949219,-0.0487670898438,0.878845214844
30082741600,-0.402954101562,0.251586914062,-0.0487670898438,0.878601074219
30082758059,-0.403198242188,0.251586914062,-0.0489501953125,0.878479003906
30082780576,-0.403015136719,0.251586914062,-0.0491943359375,0.878540039062
30082801602,-0.403015136719,0.251647949219,-0.0491943359375,0.878540039062
30082818082,-0.403442382812,0.251708984375,-0.0490112304688,0.878295898438
30082840561,-0.404174804688,0.251770019531,-0.0487060546875,0.877990722656
30082861626,-0.404663085938,0.251770019531,-0.0485229492188,0.877746582031
30082878090,-0.404541015625,0.251586914062,-0.0486450195312,0.877868652344
30082899774,-0.404418945312,0.25146484375,-0.0486450195312,0.8779296875
30082921007,-0.404418945312,0.251220703125,-0.0486450195312,0.878051757812
30082937299,-0.405029296875,0.251159667969,-0.0485229492188,0.877746582031
30082959745,-0.405517578125,0.251098632812,-0.04833984375,0.877563476562
30082982305,-0.405517578125,0.251159667969,-0.04833984375,0.877563476562
30082997274,-0.405517578125,0.251159667969,-0.04833984375,0.877563476562
30083019779,-0.405883789062,0.251098632812,-0.0482177734375,0.877380371094
30083042296,-0.406311035156,0.251037597656,-0.048095703125,0.877258300781
30083057275,-0.406616210938,0.2509765625,-0.048095703125,0.877136230469
30083079769,-0.406555175781,0.250915527344,-0.0484008789062,0.877136230469
30083102297,-0.406555175781,0.250854492188,-0.0486450195312,0.877136230469
30083116594,-0.406799316406,0.250671386719,-0.048828125,0.877075195312
30083139749,-0.407104492188,0.25048828125,-0.0491333007812,0.876953125
30083162314,-0.406311035156,0.250732421875,-0.0498657226562,0.877197265625
30083176619,-0.405395507812,0.251098632812,-0.05126953125,0.87744140625
30083199788,-0.405395507812,0.2509765625,-0.0528564453125,0.877380371094
30083222298,-0.406494140625,0.250549316406,-0.0545654296875,0.876892089844
30083236623,-0.407775878906,0.250427246094,-0.0560302734375,0.876281738281
30083261207,-0.408447265625,0.250549316406,-0.0574340820312,0.875854492188
30083282267,-0.409301757812,0.251098632812,-0.0587158203125,0.875183105469
30083296595,-0.409790039062,0.251525878906,-0.0597534179688,0.874755859375
30083319787,-0.410278320312,0.251831054688,-0.0609130859375,0.874389648438
30083342259,-0.410095214844,0.251892089844,-0.0617065429688,0.874389648438
30083363396,-0.4091796875,0.252136230469,-0.0621337890625,0.874694824219
30083379741,-0.40771484375,0.25244140625,-0.0621948242188,0.875305175781
30083402265,-0.40576171875,0.252197265625,-0.0624389648438,0.876281738281
30083424750,-0.404235839844,0.251586914062,-0.0628662109375,0.877075195312
30083439785,-0.404113769531,0.250854492188,-0.0631713867188,0.877319335938
30083462256,-0.403991699219,0.250305175781,-0.06298828125,0.877563476562
30083483423,-0.403015136719,0.250122070312,-0.0625,0.878112792969
30083499808,-0.401672363281,0.250122070312,-0.0619506835938,0.878723144531
30083522273,-0.401489257812,0.250244140625,-0.0613403320312,0.878845214844
30083543458,-0.401550292969,0.250427246094,-0.0606689453125,0.878784179688
30083559767,-0.399841308594,0.250854492188,-0.0598754882812,0.879516601562
30083582250,-0.397277832031,0.251037597656,-0.0595703125,0.880676269531
30083603489,-0.395751953125,0.251098632812,-0.0599365234375,0.881286621094
30083619776,-0.394653320312,0.251281738281,-0.0601806640625,0.881713867188
30083642233,-0.391662597656,0.251098632812,-0.0611572265625,0.883056640625
30083663457,-0.387390136719,0.249755859375,-0.0637817382812,0.885131835938
30083679734,-0.384338378906,0.247497558594,-0.0671997070312,0.886840820312
30083702227,-0.381591796875,0.244201660156,-0.0712280273438,0.888610839844
30083723228,-0.378234863281,0.240173339844,-0.0764770507812,0.890686035156
30083739745,-0.374267578125,0.235229492188,-0.0831909179688,0.893127441406
30083762316,-0.3701171875,0.229187011719,-0.0906372070312,0.895690917969
30083783540,-0.366394042969,0.222045898438,-0.0986938476562,0.898132324219
30083799774,-0.363342285156,0.214294433594,-0.106689453125,0.900329589844
30083822250,-0.360534667969,0.206176757812,-0.114685058594,0.902404785156
30083843361,-0.356384277344,0.197570800781,-0.122680664062,0.904907226562
30083859138,-0.35302734375,0.188903808594,-0.130126953125,0.907043457031
30083882280,-0.350280761719,0.180297851562,-0.137084960938,0.908813476562
30083903420,-0.349792480469,0.172119140625,-0.143310546875,0.90966796875
30083919089,-0.34814453125,0.163696289062,-0.149108886719,0.910888671875
30083942270,-0.345397949219,0.155517578125,-0.154602050781,0.912475585938
30083964773,-0.341796875,0.147399902344,-0.159973144531,0.914245605469
30083979104,-0.338134765625,0.13916015625,-0.165283203125,0.915954589844
30084002241,-0.333740234375,0.130249023438,-0.170227050781,0.91796875
30084024745,-0.328002929688,0.120666503906,-0.174926757812,0.920471191406
30084039114,-0.323486328125,0.111083984375,-0.1796875,0.92236328125
30084062271,-0.321228027344,0.102172851562,-0.1845703125,0.923217773438
30084084743,-0.319458007812,0.0935668945312,-0.189208984375,0.923767089844
30084099089,-0.317321777344,0.0848388671875,-0.192993164062,0.924560546875
30084122294,-0.315002441406,0.0759887695312,-0.196411132812,0.925415039062
30084144758,-0.314392089844,0.0678100585938,-0.199829101562,0.925537109375
30084159051,-0.314819335938,0.0602416992188,-0.202941894531,0.925231933594
30084182233,-0.314575195312,0.0528564453125,-0.205871582031,0.925109863281
30084204772,-0.313659667969,0.0454711914062,-0.208923339844,0.925109863281
30084225896,-0.312622070312,0.038330078125,-0.212097167969,0.925109863281
30084242268,-0.311340332031,0.0316162109375,-0.215209960938,0.925048828125
30084264778,-0.310119628906,0.0247192382812,-0.218078613281,0.924987792969
30084285928,-0.309753417969,0.0181274414062,-0.220764160156,0.924621582031
30084302251,-0.310119628906,0.011962890625,-0.223205566406,0.924011230469
30084324711,-0.311157226562,0.00628662109375,-0.225463867188,0.923217773438
30084345921,-0.311950683594,0.0009765625,-0.227600097656,0.922424316406
30084362266,-0.314453125,-0.00408935546875,-0.229553222656,0.921081542969
30084384784,-0.309936523438,-0.00958251953125,-0.231872558594,0.921997070312
30084405878,-0.30419921875,-0.014404296875,-0.233459472656,0.923400878906
30084422212,-0.301818847656,-0.0178833007812,-0.234680175781,0.923828125
30084444750,-0.30078125,-0.0208129882812,-0.236206054688,0.923706054688
30084465904,-0.300598144531,-0.0228271484375,-0.237609863281,0.923400878906
30084482252,-0.300903320312,-0.0243530273438,-0.238647460938,0.922973632812
30084504789,-0.300537109375,-0.0260009765625,-0.239807128906,0.922729492188
30084525888,-0.299072265625,-0.0272216796875,-0.241027832031,0.9228515625
30084542243,-0.296630859375,-0.027587890625,-0.241638183594,0.923522949219
30084564727,-0.294006347656,-0.0277099609375,-0.242004394531,0.924194335938
30084585895,-0.291564941406,-0.0282592773438,-0.242736816406,0.9248046875
30084602259,-0.289306640625,-0.0288696289062,-0.243347167969,0.92529296875
30084624727,-0.286804199219,-0.0293579101562,-0.243591308594,0.926025390625
30084645875,-0.284545898438,-0.0296630859375,-0.243896484375,0.926635742188
30084662276,-0.283447265625,-0.0299072265625,-0.244506835938,0.926818847656
30084684744,-0.282958984375,-0.0298461914062,-0.244995117188,0.926818847656
30084705904,-0.282409667969,-0.02978515625,-0.245300292969,0.926940917969
30084722208,-0.282104492188,-0.0298461914062,-0.245727539062,0.926879882812
30084744745,-0.282348632812,-0.0300903320312,-0.246398925781,0.926635742188
30084765885,-0.282043457031,-0.0305786132812,-0.2470703125,0.926513671875
30084782243,-0.280700683594,-0.031005859375,-0.247619628906,0.9267578125
30084804774,-0.279113769531,-0.0310668945312,-0.247863769531,0.927185058594
30084825887,-0.278503417969,-0.0308837890625,-0.248229980469,0.927307128906
30084842251,-0.2783203125,-0.031005859375,-0.248840332031,0.927185058594
30084864726,-0.277893066406,-0.03125,-0.249572753906,0.927062988281
30084887231,-0.276977539062,-0.0311889648438,-0.250244140625,0.927185058594
30084902227,-0.276184082031,-0.0310668945312,-0.250793457031,0.92724609375
30084924770,-0.275695800781,-0.031005859375,-0.251098632812,0.927368164062
30084947242,-0.274963378906,-0.0311279296875,-0.25146484375,0.927429199219
30084962213,-0.274169921875,-0.03125,-0.251953125,0.927551269531
30084984776,-0.273498535156,-0.03125,-0.252502441406,0.927612304688
30085007239,-0.273376464844,-0.0311279296875,-0.2529296875,0.927551269531
30085021573,-0.273254394531,-0.031005859375,-0.253173828125,0.927490234375
30085044724,-0.27294921875,-0.03076171875,-0.253234863281,0.927551269531
30085067288,-0.272216796875,-0.0306396484375,-0.253540039062,0.927734375
30085081564,-0.271728515625,-0.0302734375,-0.253723144531,0.927856445312
30085104709,-0.271667480469,-0.0296020507812,-0.253662109375,0.927856445312
30085127243,-0.272155761719,-0.0288696289062,-0.253540039062,0.927795410156
