29941457550,-0.30322265625,-0.0154418945312,-0.219665527344,0.927124023438
29941480257,-0.30322265625,-0.0154418945312,-0.219665527344,0.927124023438
29941503982,-0.30322265625,-0.0154418945312,-0.219665527344,0.927124023438
29941519052,-0.304077148438,-0.0152587890625,-0.219604492188,0.926879882812
29941540329,-0.304382324219,-0.0137329101562,-0.219116210938,0.926879882812
29941564056,-0.306396484375,-0.00634765625,-0.216674804688,0.926879882812
29941579041,-0.30859375,-0.001953125,-0.215209960938,0.926513671875
29941600292,-0.308288574219,-0.0032958984375,-0.215698242188,0.926513671875
29941624107,-0.305053710938,-0.010009765625,-0.218017578125,0.926940917969
29941655267,-0.304992675781,-0.00689697265625,-0.217163085938,0.92724609375
29941663744,-0.307739257812,0.00048828125,-0.214599609375,0.926940917969
29941684680,-0.308288574219,-0.000732421875,-0.21484375,0.926696777344
29941699021,-0.306762695312,-0.006591796875,-0.216613769531,0.9267578125
29941720266,-0.306518554688,-0.005126953125,-0.216613769531,0.926879882812
29941743905,-0.306640625,-0.00543212890625,-0.216491699219,0.926879882812
29941780139,-0.306640625,-0.0054931640625,-0.216552734375,0.926818847656
29941790257,-0.306640625,-0.00555419921875,-0.216552734375,0.926818847656
29941803280,-0.306640625,-0.005615234375,-0.216552734375,0.926818847656
29941818307,-0.306518554688,-0.0064697265625,-0.216552734375,0.926879882812
29941840777,-0.305969238281,-0.0076904296875,-0.216979980469,0.926940917969
29941864637,-0.305297851562,-0.0089111328125,-0.217407226562,0.927062988281
29941878971,-0.304931640625,-0.0062255859375,-0.216613769531,0.927368164062
29941902096,-0.3056640625,-0.00433349609375,-0.216003417969,0.927307128906
29941924602,-0.305969238281,-0.00421142578125,-0.215942382812,0.927185058594
29941938969,-0.305358886719,-0.006103515625,-0.216552734375,0.92724609375
29941962082,-0.302978515625,-0.00909423828125,-0.2177734375,0.927734375
29941984606,-0.304626464844,-0.00250244140625,-0.215759277344,0.927673339844
29941998949,-0.305236816406,-0.00146484375,-0.215393066406,0.927551269531
29942022072,-0.304748535156,-0.0040283203125,-0.215698242188,0.927673339844
29942044617,-0.304260253906,-0.0040283203125,-0.215942382812,0.927734375
29942065695,-0.30419921875,-0.00408935546875,-0.216003417969,0.927795410156
29942082093,-0.303894042969,-0.00445556640625,-0.216186523438,0.927856445312
29942104618,-0.303588867188,-0.00469970703125,-0.216369628906,0.927856445312
29942125772,-0.30322265625,-0.00494384765625,-0.216552734375,0.927978515625
29942142099,-0.30322265625,-0.00494384765625,-0.216552734375,0.927978515625
29942164566,-0.30322265625,-0.0050048828125,-0.216552734375,0.927978515625
29942185859,-0.303161621094,-0.00506591796875,-0.216552734375,0.927978515625
29942202122,-0.302795410156,-0.0052490234375,-0.216735839844,0.928039550781
29942224593,-0.302795410156,-0.00531005859375,-0.216735839844,0.928039550781
29942245715,-0.302795410156,-0.00537109375,-0.216796875,0.928039550781
29942262127,-0.302795410156,-0.00543212890625,-0.216796875,0.928039550781
29942284600,-0.302490234375,-0.00567626953125,-0.216979980469,0.928100585938
29942305751,-0.302185058594,-0.005859375,-0.217102050781,0.928161621094
29942322094,-0.302124023438,-0.00592041015625,-0.217102050781,0.928161621094
29942344617,-0.302124023438,-0.0059814453125,-0.217102050781,0.928161621094
29942365640,-0.301818847656,-0.0059814453125,-0.217224121094,0.92822265625
29942382095,-0.301574707031,-0.0059814453125,-0.21728515625,0.928344726562
29942404577,-0.301208496094,-0.0059814453125,-0.217346191406,0.928405761719
29942425772,-0.300842285156,-0.00592041015625,-0.217407226562,0.928527832031
29942442115,-0.300537109375,-0.005859375,-0.217529296875,0.928588867188
29942464587,-0.300231933594,-0.0057373046875,-0.217529296875,0.9287109375
29942487098,-0.300048828125,-0.0057373046875,-0.217590332031,0.9287109375
29942502100,-0.299865722656,-0.00579833984375,-0.217651367188,0.928771972656
29942524571,-0.299438476562,-0.00579833984375,-0.217834472656,0.928894042969
29942547087,-0.299133300781,-0.00579833984375,-0.217956542969,0.928955078125
29942562115,-0.298767089844,-0.00579833984375,-0.217956542969,0.929077148438
29942584608,-0.298278808594,-0.00567626953125,-0.218078613281,0.92919921875
29942607093,-0.297729492188,-0.00555419921875,-0.218200683594,0.929382324219
29942621425,-0.297241210938,-0.00537109375,-0.218200683594,0.929504394531
29942644573,-0.296691894531,-0.00518798828125,-0.218139648438,0.9296875
29942667112,-0.296081542969,-0.00506591796875,-0.218139648438,0.929870605469
29942681444,-0.295715332031,-0.00506591796875,-0.218017578125,0.930053710938
29942704589,-0.295715332031,-0.0050048828125,-0.217895507812,0.930053710938
29942727127,-0.296020507812,-0.00494384765625,-0.2177734375,0.929992675781
29942741451,-0.296325683594,-0.00482177734375,-0.217651367188,0.929931640625
29942770784,-0.296508789062,-0.00469970703125,-0.217712402344,0.929870605469
29942787096,-0.296569824219,-0.0045166015625,-0.217712402344,0.929870605469
29942809619,-0.296264648438,-0.0042724609375,-0.217590332031,0.929931640625
29942830806,-0.296020507812,-0.00384521484375,-0.217407226562,0.930114746094
29942847098,-0.295837402344,-0.0032958984375,-0.217163085938,0.93017578125
29942869575,-0.295776367188,-0.00244140625,-0.216857910156,0.930297851562
29942890770,-0.295959472656,-0.001220703125,-0.216552734375,0.930297851562
29942907088,-0.296508789062,0.00018310546875,-0.216003417969,0.930236816406
29942929573,-0.297241210938,0.001708984375,-0.215515136719,0.93017578125
29942950721,-0.297790527344,0.003173828125,-0.214965820312,0.930114746094
29942967107,-0.298522949219,0.0047607421875,-0.214233398438,0.930053710938
29942989603,-0.299438476562,0.00640869140625,-0.21337890625,0.929931640625
29943012067,-0.300659179688,0.00811767578125,-0.213012695312,0.929626464844
29943027133,-0.301208496094,0.00970458984375,-0.212890625,0.929443359375
29943049595,-0.302612304688,0.0118408203125,-0.21240234375,0.929016113281
29943072122,-0.305419921875,0.0147094726562,-0.211364746094,0.928344726562
29943086451,-0.309448242188,0.0180053710938,-0.210571289062,0.927124023438
29943109592,-0.314025878906,0.0216064453125,-0.209838867188,0.925659179688
29943132071,-0.318542480469,0.025146484375,-0.208923339844,0.924255371094
29943146493,-0.322814941406,0.02880859375,-0.207885742188,0.9228515625
29943169619,-0.326721191406,0.03271484375,-0.206848144531,0.921630859375
29943192067,-0.330200195312,0.036865234375,-0.205810546875,0.920471191406
29943206431,-0.333251953125,0.0411376953125,-0.204650878906,0.91943359375
29943229604,-0.335693359375,0.0454711914062,-0.203186035156,0.918640136719
29943252096,-0.337768554688,0.0499877929688,-0.201477050781,0.918029785156
29943273249,-0.340026855469,0.0545654296875,-0.199584960938,0.917358398438
29943289572,-0.342163085938,0.0589599609375,-0.197814941406,0.916687011719
29943311917,-0.343811035156,0.0633544921875,-0.195983886719,0.916137695312
29943333148,-0.34521484375,0.0675659179688,-0.1943359375,0.915710449219
29943349668,-0.345886230469,0.0717163085938,-0.192993164062,0.915405273438
29943372067,-0.3466796875,0.0761108398438,-0.191223144531,0.915100097656
29943393196,-0.347717285156,0.080810546875,-0.189208984375,0.914733886719
29943409542,-0.349060058594,0.0858154296875,-0.18701171875,0.914245605469
29943432100,-0.3505859375,0.09130859375,-0.184509277344,0.913635253906
29943453122,-0.351867675781,0.0975952148438,-0.181579589844,0.913024902344
29943469570,-0.353637695312,0.104309082031,-0.178588867188,0.912231445312
29943492092,-0.355346679688,0.111511230469,-0.17578125,0.911254882812
29943513357,-0.355895996094,0.119140625,-0.172729492188,0.91064453125
29943529619,-0.35595703125,0.127624511719,-0.168823242188,0.910217285156
29943552121,-0.3544921875,0.135192871094,-0.165710449219,0.910278320312
29943573389,-0.353271484375,0.143432617188,-0.162048339844,0.91015625
29943595716,-0.353271484375,0.152893066406,-0.157409667969,0.909423828125
29943612100,-0.35400390625,0.163696289062,-0.151733398438,0.908203125
29943633227,-0.354858398438,0.174926757812,-0.1455078125,0.906799316406
29943649579,-0.355407714844,0.186340332031,-0.138977050781,0.905334472656
29943672073,-0.35498046875,0.198120117188,-0.1318359375,0.904052734375
29943693256,-0.352966308594,0.210205078125,-0.124572753906,0.903137207031
29943709594,-0.349609375,0.222595214844,-0.117309570312,0.902465820312
29943732044,-0.345703125,0.235168457031,-0.109558105469,0.901733398438
29943753258,-0.342102050781,0.24755859375,-0.101440429688,0.900756835938
29943769600,-0.338562011719,0.260192871094,-0.0930786132812,0.8994140625
29943792070,-0.334899902344,0.27294921875,-0.0842895507812,0.897888183594
29943797569,-0.331359863281,0.285278320312,-0.0755615234375,0.896179199219
29943820003,-0.328002929688,0.296997070312,-0.0667724609375,0.894226074219
29943835212,-0.324157714844,0.308532714844,-0.0581665039062,0.892333984375
29943857518,-0.319946289062,0.319702148438,-0.0501098632812,0.890441894531
29943880018,-0.315673828125,0.33056640625,-0.0424194335938,0.888366699219
29943895088,-0.310791015625,0.3408203125,-0.0347900390625,0.886535644531
29943917524,-0.306335449219,0.350280761719,-0.0274047851562,0.884704589844
29943940067,-0.303283691406,0.359130859375,-0.01953125,0.882385253906
29943955018,-0.300354003906,0.36669921875,-0.0112915039062,0.880432128906
29943977557,-0.297668457031,0.3740234375,-0.002685546875,0.878295898438
29944000115,-0.293334960938,0.38232421875,0.00701904296875,0.876159667969
29944015084,-0.287902832031,0.390380859375,0.0160522460938,0.874267578125
29944037500,-0.283508300781,0.39697265625,0.02392578125,0.87255859375
29944060102,-0.278625488281,0.403442382812,0.0309448242188,0.870971679688
29944075105,-0.273010253906,0.410339355469,0.0376586914062,0.869262695312
29944097540,-0.268127441406,0.417053222656,0.0445556640625,0.867248535156
29944120071,-0.264404296875,0.423034667969,0.0514526367188,0.865112304688
29944135107,-0.261596679688,0.428771972656,0.05810546875,0.862731933594
29944157604,-0.258666992188,0.434387207031,0.064697265625,0.8603515625
29944180090,-0.255676269531,0.439636230469,0.0707397460938,0.858032226562
29944195071,-0.252685546875,0.444519042969,0.076416015625,0.85595703125
29944217516,-0.249450683594,0.449157714844,0.0819091796875,0.853942871094
29944240070,-0.246826171875,0.453369140625,0.0875244140625,0.851928710938
29944255204,-0.244445800781,0.457397460938,0.0928955078125,0.849914550781
29944277488,-0.241516113281,0.46142578125,0.0982666015625,0.847961425781
29944300016,-0.238830566406,0.464965820312,0.103759765625,0.846130371094
29944316426,-0.236877441406,0.468200683594,0.10888671875,0.84423828125
29944345090,-0.234802246094,0.471557617188,0.113403320312,0.842346191406
29944368886,-0.23291015625,0.474975585938,0.117919921875,0.84033203125
29944375064,-0.231262207031,0.478210449219,0.122009277344,0.83837890625
29944397573,-0.229675292969,0.481384277344,0.125671386719,0.83642578125
29944420047,-0.228393554688,0.484252929688,0.129150390625,0.834594726562
29944435092,-0.227478027344,0.487121582031,0.132507324219,0.832702636719
29944457540,-0.227111816406,0.490112304688,0.135986328125,0.830444335938
29944480042,-0.227111816406,0.492736816406,0.139465332031,0.828308105469
29944497943,-0.226806640625,0.494934082031,0.142883300781,0.826477050781
29944517486,-0.226379394531,0.497131347656,0.146301269531,0.82470703125
29944540051,-0.226257324219,0.498962402344,0.149841308594,0.822998046875
29944556395,-0.226257324219,0.50048828125,0.153625488281,0.821350097656
29944577567,-0.226501464844,0.501525878906,0.157287597656,0.819946289062
29944600019,-0.227233886719,0.502502441406,0.160339355469,0.818603515625
29944616417,-0.22705078125,0.50341796875,0.162841796875,0.817565917969
29944637581,-0.2275390625,0.504089355469,0.165405273438,0.816528320312
29944660098,-0.22802734375,0.504821777344,0.167785644531,0.8154296875
29944676399,-0.228637695312,0.505065917969,0.170043945312,0.814636230469
29944697609,-0.229309082031,0.505004882812,0.172119140625,0.814086914062
29944715411,-0.230407714844,0.505004882812,0.173950195312,0.813354492188
29944736422,-0.231384277344,0.505249023438,0.175598144531,0.812561035156
29944757582,-0.231384277344,0.505737304688,0.17724609375,0.811889648438
29944775366,-0.231750488281,0.505981445312,0.178894042969,0.811279296875
29944799296,-0.232299804688,0.506042480469,0.180480957031,0.810791015625
29944817573,-0.232849121094,0.506286621094,0.181884765625,0.810119628906
29944835414,-0.23388671875,0.507080078125,0.182983398438,0.80908203125
29944856382,-0.234497070312,0.507141113281,0.183837890625,0.808654785156
29944877526,-0.234436035156,0.506896972656,0.184631347656,0.808654785156
29944895355,-0.234069824219,0.507080078125,0.184692382812,0.808654785156
29944917940,-0.233581542969,0.507385253906,0.1845703125,0.80859375
29944937565,-0.233581542969,0.507385253906,0.184631347656,0.80859375
29944955404,-0.234130859375,0.507629394531,0.184265136719,0.808349609375
29944977929,-0.235046386719,0.508239746094,0.183410644531,0.807922363281
29944997522,-0.235717773438,0.508728027344,0.182800292969,0.807556152344
29945015368,-0.236267089844,0.508666992188,0.18212890625,0.807556152344
29945037943,-0.237182617188,0.508361816406,0.181274414062,0.807678222656
29945057544,-0.23876953125,0.508239746094,0.180603027344,0.807434082031
29945075388,-0.240173339844,0.507568359375,0.180297851562,0.807495117188
29945097924,-0.240539550781,0.5068359375,0.18017578125,0.807922363281
29945117519,-0.241394042969,0.506225585938,0.179992675781,0.80810546875
29945135358,-0.242248535156,0.506225585938,0.179626464844,0.807922363281
29945157893,-0.242980957031,0.506286621094,0.179443359375,0.807678222656
29945177582,-0.2431640625,0.506103515625,0.179016113281,0.807861328125
29945195376,-0.244079589844,0.506164550781,0.178344726562,0.807678222656
29945217899,-0.245178222656,0.50634765625,0.177551269531,0.807373046875
29945237619,-0.245788574219,0.506713867188,0.176696777344,0.807189941406
29945262905,-0.245788574219,0.507019042969,0.175720214844,0.807189941406
29945277911,-0.24609375,0.507263183594,0.174682617188,0.807189941406
29945297563,-0.247253417969,0.506652832031,0.173706054688,0.807434082031
29945315404,-0.247863769531,0.506042480469,0.172607421875,0.807800292969
29945337907,-0.248352050781,0.505615234375,0.171203613281,0.808288574219
29945357440,-0.248901367188,0.505187988281,0.170043945312,0.80859375
29945375358,-0.249206542969,0.504760742188,0.169006347656,0.808959960938
29945397897,-0.24951171875,0.504455566406,0.167846679688,0.809326171875
29945418289,-0.248840332031,0.504943847656,0.165954589844,0.809631347656
29945434546,-0.248413085938,0.505493164062,0.164123535156,0.809814453125
29945457090,-0.249084472656,0.50439453125,0.161926269531,0.810729980469
29945478224,-0.25048828125,0.502197265625,0.159423828125,0.812133789062
29945494545,-0.252075195312,0.499938964844,0.156188964844,0.813659667969
29945517073,-0.253784179688,0.497863769531,0.152770996094,0.815063476562
29945538221,-0.257446289062,0.495178222656,0.149169921875,0.816223144531
29945555348,-0.259765625,0.490661621094,0.144470214844,0.819030761719
29945577025,-0.261413574219,0.485595703125,0.139404296875,0.822387695312
29945598196,-0.26318359375,0.481262207031,0.133728027344,0.825317382812
29945614543,-0.265808105469,0.4775390625,0.127990722656,0.827575683594
29945637083,-0.268188476562,0.4736328125,0.1220703125,0.829895019531
29945659545,-0.27001953125,0.469055175781,0.116149902344,0.832763671875
29945682069,-0.272216796875,0.463806152344,0.110473632812,0.835754394531
29945697044,-0.274780273438,0.458251953125,0.104553222656,0.838745117188
29945718214,-0.277038574219,0.452331542969,0.0986938476562,0.841918945312
29945733908,-0.279479980469,0.445739746094,0.0925903320312,0.845336914062
29945757017,-0.281799316406,0.438049316406,0.0858764648438,0.849243164062
29945778254,-0.284057617188,0.429748535156,0.078369140625,0.853454589844
29945793914,-0.285705566406,0.421325683594,0.0694580078125,0.85791015625
29945817072,-0.286865234375,0.413330078125,0.0599975585938,0.862060546875
29945839548,-0.288269042969,0.4052734375,0.05078125,0.866027832031
29945853969,-0.289672851562,0.396118164062,0.0416259765625,0.870239257812
29945877087,-0.292175292969,0.386169433594,0.0327758789062,0.874328613281
29945899543,-0.295471191406,0.376098632812,0.0233764648438,0.877868652344
29945913914,-0.298889160156,0.366577148438,0.0133056640625,0.880920410156
29945937035,-0.301574707031,0.357238769531,0.00335693359375,0.883972167969
29945959539,-0.303161621094,0.34716796875,-0.00653076171875,0.887390136719
29945973917,-0.305236816406,0.336853027344,-0.016357421875,0.890502929688
29945997100,-0.307495117188,0.326354980469,-0.026611328125,0.893432617188
29946019594,-0.30859375,0.315979003906,-0.0372314453125,0.896362304688
29946040717,-0.308715820312,0.30517578125,-0.0474853515625,0.899597167969
29946057030,-0.309143066406,0.293762207031,-0.0574340820312,0.902648925781
29946079480,-0.310241699219,0.282043457031,-0.0673828125,0.905334472656
29946093914,-0.31103515625,0.270141601562,-0.0771484375,0.907897949219
29946117689,-0.311279296875,0.258178710938,-0.086181640625,0.910461425781
29946139539,-0.311645507812,0.24609375,-0.0943603515625,0.912902832031
29946153952,-0.312866210938,0.233215332031,-0.102661132812,0.914978027344
29946177008,-0.314453125,0.220031738281,-0.111328125,0.916687011719
29946199564,-0.31494140625,0.207153320312,-0.119384765625,0.91845703125
29946213966,-0.314147949219,0.1943359375,-0.126892089844,0.920532226562
29946237042,-0.314758300781,0.181091308594,-0.134216308594,0.921997070312
29946259545,-0.317077636719,0.167297363281,-0.141418457031,0.922729492188
29946280712,-0.318725585938,0.153869628906,-0.147399902344,0.923522949219
29946297005,-0.319091796875,0.14111328125,-0.152526855469,0.924621582031
29946319570,-0.319641113281,0.128662109375,-0.157897949219,0.925354003906
29946342014,-0.3203125,0.116638183594,-0.163146972656,0.925842285156
29946356998,-0.319885253906,0.105163574219,-0.167663574219,0.926513671875
29946379543,-0.318786621094,0.094482421875,-0.171875,0.927307128906
29946400597,-0.318420410156,0.084716796875,-0.176513671875,0.927490234375
29946417044,-0.318359375,0.0759887695312,-0.180847167969,0.927429199219
29946447075,-0.318115234375,0.0681762695312,-0.184387207031,0.927429199219
29946460698,-0.31787109375,0.0614624023438,-0.187622070312,0.927307128906
29946477049,-0.317749023438,0.0554809570312,-0.190795898438,0.927124023438
29946499473,-0.318237304688,0.0499877929688,-0.19384765625,0.926635742188
29946520725,-0.318542480469,0.0447998046875,-0.196594238281,0.926208496094
29946536393,-0.318664550781,0.0399169921875,-0.199462890625,0.92578125
29946559565,-0.318115234375,0.0350341796875,-0.202453613281,0.925537109375
29946580731,-0.317199707031,0.0302734375,-0.204895019531,0.925476074219
29946597006,-0.316345214844,0.0257568359375,-0.206909179688,0.925415039062
29946619570,-0.314758300781,0.0215454101562,-0.208984375,0.925598144531
29946640639,-0.315734863281,0.0186767578125,-0.210571289062,0.924987792969
29946656438,-0.316162109375,0.0164794921875,-0.211486816406,0.924682617188
29946679567,-0.316650390625,0.0145263671875,-0.212341308594,0.924377441406
29946700571,-0.317321777344,0.0128784179688,-0.21337890625,0.923889160156
29946717012,-0.317810058594,0.0113525390625,-0.21435546875,0.923522949219
29946739549,-0.317565917969,0.00982666015625,-0.215087890625,0.923461914062
29946762040,-0.317687988281,0.0081787109375,-0.216003417969,0.923217773438
29946777002,-0.317687988281,0.00640869140625,-0.216979980469,0.922973632812
29946799510,-0.316833496094,0.00445556640625,-0.217834472656,0.923095703125
29946822024,-0.315734863281,0.00225830078125,-0.219055175781,0.923217773438
29946837073,-0.31494140625,0.00030517578125,-0.220642089844,0.923095703125
29946859535,-0.314392089844,-0.001220703125,-0.221862792969,0.922973632812
29946881988,-0.313598632812,-0.00238037109375,-0.22216796875,0.923156738281
29946897000,-0.31103515625,-0.0040283203125,-0.221923828125,0.924072265625
29946919490,-0.308044433594,-0.00640869140625,-0.222595214844,0.924926757812
29946942042,-0.305847167969,-0.0086669921875,-0.224304199219,0.925231933594
29946956363,-0.304138183594,-0.0100708007812,-0.225769042969,0.925415039062
29946979541,-0.302612304688,-0.0107421875,-0.226440429688,0.92578125
29947002046,-0.301086425781,-0.0114135742188,-0.226501464844,0.926208496094
29947016399,-0.29931640625,-0.0126342773438,-0.226684570312,0.926696777344
