30094973936,0.1416015625,-0.5498046875,0.7822265625
30094988812,0.1435546875,-0.55224609375,0.7958984375
30095010135,0.3818359375,-0.5810546875,0.9658203125
30095033826,-0.15673828125,-0.67822265625,0.9013671875
30095048895,0.1044921875,-0.64892578125,1.037109375
30095070424,-0.42333984375,-0.7177734375,0.55322265625
30095093942,-0.35498046875,-0.572265625,0.2763671875
30095109030,0.4521484375,-0.390625,0.7666015625
30095160142,0.7646484375,-0.45361328125,1.310546875
30095170123,0.0322265625,-0.68359375,0.97705078125
30095173015,-0.52880859375,-0.6826171875,0.34375
30095186643,0.02392578125,-0.4697265625,0.44482421875
30095201586,-0.0419921875,-0.650390625,0.8720703125
30095220844,0.17138671875,-0.56640625,0.78857421875
30095244563,0.13330078125,-0.5361328125,0.7998046875
30095272553,0.13818359375,-0.54052734375,0.77880859375
30095285003,0.14306640625,-0.54541015625,0.78955078125
30095303253,0.03662109375,-0.552734375,0.79345703125
30095317691,0.4833984375,-0.53759765625,1.158203125
30095340061,0.6728515625,-0.38330078125,0.96337890625
30095362634,0.80615234375,-0.40478515625,1.2197265625
30095377542,0.4267578125,-0.59033203125,1.23388671875
30095400197,-0.35107421875,-0.71337890625,0.654296875
30095422573,-0.40380859375,-0.59423828125,0.26513671875
30095437619,0.42041015625,-0.3994140625,0.71875
30095460113,0.7822265625,-0.44921875,1.28955078125
30095482578,0.06201171875,-0.64453125,1.01953125
30095497476,0.03125,-0.634765625,0.94189453125
30095520089,0.06494140625,-0.470703125,0.75439453125
30095542563,0.13134765625,-0.55322265625,0.7998046875
30095557581,0.14599609375,-0.564453125,0.791015625
30095580082,0.13037109375,-0.548828125,0.810546875
30095602591,0.10546875,-0.54248046875,0.8271484375
30095617637,0.09521484375,-0.58056640625,0.85595703125
30095640103,0.123046875,-0.56884765625,0.83203125
30095662556,0.16845703125,-0.53076171875,0.80517578125
30095678921,0.17333984375,-0.53662109375,0.78564453125
30095700091,0.15576171875,-0.5712890625,0.7451171875
30095722546,0.15771484375,-0.6162109375,0.732421875
30095738938,0.1611328125,-0.6240234375,0.74560546875
30095759962,0.15966796875,-0.62255859375,0.75341796875
30095782541,0.1630859375,-0.60009765625,0.7724609375
30095798917,0.17138671875,-0.6015625,0.8037109375
30095820027,0.16455078125,-0.59521484375,0.82275390625
30095842554,0.1533203125,-0.6142578125,0.84716796875
30095858943,0.162109375,-0.53076171875,0.84521484375
30095880182,0.13818359375,-0.48583984375,0.87548828125
30095902570,0.11279296875,-0.4892578125,0.8984375
30095918955,0.09619140625,-0.53076171875,0.87109375
30095941412,0.07080078125,-0.59228515625,0.85009765625
30095962548,0.0478515625,-0.65185546875,0.83837890625
30095978981,0.02197265625,-0.669921875,0.83154296875
30096000021,-0.0078125,-0.68115234375,0.81884765625
30096022438,-0.04931640625,-0.67333984375,0.8056640625
30096038917,-0.09716796875,-0.68408203125,0.78466796875
30096060206,-0.12548828125,-0.66064453125,0.7392578125
30096082595,-0.138671875,-0.6357421875,0.73486328125
30096100376,-0.18310546875,-0.6142578125,0.71044921875
30096120094,-0.21923828125,-0.6142578125,0.69482421875
30096142526,-0.24951171875,-0.6533203125,0.6845703125
30096160362,-0.27880859375,-0.697265625,0.65087890625
30096180093,-0.29833984375,-0.705078125,0.62841796875
30096202580,-0.30712890625,-0.70654296875,0.61083984375
30096220371,-0.30419921875,-0.701171875,0.61328125
30096240079,-0.32568359375,-0.685546875,0.62060546875
30096263206,-0.35302734375,-0.6708984375,0.61279296875
30096279518,-0.36376953125,-0.6533203125,0.6015625
30096302053,-0.373046875,-0.6591796875,0.59228515625
30096323195,-0.375,-0.65087890625,0.59521484375
30096339577,-0.3955078125,-0.63671875,0.59130859375
30096362069,-0.40673828125,-0.62646484375,0.57470703125
30096383268,-0.41552734375,-0.63916015625,0.5791015625
30096399551,-0.4267578125,-0.63671875,0.556640625
30096422083,-0.439453125,-0.6220703125,0.5673828125
30096443224,-0.44970703125,-0.59228515625,0.57666015625
30096459576,-0.4609375,-0.58642578125,0.5546875
30096482048,-0.47705078125,-0.56884765625,0.5556640625
30096503205,-0.48046875,-0.5703125,0.5546875
30096518885,-0.50439453125,-0.58544921875,0.5615234375
30096542069,-0.50830078125,-0.57275390625,0.56396484375
30096563268,-0.5166015625,-0.58056640625,0.56640625
30096578925,-0.51904296875,-0.57958984375,0.5654296875
30096602092,-0.5283203125,-0.5517578125,0.56201171875
30096624568,-0.5283203125,-0.54638671875,0.55908203125
30096638965,-0.517578125,-0.5625,0.5703125
30096662046,-0.51416015625,-0.560546875,0.587890625
30096684520,-0.529296875,-0.59716796875,0.57177734375
30096698914,-0.5166015625,-0.58447265625,0.578125
30096722079,-0.53076171875,-0.55029296875,0.57763671875
30096744543,-0.55224609375,-0.55322265625,0.56884765625
30096765732,-0.5322265625,-0.55712890625,0.56201171875
30096782026,-0.52734375,-0.54052734375,0.568359375
30096804550,-0.55078125,-0.5517578125,0.5673828125
30096818947,-0.54736328125,-0.560546875,0.5703125
30096842019,-0.53759765625,-0.576171875,0.580078125
30096864551,-0.55224609375,-0.56591796875,0.57470703125
30096878968,-0.56396484375,-0.55908203125,0.5712890625
30096902036,-0.5478515625,-0.5498046875,0.564453125
30096924571,-0.54443359375,-0.578125,0.57568359375
30096938941,-0.552734375,-0.580078125,0.57080078125
30096962045,-0.56640625,-0.580078125,0.57275390625
30096984520,-0.5634765625,-0.59619140625,0.568359375
30096998919,-0.54296875,-0.60009765625,0.552734375
30097022048,-0.55419921875,-0.60595703125,0.5556640625
30097044549,-0.57568359375,-0.6240234375,0.57861328125
30097065668,-0.57568359375,-0.63330078125,0.57568359375
30097082017,-0.55126953125,-0.61767578125,0.5703125
30097104542,-0.55224609375,-0.60888671875,0.56689453125
30097125802,-0.54931640625,-0.609375,0.57275390625
30097142010,-0.54345703125,-0.62060546875,0.58203125
30097164589,-0.54833984375,-0.619140625,0.59375
30097185732,-0.54833984375,-0.62158203125,0.5869140625
30097202050,-0.53955078125,-0.62890625,0.58935546875
30097224506,-0.54638671875,-0.6259765625,0.57958984375
30097245634,-0.5390625,-0.630859375,0.580078125
30097262039,-0.541015625,-0.62890625,0.57177734375
30097284515,-0.53515625,-0.6240234375,0.56591796875
30097305671,-0.53662109375,-0.6318359375,0.5634765625
30097321995,-0.52490234375,-0.654296875,0.5546875
30097344539,-0.51806640625,-0.66943359375,0.55419921875
30097365784,-0.529296875,-0.658203125,0.55419921875
30097382042,-0.54833984375,-0.6494140625,0.55029296875
30097404537,-0.54833984375,-0.603515625,0.54638671875
30097425723,-0.53955078125,-0.595703125,0.54296875
30097442022,-0.53662109375,-0.61474609375,0.54638671875
30097464490,-0.53857421875,-0.63525390625,0.5546875
30097485746,-0.53857421875,-0.6416015625,0.54736328125
30097502045,-0.5302734375,-0.63427734375,0.5458984375
30097524499,-0.525390625,-0.63427734375,0.54345703125
30097547047,-0.533203125,-0.6328125,0.54638671875
30097562030,-0.54150390625,-0.6435546875,0.548828125
30097584492,-0.5390625,-0.64306640625,0.53125
30097607048,-0.53515625,-0.62353515625,0.537109375
30097622039,-0.53857421875,-0.63525390625,0.54296875
30097644493,-0.53759765625,-0.65478515625,0.552734375
30097667023,-0.5419921875,-0.65625,0.5537109375
30097681393,-0.54296875,-0.62744140625,0.544921875
30097704517,-0.53955078125,-0.62890625,0.55078125
30097727041,-0.53515625,-0.640625,0.53857421875
30097741365,-0.52734375,-0.650390625,0.541015625
30097764511,-0.53955078125,-0.646484375,0.54443359375
30097787045,-0.54248046875,-0.6279296875,0.54345703125
30097801369,-0.53076171875,-0.6513671875,0.5478515625
30097824555,-0.5146484375,-0.65185546875,0.529296875
30097847026,-0.5341796875,-0.63720703125,0.5400390625
30097861428,-0.5390625,-0.6357421875,0.53662109375
30097884542,-0.53369140625,-0.640625,0.533203125
30097907046,-0.53564453125,-0.6376953125,0.5361328125
30097921335,-0.529296875,-0.650390625,0.52587890625
30097944517,-0.53955078125,-0.64599609375,0.5244140625
30097967025,-0.544921875,-0.6494140625,0.51708984375
30097981433,-0.52392578125,-0.6416015625,0.51171875
30098004519,-0.5302734375,-0.642578125,0.51416015625
30098027005,-0.52197265625,-0.66015625,0.52685546875
30098048205,-0.51806640625,-0.67333984375,0.50341796875
30098064548,-0.52587890625,-0.6484375,0.51806640625
30098086993,-0.51513671875,-0.6455078125,0.521484375
30098108224,-0.5078125,-0.63623046875,0.50146484375
30098124555,-0.50537109375,-0.6484375,0.474609375
30098146998,-0.515625,-0.634765625,0.46875
30098168319,-0.521484375,-0.6396484375,0.48876953125
30098184552,-0.51904296875,-0.65283203125,0.49072265625
30098208514,-0.5185546875,-0.65966796875,0.48291015625
30098228279,-0.521484375,-0.66552734375,0.47900390625
30098244491,-0.52392578125,-0.67333984375,0.490234375
30098267025,-0.5302734375,-0.701171875,0.48486328125
30098288176,-0.51318359375,-0.71923828125,0.48828125
30098303954,-0.50732421875,-0.73046875,0.4931640625
30098326998,-0.50439453125,-0.74853515625,0.474609375
30098348156,-0.52197265625,-0.767578125,0.47802734375
30098364552,-0.54052734375,-0.76171875,0.46044921875
30098386999,-0.55126953125,-0.74072265625,0.43896484375
30098408189,-0.541015625,-0.7255859375,0.435546875
30098423901,-0.5302734375,-0.71630859375,0.43505859375
30098446982,-0.52978515625,-0.69091796875,0.4326171875
30098469522,-0.50732421875,-0.67578125,0.47607421875
30098483905,-0.490234375,-0.68896484375,0.48876953125
30098506998,-0.46728515625,-0.7119140625,0.51123046875
30098529516,-0.4580078125,-0.70556640625,0.53125
30098543923,-0.4423828125,-0.67529296875,0.5615234375
30098567024,-0.42041015625,-0.67041015625,0.57666015625
30098589629,-0.3935546875,-0.6806640625,0.57421875
30098603918,-0.37890625,-0.7041015625,0.61083984375
30098627023,-0.37255859375,-0.69873046875,0.6435546875
30098649501,-0.3359375,-0.634765625,0.65771484375
30098663824,-0.30615234375,-0.626953125,0.650390625
30098687048,-0.2646484375,-0.64404296875,0.67333984375
30098709499,-0.24658203125,-0.6982421875,0.69970703125
30098730604,-0.2255859375,-0.69970703125,0.705078125
30098747000,-0.2021484375,-0.66552734375,0.71826171875
30098769551,-0.2158203125,-0.64990234375,0.72607421875
30098790619,-0.19775390625,-0.64892578125,0.72314453125
30098806991,-0.17236328125,-0.615234375,0.7373046875
30098829519,-0.15234375,-0.63427734375,0.748046875
30098850597,-0.1318359375,-0.6328125,0.7529296875
30098867012,-0.10888671875,-0.6201171875,0.7607421875
30098889468,-0.08056640625,-0.61474609375,0.7578125
30098910702,-0.05810546875,-0.61474609375,0.75634765625
30098927018,-0.0537109375,-0.64306640625,0.7587890625
30098949527,-0.03564453125,-0.66357421875,0.76953125
30098970658,-0.0283203125,-0.634765625,0.74951171875
30098986961,-0.0126953125,-0.61083984375,0.759765625
30099009497,0.01318359375,-0.5947265625,0.7529296875
30099030648,-0.00830078125,-0.68115234375,0.72265625
30099046995,0.021484375,-0.7021484375,0.77294921875
30099069502,0.02685546875,-0.587890625,0.83740234375
30099090672,0.046875,-0.59814453125,0.845703125
30099106995,0.0634765625,-0.5537109375,0.8193359375
30099129520,0.0615234375,-0.57763671875,0.79052734375
30099150582,0.087890625,-0.62548828125,0.78369140625
30099167015,0.0986328125,-0.6103515625,0.798828125
30099189474,0.09912109375,-0.560546875,0.79833984375
30099210713,0.07763671875,-0.55078125,0.78125
30099227062,0.0849609375,-0.5634765625,0.78076171875
30099249493,0.09521484375,-0.57763671875,0.78857421875
30099270673,0.1025390625,-0.57421875,0.78466796875
30099286973,0.1015625,-0.55615234375,0.7705078125
30099309476,0.1083984375,-0.5478515625,0.77685546875
30099330648,0.12158203125,-0.57080078125,0.80224609375
30099346304,0.11962890625,-0.55322265625,0.806640625
30099369468,0.10400390625,-0.51220703125,0.80810546875
30099390594,0.09814453125,-0.498046875,0.8193359375
30099406368,0.09619140625,-0.49951171875,0.81201171875
30099421375,0.13623046875,-0.5224609375,0.82861328125
30099435063,0.15966796875,-0.53466796875,0.84765625
30099457496,0.1357421875,-0.55126953125,0.82958984375
30099472528,0.1142578125,-0.49755859375,0.7939453125
30099495126,0.11572265625,-0.50146484375,0.798828125
30099517579,0.146484375,-0.5263671875,0.81298828125
30099532411,0.14111328125,-0.537109375,0.81005859375
30099555052,0.13623046875,-0.5390625,0.78076171875
30099577490,0.16357421875,-0.53369140625,0.7822265625
30099592411,0.17431640625,-0.50732421875,0.80810546875
30099615017,0.1552734375,-0.49072265625,0.81201171875
30099637503,0.14794921875,-0.5029296875,0.7841796875
30099652541,0.146484375,-0.54248046875,0.79296875
30099675045,0.1513671875,-0.54052734375,0.7890625
30099697467,0.1337890625,-0.54931640625,0.7978515625
30099712493,0.14208984375,-0.5322265625,0.79833984375
30099734971,0.1396484375,-0.55615234375,0.791015625
30099757515,0.14599609375,-0.56103515625,0.79248046875
30099772480,0.13818359375,-0.5517578125,0.7919921875
30099795035,0.1416015625,-0.5634765625,0.78466796875
30099817595,0.14208984375,-0.55810546875,0.787109375
30099832518,0.14013671875,-0.55224609375,0.79296875
30099854940,0.146484375,-0.5390625,0.7861328125
30099877557,0.14794921875,-0.5361328125,0.7939453125
30099893796,0.1494140625,-0.544921875,0.79150390625
30099915118,0.14013671875,-0.55078125,0.79296875
30099937460,0.1376953125,-0.54541015625,0.7900390625
