30191342541,5,0,12,4,0,0,2,-4
30191342541,2,10,13,1,-1,-1,-3,1
30191348105,0,-8,12,-1,-2,-2,-8,-2
30191348105,-4,-1,-5,-3,-2,-1,3,7
30191349632,-6,-5,-10,-3,0,1,3,-1
30191349632,-3,-6,-4,0,-2,2,3,-1
30191350419,-3,0,-15,-5,0,-1,-4,-1
30191350419,-1,4,21,1,-1,-1,-3,-3
30191361832,0,-1,-2,-3,-1,-3,1,1
30191361832,-1,-1,-1,-1,0,-5,-16,-8
30191369778,0,1,-8,0,2,3,9,1
30191369778,-2,-17,-15,-2,1,1,-1,-2
30191376096,0,10,13,-3,-1,0,-3,-2
30191376096,3,-2,-13,-2,1,2,4,10
30191391142,7,4,15,6,-3,-2,-1,-17
30191391142,-22,-5,10,2,1,1,3,1
30191399791,6,-2,-25,-5,0,-4,-25,-3
30191399791,3,-7,0,-2,-2,6,31,1
30191414740,9,6,0,-2,-1,-2,-2,7
30191414740,4,-1,5,-1,-1,6,15,2
30191421881,-4,-4,-3,-3,-1,-5,-10,-5
30191421881,4,1,0,1,1,-2,1,-2
30191435896,-6,-5,3,-1,-4,-4,-8,-3
30191435896,7,8,-5,-4,-4,-5,-9,-6
30191476707,-12,-5,-22,-8,-5,-7,-8,6
30191476707,0,-1,11,-3,1,2,0,-2
30191477517,-4,3,-1,-2,-1,2,9,2
30191477517,6,6,-6,-1,0,0,0,4
30191478324,5,-1,6,2,0,-2,-3,-2
30191478324,-5,2,-9,-1,-1,-5,-8,3
30191481582,-2,-9,-6,-1,-3,-8,-24,-12
30191481582,6,10,3,-3,-1,5,25,7
30191488532,-4,0,21,2,-2,-5,-12,-22
30191488532,-18,-6,-16,-3,0,1,14,2
30191495923,3,-1,-6,-2,0,-3,-11,-7
30191495923,-6,0,-2,-1,-1,-3,-4,-2
30191504758,2,-1,6,1,2,5,10,8
30191504758,-1,-4,-10,-1,-1,-1,-6,-4
30191518386,5,3,-12,-3,-1,-1,-11,-5
30191518386,2,-3,20,3,-2,0,10,7
30191527249,12,-1,-5,-2,-2,0,-2,14
30191527249,-12,-7,21,6,-2,1,4,-23
30191549769,6,0,-4,0,0,0,9,7
30191549769,-11,-2,-2,-1,0,-4,-14,-1
30191551244,-5,-8,-7,-2,0,1,4,-10
30191551244,5,3,-7,2,1,-1,-9,6
30191564069,-2,2,12,1,1,2,3,-1
30191564069,1,-3,-11,-3,0,-1,-2,-8
30191570878,-1,1,1,-2,-1,-3,-8,2
30191570878,9,-2,5,-1,1,-2,-8,-3
30191587100,8,0,-10,-4,-2,2,11,6
30191587100,-6,2,22,4,0,1,5,-6
30191588704,2,2,-11,-1,2,1,1,2
30191588704,-10,-2,-3,-3,-3,-5,-5,4
30191609691,-2,-1,26,9,4,7,18,6
30191609691,-2,-6,-15,-2,-1,-3,-10,-14
30191611282,1,11,-3,0,-3,-1,2,2
30191611282,5,-7,-8,-5,-4,-5,-4,-5
30191624066,-15,-10,3,0,-6,-8,-23,-7
30191624066,0,3,3,-1,-1,-2,2,-1
30191630814,-2,3,-6,2,-1,-1,-3,-2
30191630814,-1,-7,11,1,-1,4,14,11
30191647210,16,11,-10,-4,-2,-5,-6,3
30191647210,-14,-14,-13,-1,1,3,5,2
30191648769,-7,-5,0,-3,-3,-4,-6,-10
30191648769,-3,0,-7,-3,-3,-1,6,0
30191669858,-4,-4,-2,-3,-4,-5,-14,4
30191669858,9,5,5,3,1,3,14,6
30191671226,0,-9,-13,-5,-2,-1,3,-3
30191671226,-2,3,10,1,-2,-3,-14,2
30191684138,-7,-1,-11,-2,0,1,10,-3
30191684138,1,7,-6,-3,-3,-5,-9,-1
30191690923,-8,-13,3,-2,-1,-2,-6,-2
30191690923,10,7,-8,-1,-2,-3,-9,-2
30191707194,-4,0,22,0,-3,2,13,-3
30191707194,3,-8,-4,1,1,0,0,3
30191708754,-2,0,-13,0,0,0,5,0
30191708754,-1,2,-7,-2,0,-2,-7,-4
30191729942,-1,-2,0,-2,0,1,0,-1
30191729942,-5,-7,-10,-2,-3,-2,-12,-3
30191731231,1,0,1,-2,-2,-1,-2,-12
30191731231,9,8,-3,-1,-2,-1,2,4
30191744040,-3,-6,5,3,-1,3,6,-3
30191744040,-1,-4,-3,-5,-3,-3,-4,-2
30191750913,3,6,2,-1,-3,-3,-1,1
30191750913,2,3,-1,-1,-1,0,4,-1
30191767258,-8,0,9,2,0,-2,0,-4
30191767258,-2,-1,-5,0,-1,-2,-9,-4
30191768711,0,5,8,2,3,0,-1,2
30191768711,-7,-20,-21,-1,1,1,5,-3
30191789749,-4,-2,-7,-1,-1,-1,-3,0
30191789749,3,-1,-2,-3,-3,-3,-8,0
30191791253,-7,-3,4,1,0,0,-2,1
30191791253,5,4,9,0,-1,1,7,0
30191804074,3,0,-10,-2,-1,-1,1,2
30191804074,-1,1,7,-5,-1,-1,-3,9
30191810870,5,-1,-2,-4,-1,-1,1,-6
30191810870,-2,2,4,-1,-2,-5,-8,-2
30191827317,-5,0,-6,-3,-1,-4,-5,-4
30191827317,2,-2,-6,-3,0,0,8,2
30191828732,4,5,14,0,-1,-3,-4,4
30191828732,-9,7,1,0,0,-2,-1,-3
30191849791,0,-6,-7,-4,-1,-1,1,2
30191849791,9,6,-1,-2,-2,-2,-7,-6
30191851251,-6,-10,1,3,0,2,1,-1
30191851251,4,2,-3,-3,-2,0,-6,-6
30191863336,-5,4,-8,-3,-1,2,6,3
30191863336,-9,-13,3,1,-3,-3,-3,-4
30191872286,-1,-3,-4,0,-1,0,3,2
30191872286,2,-1,5,0,2,0,1,3
30191887255,-3,-3,-9,-2,-1,-2,-6,-3
30191887255,-3,-2,3,-1,-5,-2,-2,-2
30191888733,0,5,5,1,-3,-1,-3,-1
30191888733,-4,-11,-6,-1,-1,-2,-7,-3
30191909817,3,3,0,-4,1,-2,0,0
30191909817,-2,9,-4,0,1,5,13,-2
30191911272,1,-8,-1,-5,-3,-1,1,1
30191911272,-2,-4,-2,-5,-2,0,2,-1
30191923371,-1,-5,4,0,-2,-2,-6,-4
30191923371,-1,0,-5,-1,-2,-4,-4,-4
30191932280,-4,2,-1,0,-1,1,1,1
30191932280,4,1,2,2,3,2,5,3
30191947280,0,-1,-9,-10,-1,-1,-1,0
30191947280,-4,-9,8,6,-5,-4,-6,-4
30191948759,-3,5,2,7,2,-3,-2,-6
30191948759,2,3,-9,0,2,4,3,6
30191969757,-2,-8,6,4,-2,-4,-3,-2
30191969757,0,5,-3,-5,0,0,-4,-2
30191971231,1,4,6,-5,-2,0,0,0
30191971231,-4,-2,1,8,0,0,2,-3
30191983419,1,-11,-9,-2,-2,0,-1,-2
30191983419,-3,-3,-6,-3,-1,-2,-3,-1
30191992300,-5,-8,-5,-2,-5,-2,-3,0
30191992300,-1,0,-2,-5,-2,0,1,-2
30192007292,2,12,19,6,1,0,1,-2
30192007292,0,1,-7,-4,-5,-3,-3,-4
30192008767,1,-4,-7,-2,1,2,2,3
30192008767,3,2,4,4,1,1,2,-2
30192030059,-3,-2,-3,2,1,1,0,2
30192030059,-1,0,2,1,4,2,-2,-4
30192031698,-1,10,-2,-9,-3,-2,0,0
30192031698,0,-13,-5,-6,-8,-8,-7,-3
30192043379,10,5,7,0,0,-2,-4,3
30192043379,-11,-4,-1,-2,3,4,2,1
30192052257,1,-2,-6,-1,-2,0,2,0
30192052257,-7,1,6,0,0,-1,-3,-6
30192067242,1,-4,-5,-7,-6,-4,0,-4
30192067242,3,1,2,-2,-3,-3,-2,-1
30192068705,-1,-6,-12,-7,-3,-2,-4,0
30192068705,-2,-2,-2,6,5,2,2,-2
30192089618,-3,5,5,2,2,-1,-1,-3
30192089618,3,2,-1,-1,-2,-1,-3,1
30192091228,-2,-11,-7,-3,-4,-4,-3,-2
30192091228,4,8,8,5,3,0,1,2
30192103323,-2,1,-2,-1,1,0,-1,-1
30192103323,-1,1,-7,0,3,0,0,-1
30192112262,-1,-16,5,7,5,2,3,0
30192112262,-4,-3,1,-3,-1,-2,-1,0
30192127310,2,-1,-1,-1,-4,-3,-2,-2
30192127310,4,0,-2,-6,-8,-4,-3,0
30192128738,1,3,0,-4,-4,-3,-2,-1
30192128738,-3,-1,2,-4,0,0,-2,0
30192149836,-1,1,-2,4,4,2,2,-2
30192149836,2,-3,-3,2,0,-1,0,0
30192151255,-2,1,-1,1,3,2,0,-1
30192151255,1,-1,-6,-8,-7,-3,-2,-4
30192163372,-6,-4,-2,-3,-5,-3,-1,0
30192163372,-1,-1,4,5,4,1,0,-1
30192172293,-1,3,5,2,0,1,1,0
30192172293,0,-4,-17,-10,-5,-2,1,1
30192186537,-4,0,8,18,13,4,-1,0
30192186537,1,6,15,2,1,1,2,-1
30192193368,-1,-2,0,3,0,-1,-3,-1
30192193368,1,1,1,-5,-4,0,1,0
30192209837,-3,-7,-26,0,-2,-1,-2,-3
30192209837,0,-9,5,-13,-5,-7,-2,-1
30192211226,4,5,-3,-4,2,3,2,0
30192211226,-1,-10,1,2,-3,-2,-1,-1
30192223416,-1,0,-2,-3,-1,-1,0,0
30192223416,0,6,8,11,4,2,-2,-1
30192232255,2,2,-2,-3,0,0,2,0
30192232255,-3,-6,-11,-3,-6,-3,-3,-1
30192246593,0,8,21,-2,-5,-2,-3,-3
30192246593,-1,-15,-18,-5,-2,-2,-1,-3
30192253391,2,13,11,1,0,-2,-1,0
30192253391,-3,5,5,2,5,4,0,-2
30192269770,-7,-23,-30,-7,-3,1,-1,0
30192269770,-3,4,7,-2,-3,-2,-2,3
30192271270,0,7,16,2,0,4,0,2
30192271270,-4,-6,-10,-3,-2,-1,-1,-1
30192292232,-2,4,0,-4,-1,-3,0,2
30192292232,-2,-2,-3,-2,-2,-1,0,-1
30192293821,-5,-13,-26,-6,-6,-7,-3,-3
30192293821,-2,7,7,1,-2,-5,-3,-1
30192306575,-2,0,14,-1,1,0,0,-1
30192306575,0,3,-9,3,4,2,3,0
30192313360,-1,8,4,-1,-3,-4,-4,-3
30192313360,-4,-10,-1,-3,0,-3,1,0
30192329758,-3,-7,7,3,-3,-3,-3,-2
30192329758,-1,0,2,-1,2,-1,-1,1
30192331214,-1,-3,-4,1,4,1,2,0
30192331214,0,1,-1,-5,-5,-5,-1,-2
30192352311,-1,2,-4,-6,-4,-2,-2,-1
30192352311,-6,-1,2,-2,1,6,1,0
30192353750,-2,-6,-19,-6,-6,-1,-5,-6
30192353750,0,0,-1,2,-1,0,-1,-1
30192366567,-11,-2,-2,-3,-2,-6,-2,-5
30192366567,-2,3,9,-1,-5,-4,-2,-4
30192373361,2,1,0,1,6,4,1,2
30192373361,2,-4,9,0,2,3,1,2
30192389779,1,5,0,-8,-5,-4,-4,-1
30192389779,-2,-8,-9,0,0,0,0,-1
30192391223,-5,-4,1,1,1,1,2,-2
30192391223,-1,2,0,5,-1,-2,-2,-1
30192412286,0,-3,-4,0,-2,-1,0,-3
30192412286,-1,-5,-10,-2,-1,-2,-5,-3
30192413765,6,10,15,2,-3,-1,-3,4
30192413765,-7,-13,-6,-3,1,-1,-2,-4
30192426548,-5,-11,-1,-2,-2,-1,0,1
30192426548,10,19,8,0,-2,-3,-4,-4
30192433405,2,-3,0,-3,1,0,4,2
30192433405,-2,6,7,-5,-4,-3,-4,1
30192448375,3,-2,0,3,1,-2,1,-1
30192448375,-1,-3,-6,2,4,3,0,3
30192457265,0,-3,-6,-2,-3,-1,2,0
30192457265,7,9,6,3,0,3,2,1
30192472227,4,5,-2,-3,1,3,2,5
30192472227,-8,-9,-14,-3,-4,-4,-8,-4
30192473741,-5,-6,6,3,-2,-1,6,-1
30192473741,-5,1,-2,0,0,-2,1,-4
30192494761,3,1,-5,-3,-3,1,2,2
30192494761,1,-3,1,-1,-5,-6,-1,2
30192496259,-1,-7,-7,-1,-1,-4,-8,0
30192496259,-7,4,0,2,8,8,1,-4
30192508369,-4,9,-3,4,3,1,-2,-3
30192508369,6,4,9,-5,-6,-4,1,3
30192517282,-7,-10,-10,-2,-3,-5,-4,-4
30192517282,-2,1,9,1,1,-4,-9,-6
30192532256,-2,1,-4,-1,1,4,6,3
30192532256,4,0,3,1,2,0,3,4
30192533731,-1,-10,-18,-7,-5,-2,4,0
30192533731,0,2,-9,-1,-1,-6,-11,-6
30192554717,-1,-5,6,-1,-2,-2,3,21
30192554717,0,-13,-22,-2,1,1,2,14
30192556234,1,13,29,6,1,2,0,5
30192556234,0,7,-9,-3,1,0,2,-1
30192568395,4,-3,-4,-3,-2,0,-6,-14
30192568395,-5,1,3,-5,-4,0,1,-9
30192577282,1,-12,-6,-4,-2,-1,0,-3
30192577282,2,6,6,5,2,-1,1,-7
30192592113,-1,3,6,4,4,4,-5,-7
30192592113,-5,-9,0,-4,-4,-2,-2,-8
30192593741,-13,-6,0,-1,-4,0,-2,-13
30192593741,5,-5,-9,1,0,3,5,3
30192614683,1,-3,-3,-3,-4,-3,0,2
30192614683,-7,-3,7,2,2,0,-3,-5
30192616281,4,13,6,2,3,1,-4,-2
30192616281,3,-1,-5,0,-3,0,1,6
30192628324,4,-11,1,1,3,2,3,0
30192628324,-21,0,-7,-3,-3,-1,-3,-14
30192637243,7,-12,-7,-1,0,-2,2,15
30192637243,-22,-15,0,-3,0,1,0,-4
30192652127,7,14,0,-7,-8,-6,-4,-4
30192652127,-5,-7,-8,1,6,0,-1,-6
30192653742,11,19,14,3,2,0,-4,-2
30192653742,3,-8,-17,-3,-2,-3,-5,4
30192674800,-19,1,12,-3,-4,1,10,-1
30192674800,2,-2,-3,-5,-4,-2,-3,-4
30192676222,-2,0,11,5,6,3,4,7
30192676222,37,25,-5,0,0,-1,3,6
30192688400,-9,-24,6,-1,-6,-7,-6,0
30192688400,7,-8,-13,-3,-2,1,-1,-10
30192697253,-53,-14,-8,1,-2,1,1,1
30192697253,23,2,2,-3,0,0,1,0
30192711644,11,7,-14,2,4,2,-1,14
30192711644,5,17,19,-1,-4,-6,-3,-10
30192718410,19,13,12,1,-4,-3,-5,3
30192718410,-1,-17,1,-1,-1,-3,4,3
30192734663,20,23,8,0,2,3,1,-12
30192734663,2,-33,-22,-2,-1,0,7,30
30192736261,7,23,17,-2,0,-1,0,4
30192736261,-24,-26,-21,-10,-8,-5,-2,0
30192748376,7,-19,-2,0,-1,0,-3,-14
30192748376,28,36,17,6,7,7,3,5
30192757287,-8,-14,-21,-10,-9,-10,-11,-15
30192757287,15,19,28,5,-2,-3,-4,6
30192771621,-48,-26,-21,-4,-4,-4,-7,-10
30192771621,25,14,1,4,0,4,3,4
30192778356,-54,-51,-11,-7,-2,-2,-3,-7
30192778356,12,-12,-16,1,2,2,-2,-3
30192794843,4,25,-5,-1,1,0,-4,-2
30192794843,0,-3,5,-3,-4,-3,0,-2
30192796232,12,5,-15,-9,-1,0,1,-4
30192796232,-21,-8,-5,0,2,2,-2,-6
30192817235,4,7,-3,-3,-7,-3,-2,-2
30192817235,16,52,15,8,5,3,2,6
30192818705,4,-27,6,5,0,-1,-4,-6
30192818705,-39,-25,-15,-14,-4,-3,-3,-9
30192831532,10,23,4,1,-1,-4,-4,2
30192831532,1,21,7,4,7,6,6,2
30192838552,-6,-10,-23,-6,-3,-4,-10,-21
30192838552,4,0,30,5,-1,-1,0,-5
30192854712,1,-10,1,-10,-3,1,9,17
30192854712,13,-5,-7,-6,-8,-8,-5,-3
30192856254,-41,-44,-21,-11,-6,-5,-9,-12
30192856254,-4,-6,8,4,2,4,2,5
30192877186,-10,-26,-32,-4,4,3,4,-5
30192877186,2,3,-15,2,1,0,3,2
30192878705,37,60,40,11,6,4,4,1
30192878705,-23,-42,-21,-9,-5,-1,1,2
30192891476,-40,-26,1,-6,-9,-9,-11,-13
30192891476,33,13,2,-1,2,2,-1,9
30192898502,3,-10,-17,-4,-3,2,4,8
30192898502,39,68,10,11,5,4,6,13
30192914692,-13,20,26,6,-1,-2,-3,-2
30192914692,-34,-32,-17,-17,-13,-13,-13,-7
30192916224,21,-5,4,9,4,5,9,10
30192916224,11,-1,-3,-4,-3,-5,-7,-9
30192937219,33,22,28,13,9,10,16,27
30192937219,-24,-7,-5,-3,-4,-4,-7,-13
30192938732,-26,-15,-17,-5,2,1,1,-4
30192938732,-7,5,5,-3,-2,-2,-5,-11
30192951483,6,-29,-21,-7,-6,-4,-3,9
30192951483,-17,-13,20,2,0,-1,-2,-2
30192958384,4,21,7,-6,-6,-5,0,2
30192958384,0,20,-11,0,0,0,-3,-16
30192974722,-1,10,9,2,1,-3,-1,-1
30192974722,51,29,14,8,4,7,12,11
30192976204,10,-13,-17,-7,-2,-2,-1,9
30192976204,21,28,26,2,-2,-1,2,2
30192997235,3,2,-20,-8,0,-4,-11,-18
30192997235,-47,-41,-12,-4,-2,-2,-6,-7
30192998740,67,62,9,5,0,-2,-2,3
30192998740,-11,-4,13,1,3,3,3,-3
30193011598,14,13,-1,3,-1,0,1,-1
30193011598,-19,-22,-14,-4,-3,-4,-5,-13
30193018384,-23,-11,46,2,-2,0,1,8
30193018384,3,2,-5,-6,-5,-4,0,4
30193034781,-21,-32,-20,-6,-7,-10,-11,-13
30193034781,63,28,-16,16,17,10,5,10
30193036225,-80,-58,-40,-12,-6,-4,0,-23
30193036225,4,-18,4,4,1,2,2,8
30193056343,60,50,28,1,-1,-2,0,13
30193056343,-30,-19,10,-9,-13,-12,-9,-4
30193064072,17,20,26,11,8,4,0,-4
30193064072,-13,-13,-12,-8,-4,0,5,2
30193079727,-16,11,8,2,2,1,-2,-10
30193079727,-5,-10,16,-1,-1,1,1,-2
30193080449,19,18,3,4,1,0,-1,-1
30193080449,-36,-21,-42,-9,-1,-1,2,-1
30193093916,10,3,-4,4,5,1,0,7
30193093916,-14,5,34,-1,-1,-4,-7,-11
30193094731,8,7,6,1,-4,-2,0,-1
30193094731,0,12,2,2,1,0,-5,-3
30193116560,20,-5,-13,0,1,2,-1,-7
30193116560,-31,-15,-16,-4,-1,2,5,5
30193117238,3,-6,-17,-5,-5,-4,-4,-5
30193117238,16,-3,18,0,-4,-4,-4,5
30193130860,-29,-39,2,-1,2,2,-1,-11
30193130860,33,31,-12,2,1,2,0,3
30193139042,-14,9,8,-2,-5,-7,-4,4
30193139042,16,30,-6,3,-3,-3,0,10
30193154008,-15,9,-4,3,7,4,6,-6
30193154008,10,-19,-6,2,5,7,7,9
30193154713,11,13,5,3,4,4,5,13
30193154713,12,25,14,-9,-11,-12,-12,-11
30193176644,-9,4,4,-8,-11,-6,-2,12
30193176644,-5,-13,-19,0,5,4,6,-3
30193177221,15,15,-10,5,2,1,-2,-3
30193177221,-20,0,-11,-4,-2,-2,-1,-8
30193190893,-4,-1,38,-8,-13,-10,-2,0
30193190893,-14,-12,-9,-6,-2,-5,-6,-7
30193199065,17,5,-1,-5,0,1,0,7
30193199065,4,-34,-27,3,2,0,-2,-4
30193214017,-3,9,-5,3,8,8,9,12
30193214017,-9,-21,-28,-9,-10,-6,-4,-6
30193214743,12,33,-3,0,0,1,-4,-10
30193214743,-10,-8,13,7,7,2,-1,2
30193236523,14,-29,-11,-1,0,1,-1,8
30193236523,-10,-7,0,0,-2,-2,2,-4
30193237221,19,4,-15,1,0,3,7,13
30193237221,-24,-9,7,2,1,4,5,-10
30193250897,10,20,18,4,0,-6,-8,-9
30193250897,15,22,9,-5,-3,-3,-1,6
30193259044,-12,-40,-8,-12,-9,-7,-8,-9
30193259044,2,-9,1,-2,-3,-4,-3,-1
30193274036,1,25,5,4,5,4,-1,-7
30193274036,-8,-22,14,3,2,3,4,3
30193274716,3,28,-10,-3,-7,-5,-7,-6
30193274716,-25,-34,-22,-9,-4,-4,-6,-5
30193296544,-1,5,-36,-7,-8,-8,-6,-11
30193296544,-1,27,39,2,-3,-4,-2,-4
30193297223,-4,-3,15,4,6,2,3,-2
30193297223,0,-26,7,10,13,12,9,7
30193310773,16,5,-28,-3,0,0,0,-2
30193310773,-80,-52,-16,-7,-4,-5,-9,-20
30193319097,2,-15,-5,-5,-4,-1,7,13
30193319097,14,27,11,5,-1,3,1,1
30193333772,-19,-35,-1,-9,-7,-1,1,5
30193333772,9,-1,-8,11,11,6,1,-1
30193341560,16,13,13,8,7,6,1,-2
30193341560,-8,23,-13,-2,-5,-11,-15,-18
30193356516,-46,-42,1,-4,-6,-2,8,5
30193356516,24,25,6,6,4,-1,-7,-6
30193357202,-34,-42,-21,-7,-3,-4,-3,-1
30193357202,7,28,1,-12,-10,-12,-5,-8
30193370873,5,-6,19,3,1,0,4,13
30193370873,2,30,15,-2,-5,-2,-2,1
30193379161,0,-11,-2,3,2,-1,-1,-5
30193379161,26,30,26,2,-2,-4,-3,4
30193394069,-13,-6,-27,-5,-1,2,3,-3
30193394069,-8,-2,-7,-4,-8,-7,-1,-3
30193394695,31,39,27,3,5,2,-2,2
30193394695,-48,-78,7,-1,-2,6,9,9
30193416470,18,26,28,11,11,6,-3,-5
30193416470,13,-6,-66,-8,5,8,13,17
30193417199,-2,17,33,1,-2,-3,-3,-8
30193417199,-5,23,4,5,6,10,11,3
30193430829,-9,-63,-19,2,-1,2,2,5
30193430829,-3,6,19,5,-2,-2,-5,-6
30193439021,-13,-47,7,-4,-5,-2,-5,-7
30193439021,27,36,-17,-2,-2,-1,1,9
30193454025,33,56,9,15,5,2,-3,-6
30193454025,-1,-27,-8,-12,-3,-3,-4,-1
30193454720,-3,-13,-25,0,-3,-2,-4,-8
30193454720,16,3,10,3,0,-2,-1,9
30193476497,16,20,-3,2,6,4,-3,-11
30193476497,10,5,47,-3,-6,-5,2,15
30193477196,-1,41,-16,-6,-7,-6,-1,2
30193477196,-6,-25,-6,1,4,1,-4,-14
30193490816,-4,12,23,1,-1,-4,-1,-4
30193490816,0,-6,-41,6,-3,-1,0,-4
30193499044,-19,-32,-11,-28,-14,-6,-3,-4
30193499044,28,8,30,12,6,3,0,2
30193514042,-12,-17,-22,-8,-5,0,4,4
30193514042,2,11,28,8,5,0,-3,-6
30193514707,-2,-22,-28,-8,-6,-8,-7,1
30193514707,7,18,-42,-12,-5,0,-3,-3
30193536557,5,-5,-29,-18,-14,-14,-15,-10
30193536557,-3,-15,-34,1,-3,-3,-8,-1
30193537241,-22,8,29,21,10,2,7,-1
30193537241,-2,-1,-3,11,8,5,12,9
30193550882,-17,-8,-13,-2,0,0,-1,-4
30193550882,-16,-14,19,-9,-5,3,11,4
30193559091,-6,-24,-15,2,-3,-3,-3,-6
30193559091,-42,-48,-74,-22,-9,-10,-11,-12
30193573986,9,37,79,13,5,1,1,3
30193573986,-9,6,-11,-18,-10,-12,-19,-36
30193574747,8,-6,34,7,5,3,11,28
30193574747,3,-12,3,-1,-1,1,2,-2
30193596413,8,-6,-3,8,6,2,0,3
30193596413,12,14,25,-8,0,2,2,3
30193597181,6,2,-28,2,2,0,-2,-9
30193597181,12,20,23,6,1,7,5,4
30193611008,-4,-4,-16,-20,-20,-20,-6,-2
30193611008,6,-4,-32,7,4,-1,-6,-9
30193619015,-10,13,9,0,0,3,0,-7
30193619015,11,-17,-19,-4,-2,3,10,18
30193633953,7,-2,18,0,4,5,2,0
30193633953,2,7,-27,2,-3,-4,-2,2
30193634724,-13,-22,-17,-4,-2,-5,-7,-12
30193634724,-6,-3,-2,-12,-4,-2,-3,-4
30193656534,10,20,-39,5,4,7,3,5
30193656534,-15,-42,-55,-12,-16,-8,-2,3
30193657214,-6,9,16,4,13,4,-1,-1
30193657214,6,29,56,13,3,3,-4,-5
30193670817,-54,-45,-30,-15,-11,-11,-9,-14
30193670817,3,4,19,10,2,-2,-3,-5
30193679045,39,67,58,-1,-10,-2,3,18
30193679045,-19,-38,-5,0,-2,-7,-11,-11
30193694049,9,54,47,-4,3,3,1,-4
30193694049,-22,-36,15,1,2,2,4,-2
30193694724,9,-13,-17,12,5,4,0,6
30193694724,-38,-45,-52,-16,-10,-13,-10,-13
30193716621,19,15,41,4,-3,2,4,11
30193716621,22,17,50,8,3,-2,-4,1
30193717205,-31,-34,-24,-4,3,1,-3,-9
30193717205,0,-1,39,8,3,6,5,5
30193739723,-9,-49,-82,-12,-5,-3,-1,-9
30193739723,24,51,25,16,12,15,19,22
30193740422,2,-21,-29,-1,1,3,-2,-13
30193740422,12,37,21,-14,-17,-19,-14,2
30193754024,-14,-26,-25,-7,-4,-4,-9,-15
30193754024,-5,-9,-74,-9,2,8,6,5
30193754694,15,22,30,10,3,2,3,3
30193754694,24,20,-12,2,9,11,10,11
30193776511,16,12,18,6,3,6,4,7
30193776511,-4,4,-44,-2,0,5,3,-1
30193777175,-24,-23,56,-2,-8,-11,-6,1
30193777175,-9,-12,-54,-1,4,2,1,-8
30193799706,22,21,30,2,4,10,5,21
30193799706,-10,-17,49,4,2,1,-10,-20
30193800384,6,3,-33,-9,-8,-6,-1,6
30193800384,-14,-10,7,0,-6,-6,1,-3
30193814015,2,25,26,8,8,6,3,3
30193814015,-7,-26,12,4,3,-1,-3,-4
30193814714,9,-4,-19,0,3,4,3,-2
30193814714,0,1,30,-8,-3,3,3,2
30193836519,-11,-34,-37,-10,-8,-10,-8,-12
30193836519,-4,19,46,-5,-7,-12,-7,0
30193837217,-1,-5,-19,0,-5,-10,-12,-9
30193837217,28,16,7,-4,-5,-7,-5,-3
30193859758,-17,-17,6,1,1,7,7,-4
30193859758,7,6,-8,-10,-4,-5,-4,4
30193860423,8,4,-8,11,10,13,13,16
30193860423,11,6,9,-22,-14,-14,-14,-8
30193874072,-30,-31,-29,4,0,-9,-11,-12
30193874072,-6,10,-5,-15,-13,-13,-6,-5
30193874690,1,12,-6,-1,0,4,3,-8
30193874690,5,12,32,15,9,7,10,8
30193896498,-9,2,-32,-6,-11,-21,-24,-14
30193896498,-3,-65,8,4,4,8,8,9
30193897177,4,27,10,-5,-2,-4,-3,-2
30193897177,-7,29,42,6,-2,-9,-10,-11
30193919813,6,3,-27,-7,-4,5,9,2
30193919813,3,10,9,0,0,4,4,2
30193920372,-3,-2,-7,-14,-9,-6,-6,-2
30193920372,-15,-35,-62,-1,-3,-2,-5,-5
30193934038,7,-5,25,10,1,-2,3,6
30193934038,16,11,-30,3,4,3,7,7
30193934725,-14,-23,-47,0,4,1,-2,-10
30193934725,-6,23,20,-5,-8,-8,-4,7
30193957819,11,-15,-14,1,0,0,-1,0
30193957819,2,11,10,6,-1,4,5,0
30193958621,-23,-22,-14,-1,-5,-5,-6,-18
30193958621,12,-11,-6,5,7,8,4,18
30193979715,-6,13,29,7,3,1,2,0
30193979715,-13,-14,2,-4,-2,-4,-5,-3
30193980356,9,15,22,-9,-6,-2,-4,-6
30193980356,-5,0,-10,6,4,5,3,-6
30193994016,7,-8,-18,-16,-5,2,7,7
30193994016,-4,-5,-32,-11,-10,-17,-11,-3
30193994707,-10,8,11,6,3,1,-3,-5
30193994707,10,-29,-21,-3,1,7,6,4
30194016590,4,12,11,4,4,4,4,0
30194016590,-21,-16,-5,-6,-5,-6,-5,-7
30194017176,-2,15,56,7,3,1,1,4
30194017176,3,4,-2,3,-1,3,8,2
30194039821,-14,-21,-5,5,-3,-6,-7,-7
30194039821,-12,15,8,-5,-2,2,-1,1
30194040372,-1,-21,-15,-5,-4,-3,-2,3
30194040372,-6,8,-1,-1,1,5,3,-3
30194054048,-1,20,43,-3,-2,3,1,1
30194054048,-8,11,-21,-16,-16,-24,-24,-18
30194054716,-2,-33,-33,-2,0,1,4,5
30194054716,-26,-19,-21,-4,-5,-10,-13,-20
30194076548,8,41,28,4,-2,-2,2,1
30194076548,13,-7,-8,10,11,13,12,15
30194077216,18,3,-46,7,3,3,8,10
30194077216,-3,11,39,0,-7,-11,-12,-14
30194099566,8,5,-4,4,6,5,2,3
30194099566,-11,-18,-31,-7,-5,-9,-11,-9
30194100336,-5,-21,4,-7,-5,-9,-6,0
30194100336,-5,-22,-28,-6,-2,1,2,3
30194114009,6,12,18,13,8,9,5,6
30194114009,6,21,18,-8,-6,-5,-2,0
30194114688,18,12,-34,-5,-2,2,-1,-8
30194114688,-2,-5,9,-11,-5,-4,1,7
30194136435,0,-10,-31,-2,1,0,0,1
30194136435,14,-12,-2,7,6,7,3,4
30194137177,-9,7,8,1,-1,-1,-2,-5
30194137177,-11,-16,-9,-3,-1,-2,-6,-5
30194159718,3,-5,-8,-7,-8,-3,1,-2
30194159718,17,2,-26,6,5,3,5,3
30194160400,-6,-7,2,-9,-6,-2,-3,3
30194160400,2,20,38,7,1,-1,-1,-1
30194174012,-5,-3,-30,-2,-1,-3,-2,0
30194174012,-11,-19,20,-3,0,-1,1,-5
30194174673,1,4,16,-1,0,2,3,4
30194174673,1,-22,-4,9,7,7,6,3
30194196544,-5,-20,-50,7,5,-1,-7,-8
30194196544,16,62,38,-10,-9,1,1,4
30194197220,-2,6,20,7,6,1,-1,-8
30194197220,21,26,28,9,9,20,22,25
30194219839,-2,-15,-33,-11,-9,-8,-7,-7
30194219839,-5,-13,5,12,6,6,8,0
30194220368,-8,-14,-16,-7,-6,-5,-3,9
30194220368,19,21,-24,-2,-1,-2,-1,2
30194233966,-28,-12,8,-6,-4,-3,-4,-9
30194233966,-2,2,-8,0,3,3,3,0
30194234763,1,31,10,-2,-7,-2,0,-5
30194234763,-16,-7,20,22,8,-3,-8,-8
30194256517,9,23,52,-26,-15,-5,0,5
30194256517,9,15,12,3,1,3,2,4
30194257211,-10,-25,-5,-1,0,-1,-4,-1
30194257211,6,4,-1,-1,-4,-8,-10,-7
30194279715,5,-15,-63,-8,-6,-7,-6,-5
30194279715,-3,22,52,5,2,-1,-3,-3
30194280417,-7,-5,6,-1,2,-3,-3,-3
30194280417,6,-6,-28,-13,-4,-2,1,-1
30194293348,-5,-13,55,15,5,1,1,-2
30194293348,-1,-26,-37,-10,-7,-2,-4,0
30194301474,15,5,-19,1,1,4,6,9
30194301474,-1,4,3,-2,-6,-8,-7,-8
30194317206,-2,6,16,5,0,-3,-2,-4
30194317206,0,10,-3,2,1,2,0,2
30194317919,-6,-9,5,-9,-13,-18,-14,-13
30194317919,-3,3,-31,-7,-1,2,6,0
30194339671,5,21,39,1,-1,2,2,3
30194339671,-9,-2,-10,-1,-5,-7,-5,-8
30194340364,4,-10,-8,-4,-7,-7,-8,-6
30194340364,-33,-41,27,-10,-6,-4,-6,-8
30194353224,-15,-7,-51,-2,-2,-1,-3,-9
30194353224,4,-8,-6,9,8,6,7,7
30194361588,22,16,4,-4,1,0,-1,3
30194361588,-25,-20,-6,-4,-2,-4,-6,-7
30194377240,-4,-26,21,10,11,6,4,0
30194377240,-4,-3,-5,-12,-7,0,-1,-3
30194377916,10,39,32,5,1,5,6,8
30194377916,4,19,3,11,0,0,-5,-2
30194399791,6,-30,-21,-12,-5,-4,3,8
30194399791,-5,15,9,6,2,0,-1,-3
30194400364,-21,-8,-26,-15,-11,-9,-8,-7
30194400364,5,16,-5,-6,-2,2,3,3
30194413402,1,6,17,11,6,10,6,1
30194413402,-9,-17,-16,-16,-14,-17,-7,-5
30194421622,10,-2,10,9,11,13,9,11
30194421622,-6,-1,5,-4,-4,-5,-8,-10
30194437227,5,-6,-8,-1,1,-1,-2,1
30194437227,18,8,6,1,1,5,4,5
30194437912,-31,-25,2,-3,0,-1,-2,-9
30194437912,11,10,-12,-3,-2,-2,-3,6
30194459590,-7,-22,-4,-7,-4,-5,-4,-3
30194459590,-1,25,20,10,4,-2,-6,-10
30194460398,5,-13,22,-4,-3,1,1,6
30194460398,15,-20,-45,1,2,2,0,5
30194473272,-9,15,18,8,3,-4,-11,-11
30194473272,-3,-8,1,-11,-4,0,1,3
30194481390,9,17,5,-1,1,2,1,-5
30194481390,7,17,22,-4,1,5,10,11
30194497083,-3,-3,-21,1,5,6,3,4
30194497083,-22,-18,-4,10,5,0,-1,-6
30194497903,5,4,2,6,2,-2,-1,-4
30194497903,-7,-8,-27,-3,-1,2,5,-3
30194519801,7,18,19,-1,-5,-2,-1,3
30194519801,-7,-9,-5,-3,-2,0,-6,-2
30194520393,2,-11,13,0,-1,2,4,4
30194520393,-11,-12,16,18,10,-2,-7,-10
30194533378,12,6,-17,-18,-7,-4,-4,1
30194533378,-20,-16,-17,0,1,2,9,-1
30194541515,-7,15,18,17,4,3,3,0
30194541515,-9,-13,-6,5,-12,-16,-17,-21
30194557196,10,14,0,-2,14,16,13,18
30194557196,4,-8,-12,-27,-16,-7,5,15
30194557917,0,-31,-32,24,9,3,1,-2
30194557917,6,25,15,-19,1,6,12,11
30194579730,-11,-21,-31,8,-9,-23,-22,-18
30194579730,10,15,-2,17,14,14,17,2
30194580487,-3,0,-9,-43,-27,-17,-11,-2
30194580487,-5,-17,-10,17,4,-1,1,10
30194593231,12,19,-3,1,-6,-5,-4,-12
30194593231,26,34,28,2,-1,3,2,17
30194601394,3,7,-3,-29,-13,0,1,-2
30194601394,8,30,10,25,8,14,14,4
30194617219,-20,-16,-31,-52,-24,-24,-21,-18
30194617219,-7,6,14,33,7,-10,-22,-18
30194617922,-12,-13,-13,-6,6,7,9,-12
30194617922,-2,-15,14,-20,-8,-9,3,17
30194639760,3,16,14,25,9,8,9,4
30194639760,-6,-2,-15,-8,-9,-8,-15,-22
30194640358,0,-2,-26,-9,-3,-8,-10,5
30194640358,13,-26,-14,5,4,0,-7,-5
30194653372,-13,-11,26,0,-13,-8,1,0
30194653372,13,7,-11,-3,4,-1,0,12
30194662255,-25,-24,0,-6,0,6,3,-2
30194662255,-3,20,28,7,-2,3,5,-4
30194675892,-14,-32,-13,-8,-6,-20,-22,-14
30194675892,-6,-13,-42,-1,2,9,6,1
30194684732,14,3,-11,21,8,8,6,6
30194684732,-6,8,-15,-26,-16,-19,-19,-12
30194699712,1,-3,14,0,6,13,9,1
30194699712,7,8,17,-7,0,-1,-12,-12
30194701213,-13,-24,-18,5,1,-4,-4,0
30194701213,-26,-23,-19,-13,-9,-20,-16,-12
30194722171,8,9,6,9,4,11,12,12
30194722171,4,2,8,2,-3,-7,-2,-1
30194723730,-4,-3,-13,2,4,0,-1,0
30194723730,1,-7,-7,-13,-7,4,0,-2
30194736519,5,-1,-9,0,-1,-2,-4,-3
30194736519,-19,6,5,-8,-6,-4,-3,-3
30194743363,-4,-16,-3,9,5,1,0,-9
30194743363,2,15,17,6,6,6,4,10
30194759778,6,5,-10,0,3,3,2,0
30194759778,6,-27,-1,-2,-3,4,5,0
30194761215,18,25,3,-7,-11,-14,-12,-2
30194761215,-19,-18,-23,-5,0,0,-6,-13
30194782203,5,34,21,8,6,8,8,4
30194782203,0,-27,-5,-5,-8,-11,-7,1
30194783687,2,10,1,2,-2,0,-1,-2
30194783687,1,1,3,16,7,5,6,1
30194796520,4,-2,-3,-23,-13,-7,-8,-4
30194796520,4,-5,12,6,4,5,6,-4
30194803319,3,18,15,1,-1,-6,-4,2
30194803319,-17,-8,-32,5,4,3,-3,-8
30194819667,-9,-9,34,7,9,8,7,4
30194819667,5,-13,11,18,4,4,1,-1
30194821180,6,26,-8,-34,-21,-8,-7,5
30194821180,13,13,24,9,7,8,2,1
30194842214,-3,-14,-9,-2,-6,-5,-4,-2
30194842214,-3,8,-26,-6,2,-7,-2,-1
30194843707,-9,10,24,28,13,10,5,-10
30194843707,10,11,5,-30,-13,-8,-6,4
30194856516,0,10,2,4,-1,6,6,14
30194856516,-38,-22,-21,-15,-8,-12,-12,-17
30194863338,-1,-2,-11,13,10,7,13,20
30194863338,-1,-2,-3,15,10,2,-6,-12
30194879797,-7,-3,8,-31,-20,-2,1,-2
30194879797,3,21,43,5,1,3,1,-11
30194881182,8,0,-11,-8,-5,0,6,17
30194881182,-8,-36,-11,8,2,4,5,1
30194902151,2,-2,-10,0,1,-2,1,6
30194902151,11,30,14,9,7,8,8,6
30194903701,-9,-2,12,7,-3,-1,-7,-29
30194903701,22,-12,24,-7,-8,-10,-10,16
30194916515,3,3,-24,5,6,7,8,-5
30194916515,18,1,26,3,-1,-2,-11,-7
30194923343,-12,-4,-4,-6,-1,2,-2,2
30194923343,10,12,-4,-2,-2,-1,4,3
30194939695,1,0,-14,4,3,-7,-9,-6
30194939695,-3,-6,-8,8,3,5,6,4
30194941208,6,-16,-33,-14,-9,-7,3,2
30194941208,11,20,14,-4,0,1,1,12
30194962184,-28,-33,-37,-15,-11,-14,-11,-13
30194962184,11,11,22,18,8,6,1,8
30194963650,4,-4,-5,-11,-4,-8,9,6
30194963650,-2,-6,-12,4,3,7,20,8
30194976603,17,11,-14,15,10,3,5,12
30194976603,1,5,-11,-14,-9,1,5,10
30194983343,-29,-35,1,11,8,2,-10,-18
30194983343,6,18,1,-4,1,-1,-6,-14
30194999712,-15,-9,23,7,0,-4,-6,1
30194999712,-11,14,0,-14,-11,-11,-11,-17
30195001214,1,-2,7,-2,-8,-7,-4,-10
30195001214,-4,-3,-7,-6,-1,-1,-6,8
30195022179,10,-15,-4,20,9,3,3,8
30195022179,-2,-27,-37,-41,-17,-11,-4,10
30195023679,-5,6,10,9,3,0,4,4
30195023679,-8,-10,0,-2,-2,-1,-3,-10
30195036523,-4,0,0,-7,-6,-4,-8,-13
30195036523,2,-14,-11,12,4,1,3,0
30195043371,5,6,1,-6,-3,-1,-6,2
30195043371,-10,-11,-28,-11,-7,-2,-3,-11
30195059710,0,27,38,17,5,4,1,-6
30195059710,-6,-15,-6,3,3,-2,-4,-6
30195061221,5,8,16,2,1,2,-5,-1
30195061221,-6,-1,-13,-2,-5,-7,-11,-15
30195082222,-13,-8,-15,-5,-1,-2,-2,-23
30195082222,4,0,-10,-8,-5,-1,4,13
30195083724,0,1,18,-5,-5,-6,-9,2
30195083724,0,-1,16,-4,-7,-10,-1,-4
30195096433,13,8,5,0,1,3,4,22
30195096433,9,17,24,1,1,-1,2,1
30195103290,-13,-14,-17,4,4,4,-2,-5
30195103290,0,15,16,3,-2,1,3,2
30195119772,4,5,1,2,3,5,-1,-6
30195119772,-6,2,-8,-1,-2,-4,0,4
30195121173,2,-6,4,-2,-1,-3,-6,-2
30195121173,-1,-20,-36,0,-1,1,-2,-3
30195142241,0,19,25,7,4,0,1,6
30195142241,-6,-3,-10,-13,-8,-5,-2,-9
30195143698,0,-17,3,13,7,-1,1,-10
30195143698,-4,-8,-12,-8,-3,3,3,9
30195156546,5,6,0,-11,-10,-7,0,7
30195156546,-3,-11,-15,7,6,4,-1,-2
30195163194,4,13,14,0,-2,2,1,-1
30195163194,-3,-20,-33,-1,1,1,1,2
30195179668,-2,-10,3,-1,-1,1,-4,-9
30195179668,-4,-5,5,4,1,4,0,2
30195181185,8,9,-4,1,1,2,5,9
30195181185,-2,-1,2,1,1,0,-2,-5
30195202122,-1,1,-3,-3,-1,1,-1,2
30195202122,-4,-5,-5,-3,0,-1,-5,-3
30195203707,3,12,9,1,-2,-2,0,1
30195203707,0,21,32,2,-4,-2,0,-1
30195215801,-2,4,-8,-5,-4,-5,-3,-3
30195215801,-2,2,21,2,1,1,1,3
30195224736,6,2,-18,-4,0,-1,-2,0
30195224736,-4,-6,-1,2,1,0,0,-3
30195239694,-3,7,19,-1,-6,-4,-3,-2
30195239694,-1,-11,-17,1,0,0,0,0
30195241207,2,0,-11,3,8,5,2,3
30195241207,1,6,5,-5,-3,-5,-3,-3
30195263539,-3,-15,-24,-7,-6,-2,1,-1
30195263539,1,7,-3,-5,-7,-6,-1,-2
30195265153,-1,-8,-11,5,3,3,0,1
30195265153,-1,11,28,7,4,3,0,0
30195275756,0,-11,-41,-8,-3,-2,-1,-2
30195275756,0,9,-9,-3,-1,3,1,1
30195284740,-6,-17,5,0,-1,-1,-1,0
30195284740,-1,-3,1,-3,-2,-2,-3,-3
30195299719,0,6,26,-4,-8,-6,-2,-1
30195299719,-3,-6,22,13,15,4,1,-1
30195301205,0,9,-34,-11,-4,2,-1,1
30195301205,-2,-1,9,6,-2,-2,-1,-2
30195322612,-4,-11,3,2,0,0,-1,0
30195322612,0,3,-13,-16,-8,-4,-1,0
30195328325,-1,-3,5,2,-2,-1,-1,-1
30195328325,-1,1,25,16,1,-4,-3,-2
30195335836,1,3,-11,-5,3,2,1,1
30195335836,-1,-2,11,11,5,1,1,1
30195344717,-5,-11,-42,-15,-8,-4,-2,-2
30195344717,-4,-16,-46,-8,-5,-2,-3,-3
30195360140,2,3,29,10,3,1,-2,0
30195360140,0,13,25,1,-6,-1,0,-1
30195361578,-4,-12,-35,-33,-12,-7,-4,-3
30195361578,0,-5,-18,-4,2,1,-1,0
30195382240,0,0,37,16,11,5,1,0
30195382240,-1,-5,-13,5,2,2,1,1
30195383712,4,12,28,10,-2,-1,0,1
30195383712,0,-2,-11,-7,-3,0,-2,-1
30195395824,-3,-9,-9,-8,-2,1,-2,-3
30195395824,1,-6,-12,-1,-4,-1,-4,-2
30195404737,-1,6,10,4,0,-3,-1,-1
30195404737,1,8,2,-1,3,2,1,1
30195419666,-5,-5,7,6,-6,-4,0,-4
30195419666,-2,-10,-11,-8,-7,-4,-3,-2
30195421207,1,2,16,11,7,4,1,0
30195421207,0,-1,-15,-8,0,1,1,0
30195442138,-2,0,17,7,-2,-2,-2,1
30195442138,-5,-18,-50,-19,-4,-1,-1,-1
30195443657,1,-2,-5,5,-4,-3,-3,-1
30195443657,-2,14,41,4,3,2,0,0
30195455856,4,12,-1,5,5,2,2,1
30195455856,-3,-9,3,6,-1,-2,-1,-3
30195464734,1,2,7,-5,-3,-2,-2,-1
30195464734,-2,-9,-18,-7,-1,1,1,-2
30195479694,1,-3,-2,1,0,-1,-2,0
30195479694,-3,4,-20,-14,-4,-2,-2,-2
30195481207,2,10,10,9,1,-1,1,0
30195481207,-1,0,5,-5,-7,-7,-3,-2
30195502165,-1,-7,-8,0,3,0,0,1
30195502165,-1,-9,-10,4,7,3,1,-1
30195503684,-1,6,42,2,-2,0,0,-2
30195503684,-1,-2,-4,-2,-4,-2,0,-1
30195515811,1,1,-9,-6,-4,-1,-1,0
30195515811,-2,0,7,-3,-3,-7,-3,-1
30195524691,-1,0,5,0,-3,-2,0,0
30195524691,0,-3,-10,-1,2,2,1,0
30195539062,-4,3,25,-4,-1,-3,-1,-6
30195539062,0,0,5,9,1,-2,0,0
30195545955,-1,4,1,-6,-2,0,-3,-1
30195545955,0,-1,14,2,-5,-2,-3,-1
30195562252,-4,-6,-41,-17,-6,-2,-2,-1
30195562252,-1,0,1,-4,-1,0,1,-1
30195563711,-1,-4,-12,3,1,1,1,-1
30195563711,1,9,8,3,4,2,0,1
30195575841,-4,-8,-12,1,2,4,0,0
30195575841,0,1,-7,-8,-4,-2,-2,-1
30195584734,-2,-5,21,8,-1,-2,0,-2
30195584734,-2,0,-12,-5,-2,-3,-1,-1
30195599044,2,5,-2,-6,-2,1,0,1
30195599044,-1,-3,-3,4,-1,-1,-1,0
30195605818,-1,-3,-14,-13,-2,-2,-4,0
30195605818,0,-4,1,3,1,-2,-3,-3
30195622205,-2,-5,-2,-1,-1,-2,0,-3
30195622205,4,10,25,8,1,0,-1,-1
30195623686,0,0,-12,-8,1,2,2,1
30195623686,2,7,9,9,0,-2,0,0
30195644709,-3,-8,-31,-6,-2,-2,-2,0
30195644709,-3,-12,-18,-5,0,2,0,-1
30195646207,3,20,15,4,0,-2,-1,-1
30195646207,-5,-20,-7,-1,1,0,1,-3
30195659095,6,8,8,8,4,0,1,0
30195659095,-2,0,-6,-12,-4,-2,-2,-1
30195665748,5,5,14,12,4,3,0,2
30195665748,-10,-18,-25,-15,-11,-7,-6,-6
30195682232,-1,6,8,0,3,0,-2,-2
30195682232,-3,-10,7,-1,-5,-3,0,-1
30195683675,-1,-1,-12,-1,2,0,0,1
30195683675,1,4,19,7,-1,0,0,2
30195704666,-3,-5,-5,0,-4,-1,-2,1
30195704666,0,4,14,0,-2,-1,-2,0
30195706204,0,-4,-28,-8,-6,-3,-2,-2
30195706204,1,6,11,5,1,0,-1,-1
30195719017,-4,-6,-6,-5,-3,-2,-1,-3
30195719017,0,-2,12,8,3,1,2,2
30195725853,-4,1,-2,-7,-1,-1,-2,-3
30195725853,1,4,7,-8,-5,-3,-2,1
30195742201,1,-3,-12,4,6,6,3,-1
30195742201,-3,1,8,0,-2,-2,0,-3
30195743727,-3,-11,3,-4,-1,-1,-1,-1
30195743727,-1,1,6,5,0,0,-2,-3
30195764644,-1,6,0,-3,-4,-1,-1,0
30195764644,-2,-9,-6,-2,-1,0,-1,-1
30195766175,0,-3,1,3,1,1,0,1
30195766175,1,-1,-14,-11,-1,1,0,1
30195779088,-5,-1,2,6,2,-1,-1,-2
30195779088,1,0,-14,-2,-2,-2,-2,-1
30195785798,0,4,17,4,-5,-2,-2,-1
30195785798,-1,-5,-2,-4,0,-1,1,0
30195802056,0,-2,-1,-3,-4,-4,-3,-1
30195802056,0,8,-2,2,-1,-1,0,-2
30195803655,-2,1,0,-8,0,1,2,-1
30195803655,-2,-1,-11,4,3,-1,0,-1
30195824723,0,3,11,-1,-1,-3,-1,0
30195824723,-1,-3,0,1,0,-1,-1,0
30195826179,-1,-7,-14,-1,-3,-4,-2,-4
30195826179,-2,1,1,-5,-3,-2,-2,0
30195839045,-2,-7,-12,-3,-1,-1,0,-2
30195839045,1,2,0,-7,-1,-1,-2,1
30195845820,-3,-5,-6,1,-3,-3,-1,-3
30195845820,0,4,3,0,2,2,2,-2
30195862160,-1,-1,1,-2,-3,-3,-1,0
30195862160,1,3,3,4,3,1,-1,0
30195863665,-2,-2,0,0,-4,-3,0,-2
30195863665,1,-3,0,4,-1,-2,0,-2
30195884674,-1,3,28,2,1,0,-1,0
30195884674,0,-2,-10,-8,-4,-1,-2,-2
30195886203,-3,-6,-5,2,3,1,0,1
30195886203,-3,-3,0,-2,2,2,1,3
30195898314,3,1,-23,-12,-8,-2,-3,-2
30195898314,-2,2,17,7,-2,-5,-1,-4
30195907199,1,12,2,5,4,1,0,0
30195907199,-1,-6,6,1,-3,-2,-2,-2
30195922169,-2,-4,-9,1,3,0,-1,1
30195922169,-4,-6,-9,-14,-6,-3,-3,-1
30195923688,-3,-10,-19,-6,-2,-1,-3,-4
30195923688,2,8,10,3,-3,0,-1,-1
30195944641,0,4,-2,-7,-2,-1,-1,-3
30195944641,1,-3,-4,3,-1,0,0,1
30195946153,-1,-5,5,1,0,-1,-1,0
30195946153,1,0,-7,-4,3,0,0,1
30195958360,0,-3,1,2,0,0,-1,0
30195958360,-2,1,9,-1,0,0,-2,1
30195967236,0,-4,-2,6,-3,-1,0,0
30195967236,-3,-5,-8,1,-4,-2,-1,0
30195982195,4,7,-2,-3,0,0,0,1
30195982195,-3,-5,11,9,5,2,2,0
30195983690,-1,6,14,0,0,-2,0,-1
30195983690,-2,-3,-33,-8,-1,1,0,-1
30196004583,-2,-3,-8,5,-1,0,2,2
30196004583,4,2,-7,-6,1,1,2,0
30196006124,0,0,15,0,-3,-1,-1,-1
30196006124,-3,-3,-12,-4,-1,-2,-3,-1
30196018280,-4,-5,3,-3,-2,-4,-2,0
30196018280,0,3,-3,3,0,-3,-4,-2
30196027188,1,-5,-9,-10,-3,-1,-1,1
30196027188,0,6,9,-3,-2,-2,-1,0
30196042207,-1,-1,17,6,1,1,0,-2
30196042207,-2,-2,3,2,-3,-1,-1,-2
30196043704,-4,-7,-14,2,3,3,1,0
30196043704,-3,-6,-2,-9,-4,-1,-1,-2
30196064530,2,1,-1,0,-5,-3,-1,-2
30196064530,-5,-8,11,7,4,2,0,-2
30196066216,2,3,-18,-9,-2,-1,-1,1
30196066216,1,3,7,0,-1,-1,-3,-1
30196078393,-2,-1,-1,0,-4,-2,-1,-2
30196078393,-2,2,-3,-2,0,0,0,-2
30196087181,0,-1,8,0,0,-2,0,-3
30196087181,-1,-8,-22,-7,0,-2,2,5
30196102059,-3,-3,-1,-3,-5,-3,0,-2
30196102059,0,-2,-9,-7,-5,-2,1,1
30196103662,-2,-4,-25,-18,-1,1,-1,-3
30196103662,0,1,26,22,0,-3,-2,-5
30196124562,-2,0,3,6,4,-3,-3,-2
30196124562,0,2,-1,2,-1,0,0,-1
30196126213,-2,-3,-12,-1,1,0,-1,-1
30196126213,-3,-8,-1,-16,-4,-1,0,-2
30196138370,1,1,-28,-14,-5,-3,-4,-1
30196138370,-5,-2,10,9,1,-3,-1,0
30196147209,0,0,1,0,-2,-2,-2,-1
30196147209,2,3,6,5,1,0,-1,-1
30196162158,-1,-4,4,-2,1,0,1,-1
30196162158,-2,1,3,2,1,2,-1,0
30196163638,-1,-2,-2,-4,-3,-2,0,0
30196163638,-1,-6,-20,-5,0,0,-3,-2
30196184688,-2,-7,-1,1,5,3,0,-3
30196184688,1,2,-4,-8,-2,-2,0,0
30196186227,-4,-2,20,13,-1,1,-1,0
30196186227,-1,5,12,4,0,1,-1,-2
30196198366,-1,-5,-20,-21,-5,-2,-2,0
30196198366,-5,-10,10,24,-2,-2,-3,-4
30196214685,2,-3,15,-1,0,-1,-1,3
30196214685,-1,1,-13,0,0,0,0,-2
30196222170,1,2,11,-3,-1,0,-3,0
30196222170,-2,1,-5,-12,-5,-3,-1,-1
30196223834,-2,3,7,2,0,0,-2,-2
30196223834,4,-3,-13,-3,2,2,0,2
30196244795,2,4,10,5,0,-2,-1,0
30196244795,-6,-10,-12,-6,-2,-1,-1,-4
30196246306,-3,-9,2,3,-3,-4,-4,0
30196246306,7,5,-12,-5,-4,-2,2,1
30196258292,-1,1,-10,-1,2,1,1,-1
30196258292,2,-7,-25,-9,-2,-1,-2,0
30196267232,-1,10,16,2,1,0,1,0
30196267232,-4,8,6,-2,-2,-2,-1,-2
30196282187,0,0,9,4,-1,-3,-1,0
30196282187,-1,-3,-6,-2,3,0,-1,-1
30196283687,-3,-3,-8,-1,1,0,-1,-3
30196283687,-1,-1,3,3,-1,0,0,1
30196304537,-2,-7,0,-2,-2,-2,0,-3
30196304537,0,6,-5,-7,-4,-1,-1,-2
30196306148,0,0,7,0,-3,-3,-1,0
30196306148,0,-4,-10,3,3,0,-2,1
30196318289,-9,-1,2,-7,-4,-1,0,-8
30196318289,4,4,5,-2,-2,-3,-3,1
30196327183,2,1,-8,-4,0,-2,-1,-2
30196327183,-2,2,-1,-4,-2,-2,-2,-2
30196342112,-4,-15,3,20,3,0,1,2
30196342112,2,9,-1,-7,1,1,1,1
30196343574,-2,-3,-12,-5,-5,-2,0,1
30196343574,-1,-5,22,5,3,-1,-1,-3
30196364708,2,10,4,-2,0,-1,-2,2
30196364708,-2,-6,-15,-5,-1,-1,0,1
30196366174,3,-1,-3,0,-2,-2,-3,-1
30196366174,-5,2,16,-1,-2,-1,-2,-4
30196378348,0,-1,-12,-1,-4,-2,-1,2
30196378348,1,5,0,0,0,1,3,3
30196387180,0,-1,2,1,2,2,0,-2
30196387180,-3,-4,-4,-5,-2,-1,-2,-3
30196402028,2,0,4,-1,-1,-1,-1,0
30196402028,-1,2,2,-3,0,1,-1,0
30196403607,-4,-6,-13,3,-3,-2,-3,-2
30196403607,1,13,23,5,-1,-1,-1,-1
30196424744,-4,-13,-36,-17,-6,-3,-2,-1
30196424744,-2,-6,-5,-5,-3,-2,0,-2
30196426166,-1,-1,13,2,1,1,1,0
30196426166,-2,-8,-11,0,1,0,3,3
30196438293,-5,1,4,-4,2,0,-1,-4
30196438293,-1,2,9,5,-1,-3,-3,-3
30196447247,-8,-15,-10,-3,1,2,-2,-6
30196447247,4,7,10,0,-4,-2,-4,1
30196462175,2,7,19,2,0,-1,-4,0
30196462175,1,-3,-1,4,2,0,3,-3
30196463664,3,6,0,-6,-6,-4,-1,2
30196463664,-5,-15,-15,-2,-1,-2,-1,-2
30196484692,0,-1,-22,-3,-2,1,1,1
30196484692,-3,-3,12,1,-2,-2,-5,0
30196486205,6,11,3,5,3,1,0,-3
30196486205,-4,-6,-15,0,3,0,0,-2
30196498177,-2,-6,-8,-1,-1,-1,-2,0
30196498177,1,1,3,-1,-2,-2,1,0
30196507202,-3,-1,-5,-9,-4,-3,-1,1
30196507202,-1,2,16,4,0,-2,0,-3
30196521922,-1,7,7,6,-1,1,1,-1
30196521922,-1,0,3,-5,-1,0,0,-3
30196528266,-4,-1,-14,-5,-3,-5,-4,-3
30196528266,-2,-2,-4,0,-3,-2,-1,-1
30196544555,-2,-4,10,-4,-4,-3,-2,-1
30196544555,0,1,6,-3,0,-2,-1,3
30196546197,1,9,17,7,1,0,-3,-1
30196546197,0,0,-18,-10,-5,-2,-3,-2
30196567138,-5,-7,-14,1,1,0,1,-3
30196567138,5,-1,2,8,-3,-3,-3,3
30196568584,1,-1,-27,-11,0,2,6,2
30196568584,-3,0,20,-3,-5,-5,-2,-2
30196582193,4,8,8,1,0,0,0,2
30196582193,-8,-17,-22,-5,0,1,0,-4
30196583684,-8,-4,9,3,2,1,0,-6
30196583684,-3,-9,6,3,-3,-2,-5,5
30196604531,1,4,11,-2,-3,-4,-2,-1
30196604531,-6,-9,3,8,3,3,3,1
30196606129,1,1,3,-7,-5,-2,-1,-3
30196606129,-5,-1,-8,-5,2,1,0,-4
