30017412337,-4,-4,-5,0,-1,-2,-10,-3
30017412337,-2,-1,-2,1,0,-2,-7,-5
30017413179,0,3,2,0,-1,-3,-7,2
30017413179,0,2,0,-3,1,1,0,0
30017413975,1,-5,-3,0,0,2,3,0
30017413975,3,7,11,0,-1,0,7,3
30017418275,-3,-13,-11,-3,-1,1,-5,0
30017418275,-1,7,-1,-1,0,-4,-5,-4
30017420707,2,2,-1,-1,0,1,0,1
30017420707,2,-1,2,-1,-1,-2,-7,-9
30017433244,-1,4,19,1,0,0,2,1
30017433244,3,-2,-18,-1,-1,0,-2,5
30017439039,0,-4,-16,-5,-3,-1,5,-8
30017439039,5,2,-6,-2,0,0,11,11
30017454702,0,1,-1,1,-1,-1,-3,0
30017454702,-5,-3,0,-3,-2,-2,-4,-1
30017462870,-8,0,15,1,0,-2,-5,-4
30017462870,0,-3,-6,0,1,-3,-12,-4
30017477693,-19,-8,-8,-4,-2,1,21,0
30017477693,2,0,7,1,0,1,-2,-3
30017485459,8,12,-6,-2,0,0,-3,-2
30017485459,-6,-13,0,0,2,1,-1,-2
30017498790,4,4,0,-2,-3,-6,-11,-4
30017498790,-1,-2,1,-3,-1,-2,-1,-1
30017540525,7,5,1,-3,0,-2,-2,5
30017540525,-5,-4,-15,-2,-1,-1,-2,-5
30017541328,-2,-2,-7,0,-2,-4,-3,-4
30017541328,-2,-2,1,2,0,-2,-3,11
30017544391,-2,0,3,0,-1,1,2,-13
30017544391,4,1,2,0,1,0,2,1
30017545140,-6,-6,-6,-1,0,0,-2,-3
30017545140,12,-1,-13,-2,0,-1,2,4
30017552026,-12,3,17,5,-1,-1,0,-1
30017552026,-3,-3,-14,-6,-3,-5,-7,-1
30017558880,-6,-8,-1,2,0,-1,-4,-5
30017558880,-2,-2,-1,0,0,-2,0,-4
30017566307,3,-8,-7,-1,-1,-2,0,0
30017566307,-1,-2,-2,-1,-1,-3,1,-2
30017581328,-1,8,-2,-2,-2,-3,-3,4
30017581328,-6,0,-1,-3,-2,-2,-5,-5
30017589469,1,-3,-4,0,-1,-2,-9,-2
30017589469,1,0,-1,0,2,7,18,7
30017612659,4,5,14,4,3,0,-3,8
30017612659,-2,5,10,3,2,3,4,-9
30017613310,6,1,-12,-3,-2,-1,4,0
30017613310,-2,3,7,2,-1,-2,-3,-6
30017626791,2,2,-3,-3,0,1,4,3
30017626791,-3,-4,-13,-1,0,0,-3,-4
30017627587,-1,3,17,0,-1,-1,-1,8
30017627587,11,2,-12,-7,-5,-3,-5,4
30017650125,6,-1,3,-1,-1,3,5,-2
30017650125,0,2,-1,-2,-1,-2,-5,1
30017650815,-2,0,-8,-1,1,0,-2,-2
30017650815,-8,0,3,0,2,-1,-4,-1
30017672722,3,3,2,-1,0,-2,8,-6
30017672722,6,-2,0,2,-1,-1,-1,5
30017673402,-9,-8,-20,-7,-3,-2,0,-3
30017673402,-1,3,13,0,-2,2,2,10
30017686997,0,-2,-7,-3,-2,-4,-11,-14
30017686997,-5,1,3,-2,-2,0,-1,-8
30017687640,-1,-12,-22,0,-1,0,-2,8
30017687640,6,6,22,2,0,0,-2,-1
30017710180,-4,2,-3,-4,-2,2,1,6
30017710180,1,5,3,-2,-2,-2,-1,-3
30017710975,-2,0,7,-2,-2,-3,-7,-5
30017710975,-5,-5,11,0,0,-2,-5,-4
30017732654,-1,-7,-18,0,-1,1,5,3
30017732654,-4,-1,3,-1,0,-3,-3,-1
30017733316,4,1,-1,0,0,0,3,2
30017733316,-4,-7,-9,0,-1,-1,-2,-4
30017747012,-2,4,7,-2,-3,-2,-1,-4
30017747012,-1,1,11,-1,-1,0,0,6
30017747635,-2,1,-9,-3,-2,0,-1,-2
30017747635,-2,0,-3,-1,-1,-2,-2,-5
30017770191,-2,7,2,-1,0,0,0,4
30017770191,-4,-11,-6,-2,-2,-2,-1,0
30017770920,-1,-3,6,0,0,1,1,-2
30017770920,0,0,0,-1,-2,-1,-6,-4
30017792778,-2,-2,-1,3,0,-2,-9,-2
30017792778,-3,-4,-2,-4,-3,-1,9,0
30017793322,-2,5,6,1,-1,-3,-4,-4
30017793322,1,-1,-6,3,0,1,10,2
30017807005,0,-1,4,-2,-1,0,2,1
30017807005,1,2,-2,-2,-2,0,-3,-1
30017807648,-1,-3,1,0,-2,-3,-4,-2
30017807648,-1,-1,-7,-4,-2,-5,-4,-2
30017830151,-2,-5,3,0,-1,-3,-2,-3
30017830151,1,1,-2,-1,1,-1,-1,-1
30017830816,-1,2,2,-1,1,-1,1,0
30017830816,5,-1,-1,2,0,-2,-5,-1
30017852663,-16,-4,3,-2,1,-1,-1,-7
30017852663,-3,-2,-8,0,1,0,-3,-1
30017853349,-1,2,-12,-7,-2,-2,2,-1
30017853349,-1,-5,12,2,0,-1,1,2
30017867046,4,-5,-1,0,-1,-2,-3,1
30017867046,-1,1,1,-2,-3,-1,-1,-1
30017867629,-4,-1,-2,1,0,1,0,-4
30017867629,-1,1,-6,-4,-1,-2,-2,-1
30017890250,2,-3,-7,-4,-2,0,-2,0
30017890250,-2,0,-3,-1,2,-1,-2,-1
30017890829,1,3,4,3,0,0,2,1
30017890829,-4,-2,-1,-3,-1,-1,-2,-2
30017912694,3,-1,2,0,0,0,1,0
30017912694,1,-3,-12,-4,-2,-2,0,-1
30017913341,0,2,9,1,0,0,0,1
30017913341,0,-1,-4,1,-1,0,-1,0
30017926271,-1,-1,0,-5,-2,-3,-1,0
30017926271,-2,-2,2,-1,-2,-1,-3,-2
30017935193,-1,-2,-3,-1,1,-1,-2,-1
30017935193,-3,-3,-8,-12,-6,-1,-2,-3
30017950119,4,1,3,10,0,-2,-1,-2
30017950119,2,3,-4,-6,-2,0,-1,-2
30017951585,-1,-10,1,-2,-1,-1,-1,-4
30017951585,-3,3,5,1,-1,-2,0,-3
30017972685,-3,-11,-13,4,-4,-3,-3,-1
30017972685,1,14,17,3,2,0,0,0
30017974180,-4,-5,-3,-2,-3,-4,-1,0
30017974180,0,0,-6,-2,-1,0,-3,-2
30017986304,-1,-1,-4,-8,1,1,2,-1
30017986304,-2,-5,-3,6,1,1,4,-1
30017995209,0,5,1,-6,0,1,-2,-2
30017995209,-4,-3,-5,2,-1,-1,-2,-2
30018010184,-1,5,4,-1,-1,0,-1,3
30018010184,-4,-5,3,-1,-5,-4,-2,-4
30018011660,-1,0,-6,-8,-4,-3,-1,-2
30018011660,-4,-6,-6,-5,-2,-1,-1,-2
30018032652,-4,7,7,5,3,0,1,-2
30018032652,-3,-11,-6,-2,0,-2,-3,-1
30018034135,-1,7,-4,-2,0,0,1,-3
30018034135,-3,1,18,9,3,0,0,2
30018046268,-4,0,3,-3,-2,-2,1,1
30018046268,-2,0,-3,-4,-3,-4,0,-1
30018055158,1,7,3,2,0,1,-3,-2
30018055158,-6,-6,-7,-2,-3,-1,0,-2
30018070161,1,-2,-1,-1,0,0,-1,-1
30018070161,1,1,1,0,-3,-1,0,0
30018071666,-1,-3,-5,1,-3,-2,-1,1
30018071666,3,1,-2,-4,-2,-2,-1,-2
30018092674,0,-5,-6,-10,-4,-3,-1,1
30018092674,-1,2,3,2,-1,-3,-5,-2
30018094224,1,5,22,10,3,1,1,1
30018094224,2,-5,-19,0,2,4,3,2
30018106184,0,5,3,-4,-2,-1,0,-1
30018106184,-2,-14,-3,0,1,-1,0,0
30018115138,0,4,6,-10,-5,-3,-3,-2
30018115138,0,2,2,4,1,-4,0,0
30018130141,3,5,7,8,5,1,0,0
30018130141,0,-4,-21,-6,-3,-3,-1,-2
30018131629,-3,0,9,2,-4,-1,-3,0
30018131629,0,-2,5,0,1,0,0,-2
30018152771,1,-5,-17,-11,-6,-3,-1,-1
30018152771,1,3,4,-5,-1,1,-1,1
30018154161,-2,-12,-3,6,1,-3,-1,-3
30018154161,3,10,-1,0,-3,-1,0,0
30018166224,0,-1,4,-2,-1,-1,0,-2
30018166224,0,4,-1,-1,0,-3,-1,-2
30018175183,0,-1,1,-4,2,0,0,2
30018175183,0,-2,1,-1,0,1,0,-1
30018190248,-3,-3,-2,3,-3,0,-3,0
30018190248,-2,-3,-2,-1,-1,0,0,-1
30018191585,-1,-1,-14,-9,-4,-2,-2,-2
30018191585,0,-3,6,6,-3,-5,-4,0
30018212684,2,-1,-1,-2,-1,-2,-2,2
30018212684,4,1,0,-3,0,-1,-2,0
30018214174,0,-3,3,9,2,3,-1,-1
30018214174,0,-5,-7,-2,-1,-2,-1,-2
30018226240,2,-1,-1,5,-2,-2,-2,-1
30018226240,0,0,-3,0,-2,-1,0,-2
30018235186,-4,-1,-3,-1,-1,-3,-2,-2
30018235186,-1,4,-4,-12,-1,1,0,-1
30018250281,-5,-1,5,9,-1,-1,-3,0
30018250281,1,2,0,-4,-3,-2,0,-1
30018251590,1,-4,-3,0,0,0,0,4
30018251590,-4,-1,-4,-6,-4,-4,-3,0
30018272655,1,-1,1,3,-1,1,1,-1
30018272655,-7,-3,4,-1,3,1,2,4
30018274127,4,1,-7,2,1,2,4,-4
30018274127,0,2,3,1,1,-3,-3,-1
30018286298,-2,-1,-2,-5,-3,-3,-3,-4
30018286298,-11,0,10,11,0,0,-3,-7
30018295200,-1,1,-9,-11,-4,-2,-1,-4
30018295200,14,-3,-7,0,-3,1,4,18
30018310140,-3,4,9,2,3,3,-1,-7
30018310140,-15,-12,-12,-9,-5,-3,-1,-3
30018311656,-8,-8,-1,0,-1,-2,-1,3
30018311656,-6,1,3,3,0,-4,-2,-11
30018332662,4,6,-5,-5,-3,-1,2,6
30018332662,4,-2,-5,6,2,1,0,3
30018334174,-7,-1,1,-4,-2,-3,-1,-4
30018334174,-8,-4,-1,1,-1,-3,-3,-3
30018346295,-2,-5,-2,-4,-3,-2,2,5
30018346295,-5,3,1,-5,0,-1,-5,-10
30018355162,2,-4,-6,-2,-2,-3,-1,11
30018355162,9,4,12,13,4,2,1,4
30018369518,0,6,0,-13,-4,-2,2,-6
30018369518,-3,-4,-3,0,-1,-1,-3,-1
30018376334,-11,-13,-12,-12,-6,-4,1,1
30018376334,-2,-6,1,-3,-1,-2,-9,-6
30018392680,10,12,0,1,1,-1,2,11
30018392680,4,5,1,0,0,0,3,3
30018394155,-11,-10,-4,2,2,-3,-7,-15
30018394155,-7,-9,-3,-5,-5,-3,-2,-8
30018415139,14,-2,-10,-2,2,1,3,4
30018415139,-4,-6,6,1,-5,-1,1,6
30018416578,5,16,-3,-3,-1,1,-1,9
30018416578,-14,-8,3,4,-2,-2,-3,-20
30018429501,-22,-13,-2,2,2,-1,-2,-5
30018429501,15,9,-10,-13,-5,-1,0,2
30018436353,2,-2,10,12,2,-2,-4,-2
30018436353,-20,-8,11,3,2,0,3,1
30018452655,10,7,-13,-10,-5,-3,-2,4
30018452655,-18,-14,2,3,-1,-1,-2,-7
30018454102,-2,-1,-4,-2,2,6,4,-1
30018454102,10,15,-5,-17,-6,-4,-1,4
30018475160,0,-7,12,18,4,3,-1,3
30018475160,15,17,1,1,2,1,-2,-1
30018476580,25,9,1,-2,-1,1,2,8
30018476580,-2,-5,-1,1,0,-1,0,1
30018489476,-7,2,2,1,-2,-2,-1,2
30018489476,1,-13,-15,-12,-5,-7,-10,-13
30018496289,6,4,8,11,3,1,-4,-1
30018496289,-3,-8,-7,-7,-3,1,2,3
30018511331,-3,-2,-9,-6,-1,-4,-5,-7
30018511331,-2,-1,7,5,0,0,2,1
30018520155,-9,-7,1,-2,-1,0,2,-4
30018520155,3,-3,-7,-4,-2,2,1,6
30018535092,4,13,3,-5,-5,-4,-2,-3
30018535092,-5,-16,-6,-5,1,-2,-6,-6
30018536608,-9,1,3,-3,-5,-4,-1,-4
30018536608,3,5,1,-1,0,0,-2,-3
30018557677,3,-1,7,12,2,1,0,1
30018557677,-3,-7,-43,-19,-5,-1,2,0
30018559171,-6,-1,24,16,-2,-4,-4,-2
30018559171,16,20,12,2,2,1,1,0
30018571260,-5,-24,-7,-5,0,0,-2,-10
30018571260,-5,6,18,12,4,3,5,9
30018580156,-12,-1,-20,-13,-5,-2,-4,-16
30018580156,-9,-16,-19,-9,-4,-4,-3,-3
30018595149,-13,2,-3,6,-2,-1,-4,-9
30018595149,31,3,8,1,-1,2,6,15
30018596647,-7,-6,-13,-11,-5,-5,-2,0
30018596647,1,7,8,1,-2,-2,1,5
30018617502,-11,-12,-13,-10,-2,0,-5,-11
30018617502,3,5,19,16,2,-3,-1,4
30018619126,-9,-9,-1,-8,-8,-5,-5,-4
30018619126,13,10,2,8,6,6,2,1
30018631238,-16,-8,-2,-13,-2,-6,-8,-7
30018631238,-15,-16,-22,-5,-1,-2,-4,-6
30018640187,19,16,5,6,4,0,3,6
30018640187,0,3,-8,-4,-1,-2,-4,-11
30018655146,-14,-21,-3,-9,-7,-1,1,0
30018655146,-7,-1,28,16,2,0,1,-1
30018656589,5,16,5,-8,-2,-1,-5,-5
30018656589,-10,-14,2,1,-1,-4,-1,2
30018677625,5,-5,-32,-10,-5,-1,-2,3
30018677625,7,11,3,-9,-6,-5,-4,-2
30018679106,-7,2,4,-1,1,2,-2,-13
30018679106,7,-3,14,0,1,3,11,22
30018691391,5,26,5,-10,-3,-2,-1,2
30018691391,-27,-49,-40,16,3,0,-5,-13
30018700181,1,-17,-3,-6,-2,-4,0,7
30018700181,0,10,-3,3,7,2,3,-6
30018715176,20,9,-13,-3,-6,-1,1,9
30018715176,17,27,53,11,2,0,3,10
30018716581,-20,-7,21,20,27,18,11,3
30018716581,-19,-16,-52,-11,-6,-3,-6,-9
30018737660,0,-2,2,-10,-10,-7,-9,-7
30018737660,4,24,14,7,12,2,4,-1
30018739129,1,-19,8,7,-2,-1,0,4
30018739129,1,-1,0,-5,3,4,1,10
30018751298,-13,15,6,1,3,5,3,12
30018751298,19,27,24,13,-1,2,-1,-25
30018760126,-1,-32,-39,-23,-7,-1,-2,-3
30018760126,-18,-42,-57,-16,-16,-13,-9,-6
30018775235,7,19,41,1,-5,-8,-11,-14
30018775235,-21,19,41,3,7,4,1,4
30018776654,16,-20,-16,9,5,1,1,6
30018776654,1,28,25,18,5,2,-7,-13
30018797714,-6,-2,6,15,3,-2,3,-4
30018797714,-9,-53,-64,-30,-7,0,-4,1
30018799138,13,26,-13,3,2,1,-5,0
30018799138,-9,-8,-7,2,-2,-1,3,7
30018811265,-2,-6,36,15,8,5,1,-6
30018811265,8,6,-44,-23,-10,-3,-1,4
30018820160,-2,12,23,4,-1,0,3,-3
30018820160,9,0,-9,-1,1,0,-2,0
30018834448,14,25,48,13,5,0,-8,6
30018834448,-3,-20,-38,-8,-11,-10,3,-8
30018841467,7,28,3,-31,-14,-10,-4,5
30018841467,-9,-13,40,49,12,3,-5,-17
30018857601,-1,-13,-52,-9,7,2,3,14
30018857601,-3,-4,-4,-12,-10,-2,-2,3
30018859107,8,-20,36,-10,-13,-10,-8,-6
30018859107,2,21,7,-13,-11,-7,-12,-13
30018871153,-10,-23,0,1,-9,-11,-7,-13
30018871153,13,3,-15,2,6,8,17,11
30018880183,-17,-20,-50,-15,-10,-4,0,0
30018880183,7,13,6,-14,-10,-2,1,-2
30018894500,-19,-52,-48,18,17,7,5,-11
30018894500,7,25,8,-5,-5,-6,-7,8
30018901397,6,81,110,30,9,2,2,13
30018901397,-4,-66,-39,-32,-11,-9,-7,-11
30018917740,-6,14,2,-6,-1,3,4,1
30018917740,-3,5,-7,3,-1,-1,1,-2
30018919127,-3,-32,-60,-5,-6,-8,-8,0
30018919127,-9,-24,15,-5,1,4,-2,-2
30018939990,12,24,13,-5,-1,3,15,9
30018939990,-11,-8,27,6,-6,-8,-11,-3
30018941596,2,-7,-45,4,6,3,3,5
30018941596,16,6,18,17,1,-5,-5,-2
30018954465,3,16,-11,-21,-5,2,1,1
30018954465,-17,-76,-45,-19,-12,-4,-6,-4
30018961300,20,44,18,18,12,2,-3,-3
30018961300,-9,1,-18,13,19,10,9,11
30018977645,3,18,2,-1,0,0,-2,-13
30018977645,-8,-16,66,15,-1,-7,-11,-8
30018979220,-4,4,14,-14,-13,-6,-2,-1
30018979220,9,103,10,5,5,7,23,19
30019000198,3,-22,-19,-5,-2,-2,-3,5
30019000198,2,-38,-2,7,9,11,-4,2
30019001607,-16,7,30,14,12,12,28,2
30019001607,36,88,29,19,6,5,5,15
30019015071,-9,-29,0,3,-2,-4,-10,-12
30019015071,-21,5,-10,-1,1,1,7,1
30019022764,-9,21,-2,-12,-11,-8,-11,-8
30019022764,-12,-34,-48,-19,-7,-2,-4,-6
30019037604,-4,-36,-7,22,11,4,4,-4
30019037604,5,5,-2,-16,-2,0,-5,10
30019039101,-8,-10,-29,-8,-11,-9,-9,-11
30019039101,0,18,54,11,-4,-9,-5,-19
30019060140,6,5,-19,-3,3,2,13,27
30019060140,-11,42,40,30,14,11,16,21
30019061581,-8,-36,-57,-3,-3,-6,-34,-38
30019061581,25,25,77,-15,-15,-5,14,15
30019074506,-1,9,42,25,2,-5,-10,-7
30019074506,3,28,-24,-15,-3,-4,3,-2
30019081257,10,-23,26,11,4,4,7,12
30019081257,-18,-31,-9,3,-1,-1,-16,-15
30019097742,1,9,-1,-18,-8,-2,1,6
30019097742,3,47,-4,-3,-1,-2,-8,-15
30019099109,9,3,-6,-3,7,6,-2,-8
30019099109,6,-27,-22,4,1,0,8,16
30019120027,-19,-5,-13,-18,-15,-6,-5,-11
30019120027,7,20,24,5,-4,-7,-5,-10
30019121556,-3,-21,-25,-3,11,9,2,2
30019121556,-15,-37,1,-14,-14,-5,3,5
30019134466,9,34,-5,15,9,2,-3,-3
30019134466,-5,8,-36,-11,4,0,-4,-13
30019141305,6,36,36,7,-4,-3,5,7
30019141305,-12,-59,-25,-14,-3,-4,-13,-20
30019157731,-11,-48,-9,-11,-15,-9,-3,-2
30019157731,18,65,70,16,2,-2,-17,-22
30019159145,-9,-50,-42,-12,-10,-7,15,18
30019159145,-7,17,15,-2,-3,-4,-7,-11
30019180148,12,-6,40,-6,-5,-6,-7,-5
30019180148,-2,-34,-2,10,7,5,-8,-14
30019181655,-7,6,-16,-9,-7,0,26,51
30019181655,17,24,-9,2,4,3,-2,-3
30019193774,1,-5,-23,-6,1,0,-4,-5
30019193774,9,4,8,22,5,4,12,14
30019202693,-12,3,29,-11,-14,-9,-12,-16
30019202693,-11,-11,-40,4,5,-1,-8,-9
30019217586,-6,-18,-23,0,8,10,14,-3
30019217586,20,-5,-16,-23,-9,-2,10,36
30019219129,7,22,12,7,4,4,1,-5
30019219129,-7,2,-27,-9,-1,-3,0,5
30019240146,21,30,59,15,-3,-2,-11,-6
30019240146,-12,-27,-10,-2,4,1,3,6
30019241608,-8,-11,-34,-15,-3,-1,-15,-27
30019241608,1,-2,14,-11,-7,0,17,20
30019253771,-1,1,-6,10,4,-3,-2,3
30019253771,8,-12,5,-16,-6,-3,-2,-2
30019262687,-1,-3,35,10,7,1,-6,-6
30019262687,1,-6,-58,-23,-7,-8,-7,-2
30019277668,-10,-4,15,-3,-4,-2,0,-9
30019277668,-6,-4,-79,-19,-7,-3,7,16
30019279155,-5,-51,42,27,10,7,-3,-7
30019279155,1,9,-60,-10,-7,-2,-1,-1
30019300121,-12,-13,-6,-12,-10,-5,-1,1
30019300121,-17,-31,-46,-3,-6,-8,-13,-24
30019301609,-5,-8,-8,-6,-3,-2,-4,-4
30019301609,10,32,39,13,2,-1,-1,7
30019313801,-32,-18,-30,4,6,0,-8,-17
30019313801,-2,35,31,0,-2,-3,-12,-10
30019322595,-2,-19,-5,-13,-9,-2,10,2
30019322595,-11,-39,11,1,1,0,3,2
30019337630,1,-2,-37,-7,0,1,0,-1
30019337630,-3,10,38,-4,-8,-8,-29,-20
30019339107,5,12,0,10,4,4,26,19
30019339107,20,24,-49,0,8,7,7,6
30019360203,1,-38,48,-6,-9,-4,-3,-3
30019360203,15,23,-15,11,6,4,16,13
30019361597,-14,-36,6,18,8,-1,-25,-18
30019361597,-16,-58,-29,-21,-11,-6,-19,-2
30019374441,20,35,1,-4,-6,-6,13,14
30019374441,4,-25,19,2,-3,2,2,-8
30019381379,-15,31,28,4,-1,-5,-5,-6
30019381379,22,51,61,12,6,3,3,6
30019397629,-7,-15,-94,-19,2,4,-3,-2
30019397629,-2,-49,34,20,-1,0,5,10
30019399103,-10,-8,-45,-32,-16,-7,-4,-5
30019399103,-19,9,15,14,6,2,-2,-14
30019419174,26,57,33,16,14,8,4,16
30019419174,-17,-20,-32,-8,-3,-1,-1,-24
30019427658,33,8,2,-5,-1,-1,14,24
30019427658,-24,-11,50,8,-3,-3,-7,-13
30019433697,12,-1,-21,-7,-6,-2,3,13
30019433697,-2,3,4,-6,-1,-4,0,-6
30019442627,-4,8,10,10,3,0,-1,1
30019442627,9,16,11,-4,-2,-2,4,26
30019457633,16,22,-27,0,-3,-1,1,-11
30019457633,-25,-25,-3,-15,-8,-7,-11,-17
30019459171,35,55,53,12,4,5,2,14
30019459171,-1,-4,-25,-5,1,1,2,-3
30019480248,3,22,9,1,4,3,0,0
30019480248,-3,15,29,2,-3,-4,-6,-2
30019481604,8,-9,-34,3,7,4,-5,8
30019481604,-29,-55,-20,-16,-11,-10,-11,-25
30019493789,0,17,-7,-6,-5,-7,-11,-1
30019493789,-9,-44,-52,-23,-4,3,11,3
30019502641,-19,9,35,13,2,1,-5,-11
30019502641,11,-10,-18,-12,-5,1,4,10
30019517600,-1,4,66,22,0,-3,-2,-4
30019517600,-29,-64,-59,-8,-3,-4,-1,-3
30019519123,-1,21,-16,-9,0,-1,-7,-11
30019519123,12,12,38,19,5,3,-10,-6
30019540222,-8,-16,9,3,9,5,1,-5
30019540222,28,44,12,13,1,5,42,52
30019541633,-3,-13,-18,-7,-3,-3,-4,-17
30019541633,-5,8,-49,5,1,-7,-33,-17
30019553794,-5,-33,27,-2,-3,-3,4,20
30019553794,12,22,-19,-17,-8,-4,-25,-32
30019562653,-15,-44,20,15,3,3,-1,10
30019562653,1,26,74,6,-3,-3,32,2
30019577631,-7,-17,-75,-18,-10,-11,-43,-16
30019577631,21,17,-4,15,12,11,40,45
30019579095,-30,-13,-14,5,-2,-9,-16,-34
30019579095,-36,-54,-43,-4,5,6,1,-14
30019600142,-1,36,45,6,4,-2,-12,-6
30019600142,-31,-21,3,-28,-21,-14,2,-19
30019601578,20,25,10,10,1,-6,-12,-5
30019601578,6,15,15,7,0,0,-21,-17
30019613656,-17,-5,-16,-22,-8,4,55,43
30019613656,9,22,-12,2,0,4,10,2
30019622653,-11,-54,-39,-27,-26,-12,0,3
30019622653,0,3,-5,-11,-12,-6,-9,-9
30019637550,10,-9,-8,29,58,27,-4,-9
30019637550,23,13,32,14,7,2,-20,-12
30019639124,-35,-25,-28,-25,-12,-3,10,-7
30019639124,13,22,13,-11,-23,-10,4,5
30019660107,24,32,36,6,-2,0,13,16
30019660107,-4,-10,22,31,33,13,-3,-13
30019661609,5,16,-29,1,8,4,4,1
30019661609,16,6,7,-6,-1,2,5,15
30019673716,-25,-15,4,-21,-24,-18,-14,-20
30019673716,-23,-26,8,-1,-4,-1,-7,-6
30019682667,28,66,7,-16,-16,-12,-15,-5
30019682667,-25,-8,-23,-1,8,0,-3,-4
30019697616,-38,-62,-6,2,-10,-3,1,-20
30019697616,35,81,39,13,2,0,-9,18
30019699119,-9,-23,-44,-13,3,1,4,3
30019699119,-2,-19,19,-7,-6,-6,-4,-2
30019720119,-4,-29,-44,-12,-10,-3,0,0
30019720119,-4,4,43,31,15,6,-16,-12
30019721608,0,-18,-41,-22,5,13,17,5
30019721608,34,53,43,20,6,3,34,34
30019733751,-8,13,-1,0,-15,-9,-14,-18
30019733751,10,2,14,18,20,8,9,7
30019742639,-2,1,-20,-2,3,0,-11,-10
30019742639,-21,-40,1,-5,1,5,-7,-6
30019757628,12,3,-17,-12,-10,3,19,12
30019757628,22,14,8,3,-9,-7,-5,6
30019759078,-16,16,47,10,1,2,4,9
30019759078,-16,-16,-23,-2,-3,-3,-11,-17
30019780151,12,-4,11,-2,2,1,4,13
30019780151,8,-19,-16,-1,-3,-1,-18,-15
30019781679,19,18,-25,0,3,8,57,49
30019781679,19,30,62,27,7,0,-10,2
30019793702,-4,-29,-14,-8,-1,-2,-2,3
30019793702,-14,-8,-80,-40,-21,-9,-8,-8
30019802639,-5,-36,9,13,4,-1,-6,-10
30019802639,13,33,25,-1,-4,-1,2,8
30019817606,-7,0,-7,3,-1,-2,-3,-5
30019817606,-21,-28,-3,12,21,10,6,5
30019819113,21,21,-30,-3,2,0,-18,-16
30019819113,-20,-19,-17,1,4,-2,8,3
30019840151,-3,15,-2,-17,-11,-5,-16,-16
30019840151,5,15,20,6,-6,-2,7,2
30019841579,-23,-24,22,8,6,-3,-6,2
30019841579,12,7,-5,-5,-2,2,4,-2
30019862645,-16,-11,-7,1,-7,-8,-11,-22
30019862645,-7,-9,-20,-32,-14,-7,7,19
30019864104,1,32,20,6,-5,-8,-27,-35
30019864104,0,-61,-34,9,-5,-8,-2,12
30019877601,-19,-21,-37,7,7,0,-15,-26
30019877601,10,8,10,-33,-27,-13,1,9
30019879104,0,4,20,13,6,-1,-6,2
30019879104,2,5,7,6,17,12,5,-18
30019900120,4,12,-25,-18,-13,-6,2,9
30019900120,-10,-8,33,11,-8,-8,-11,-17
30019901628,2,21,-36,-16,-8,-8,-5,-13
30019901628,-21,-8,-24,-7,15,9,-2,-4
30019922717,15,-36,-11,-5,8,10,53,45
30019922717,0,22,25,-16,-8,4,31,34
30019924102,-9,-12,14,10,-7,-6,1,26
30019924102,12,20,20,24,17,4,-20,-40
30019937596,-8,-8,-66,-16,-2,1,-15,-17
30019937596,8,3,37,14,8,2,15,30
30019939075,19,-8,34,3,-7,-1,9,8
30019939075,-14,10,13,0,-8,-7,-6,-2
30019960141,41,18,35,23,14,6,12,29
30019960141,-28,4,-3,2,-5,-10,-43,-62
30019961606,0,-31,-44,-19,6,7,24,28
30019961606,-11,-4,-3,-8,-10,-5,12,4
30019982557,10,42,57,7,-2,0,-7,0
30019982557,-15,-23,-45,-3,0,-8,-48,-49
30019984073,17,14,30,-8,-4,1,22,27
30019984073,-6,-20,20,-35,-30,-15,-10,15
30019997649,11,9,2,10,8,1,3,4
30019997649,-5,17,14,11,13,5,10,8
30019999127,16,-9,-20,8,6,8,12,-13
30019999127,4,-18,-11,-22,-14,-2,-2,13
30020020124,-9,56,79,14,-3,-7,-14,-14
30020020124,5,-21,-54,-13,-6,-3,0,-7
30020021599,10,4,-52,-14,-3,-4,-22,6
30020021599,2,7,-11,3,1,4,48,29
30020042609,-14,-51,-23,-13,-14,-10,-15,-20
30020042609,10,28,9,8,5,1,5,0
30020044130,-7,-6,-18,-7,7,3,-9,-6
30020044130,-21,-9,-30,8,4,0,8,-11
30020056971,-3,19,36,0,-3,-4,-16,-12
30020056971,-27,-24,-9,-13,-12,-5,12,12
30020063803,10,47,36,23,13,6,-13,-7
30020063803,32,62,41,16,13,3,-7,3
30020080118,-18,-32,-19,-7,2,2,-5,-17
30020080118,12,8,8,11,4,3,-10,-8
30020081607,-26,-8,7,-3,-12,-9,-21,-29
30020081607,-6,-63,-75,-21,-3,5,35,46
30020102493,-1,29,25,2,-5,-2,9,10
30020102493,11,16,-2,-4,2,-2,-4,-2
30020104083,-5,7,27,3,-4,-3,-4,-8
30020104083,15,9,7,23,19,5,-8,-4
30020116950,-14,-18,-25,-16,-6,0,12,11
30020116950,15,-14,3,1,0,2,18,30
30020123633,-2,-4,2,2,-6,-3,-12,-33
30020123633,-37,-30,-62,-20,-4,0,11,14
30020140135,0,27,17,9,-11,-11,-19,-19
30020140135,-16,-41,2,-6,0,-2,-10,-10
30020141581,22,44,24,-2,-5,-6,9,18
30020141581,-7,-19,-13,-19,-16,-11,-26,-34
30020162660,0,13,-13,19,28,12,-4,-13
30020162660,0,8,24,-7,-8,-2,-3,1
30020164139,6,-15,-11,9,7,8,13,13
30020164139,-7,-11,18,-6,-9,-3,-12,-20
30020176958,-2,9,-37,-6,-4,-8,-2,14
30020176958,24,32,0,10,4,0,-8,-5
30020183747,-25,23,48,6,-2,-3,-9,4
30020183747,11,14,31,13,12,5,-5,-12
30020200192,-6,-44,-2,-21,-12,-2,10,10
30020200192,-4,-39,-71,-21,-5,-2,-1,2
30020201582,7,-11,3,2,-4,-5,-1,9
30020201582,11,28,-17,-18,-14,-8,-7,-3
30020222512,-6,-26,15,28,18,5,-6,-7
30020222512,-27,15,-5,-6,2,-3,-29,-38
30020224112,-7,-39,-43,-11,-5,-1,9,3
30020224112,-13,-36,0,-14,-12,-7,-14,-10
30020236944,20,36,4,-6,4,7,15,13
30020236944,-6,6,28,8,-4,-4,-3,-12
30020243758,-14,-29,-33,-4,1,-1,-14,-12
30020243758,11,25,21,21,6,0,-3,-7
30020260579,-3,24,17,2,-4,0,1,7
30020260579,-5,-10,12,-5,-1,-1,5,11
30020262042,7,12,17,-14,-9,-6,1,-10
30020262042,-12,-40,-14,1,2,-1,6,13
30020282625,12,-12,16,6,2,1,-6,-8
30020282625,4,6,3,-2,-12,-7,-3,-3
30020284123,-10,-7,-19,13,9,4,3,-1
30020284123,-15,25,32,10,16,1,-28,-29
30020296952,2,8,-7,-3,-7,-4,5,1
30020296952,-18,-27,13,-2,-6,-4,6,10
30020303667,-8,-2,19,2,-2,-4,-7,-6
30020303667,26,46,20,6,-4,1,8,12
30020320177,-3,-25,-47,-9,0,-3,-12,-9
30020320177,3,8,9,20,14,10,6,-22
30020321612,10,-2,10,-10,-1,5,19,35
30020321612,-33,-63,-36,2,1,3,13,23
30020342657,-6,-2,-8,-19,-14,-7,5,5
30020342657,14,24,-7,-4,1,-3,-5,-1
30020344124,-3,-11,6,19,9,4,-8,-17
30020344124,14,21,4,1,1,1,-4,-3
30020356956,4,3,13,-1,-2,1,0,4
30020356956,-15,-11,-16,-5,-6,-2,11,7
30020363770,8,-6,-20,-4,0,-4,-21,-15
30020363770,1,15,-23,-15,-8,-3,-1,-6
30020380134,-2,11,26,6,-7,-6,-11,-9
30020380134,-10,-26,-2,3,2,0,4,5
30020381636,-15,-15,11,-8,-7,-3,6,-3
30020381636,-2,-13,-22,-13,-9,-7,-9,-11
30020402497,14,18,15,8,8,7,6,7
30020402497,-2,-9,2,14,19,9,2,4
30020404070,4,-2,-6,-11,-6,-3,-2,7
30020404070,0,-7,4,8,1,-2,-7,-10
30020425002,-6,3,-6,2,-3,-2,1,-3
30020425002,9,14,-8,-10,-4,-2,2,10
30020425763,-8,-5,12,3,0,-2,-3,-15
30020425763,2,-3,-12,-5,-3,-3,5,12
30020439393,-3,-11,-13,-17,-2,1,4,3
30020439393,-4,6,-3,8,1,1,-8,-12
30020440100,9,-2,8,7,1,3,4,7
30020440100,8,29,25,4,-2,-1,0,-1
30020461891,-5,-15,5,8,1,5,3,-2
30020461891,4,-1,-28,-17,-6,-4,3,4
30020462616,2,5,-9,-5,-2,-6,-18,-7
30020462616,6,0,1,10,1,4,10,5
30020485090,-2,-2,4,0,0,-1,-4,-3
30020485090,-3,0,-9,-3,-4,-3,1,1
30020485798,-2,5,-3,-8,-4,1,2,-3
30020485798,3,-1,-5,-8,-1,-2,-4,1
30020499400,-6,-9,-1,-3,-6,-8,-5,0
30020499400,2,3,9,-5,-10,-6,-3,3
30020500099,1,0,-18,7,17,8,9,4
30020500099,-3,-5,10,10,8,4,-3,-3
30020521944,1,8,-3,-2,-2,1,-3,-3
30020521944,-2,-5,1,-2,-2,-1,0,6
30020522572,-2,2,2,-5,-11,-6,-3,-2
30020522572,0,3,6,3,-4,-3,-3,-6
30020545126,-2,0,-1,-4,3,1,-4,-4
30020545126,1,-7,-9,-4,-3,-1,4,5
30020545764,-4,-3,0,-4,-5,-3,0,-1
30020545764,0,12,-3,-5,-4,-2,-4,-5
30020560746,-1,-5,-3,-4,-4,-4,-2,0
30020560746,2,4,-6,-1,-1,0,1,3
30020561545,-2,-6,12,12,3,-2,-1,-4
30020561545,-3,-4,-4,-5,-3,-3,-4,-1
30020582024,0,-2,0,8,6,3,1,2
30020582024,-1,-2,-5,-4,-5,-1,0,0
30020582600,1,2,-5,1,7,2,2,-1
30020582600,-3,-5,3,5,1,-2,-4,-1
30020596267,0,-1,0,4,4,0,1,1
30020596267,-1,-3,2,-3,-5,-3,-4,-1
30020604452,-1,-4,-8,-11,-7,0,3,0
30020604452,-2,-1,7,4,-5,-2,-2,-1
30020619390,-2,-4,-6,-7,-2,-2,-1,-2
30020619390,0,0,1,3,2,0,-2,0
30020620113,-4,0,-3,-6,-3,-3,0,0
30020620113,0,3,-4,-3,3,-1,0,-1
30020641924,-1,3,4,0,-6,-4,-2,-3
30020641924,0,2,-8,-8,3,2,1,1
30020642615,-2,0,13,18,1,-1,0,-4
30020642615,2,2,-1,-1,2,3,-2,-1
30020656318,-1,-5,-3,1,-2,0,2,1
30020656318,0,2,1,-4,-3,-2,0,1
30020663692,-4,-2,-4,-11,-13,-7,-3,-1
30020663692,0,-2,0,9,9,1,2,-1
30020679448,0,-2,-5,-4,3,1,-3,0
30020679448,1,2,-2,4,4,2,2,1
30020680119,-3,0,4,1,-4,-2,-5,-1
30020680119,-1,-3,-3,-3,-6,-2,-1,-2
30020701807,-1,-1,-5,-1,-1,0,0,0
30020701807,-3,-2,0,-4,-5,-2,-2,-3
30020702616,2,-1,-6,-6,1,3,0,-1
30020702616,1,1,-3,-5,-4,-5,-1,-1
30020724423,-2,-1,0,-3,-1,-2,-2,-3
30020724423,0,3,8,12,6,3,1,1
30020725099,0,2,-4,-2,1,1,1,1
30020725099,-1,-2,-4,-3,1,0,-2,-1
30020739307,0,1,0,0,-2,-2,0,-3
30020739307,-2,-4,-4,-5,-9,-8,-3,-2
30020740099,0,-1,-3,-2,5,2,-1,0
30020740099,0,0,1,3,7,2,1,-2
30020761893,-3,0,3,-3,-7,-4,-1,0
30020761893,-2,-2,0,3,1,0,-5,-6
30020762608,1,1,-3,-5,-3,0,2,3
30020762608,-2,-3,-3,-5,-4,-1,1,-1
30020785121,-2,-5,1,0,-1,-2,-2,-1
30020785121,-2,0,0,-4,-2,-1,1,0
30020785821,-2,2,-2,-1,-2,-3,-1,-3
30020785821,-1,-4,-5,1,9,5,-1,-1
30020799392,-1,-2,3,7,0,0,-2,0
30020799392,1,0,-1,4,3,0,2,0
30020800117,1,-1,-1,-2,-2,-2,-2,-1
30020800117,-2,0,-1,-6,-7,-2,-2,1
30020821872,-1,-1,-3,-4,-3,-3,-3,-3
30020821872,-1,0,-5,-4,-4,-1,1,-1
30020822575,0,-1,-5,-4,-4,-3,0,-1
30020822575,-1,-1,6,12,7,2,-1,-3
30020845100,-1,-1,-3,-2,-4,0,-3,0
30020845100,-1,-1,2,-3,-3,-1,0,0
30020845781,-3,-3,0,-4,-4,-5,-4,-3
30020845781,-2,-1,-5,-8,-7,-6,-4,-2
30020859426,0,-1,-1,2,5,3,6,1
30020859426,1,-2,-1,1,-2,1,3,1
30020860162,-2,-1,-2,-4,-1,-2,0,-1
30020860162,-1,0,-2,-9,-8,-3,-2,-1
30020882059,-3,-2,-3,-1,-2,-3,-4,-1
30020882059,0,0,6,12,12,3,-2,0
30020882582,-1,-1,4,2,-1,-1,-1,-2
30020882582,-1,-3,0,1,-4,-5,-2,-2
30020905072,0,2,-1,-7,-7,-2,-4,-1
30020905072,0,3,-3,-9,-6,-1,-1,0
30020905753,-1,0,4,3,2,1,-2,1
30020905753,1,2,-3,-3,-2,-1,-1,2
30020919399,0,1,1,2,3,1,0,1
30020919399,-1,-4,-2,-2,-5,-2,-1,-1
30020920099,-1,-1,-1,0,0,0,0,-2
30020920099,-1,-1,-3,-4,-4,-2,0,0
30020941869,-2,-3,-3,2,1,-1,-2,-3
30020941869,0,2,4,5,1,-1,1,-1
30020942564,-1,-2,-3,-7,-5,-2,-1,-1
30020942564,0,-1,-1,0,0,1,4,0
30020965094,0,-2,-1,-3,-1,-1,-3,0
30020965094,-1,-3,-2,-7,-4,-3,-1,-1
30020965795,-1,0,0,-1,0,1,-3,-1
30020965795,0,-1,-2,10,12,5,0,0
30020979431,-1,1,1,-2,-2,-2,0,1
30020979431,-2,-1,-3,-1,-2,-1,-3,-2
30020980102,-2,-1,-6,-6,-4,0,-1,-2
30020980102,-3,-4,-1,-3,-6,-1,-2,-2
30021001897,0,-2,-1,2,1,-1,0,-2
30021001897,-1,-1,-2,-4,-3,-2,-1,-2
30021002638,0,-3,-1,1,-1,-3,-4,-1
30021002638,-1,1,-4,-4,-2,-4,-2,1
30021025071,-2,-1,3,3,-1,-1,1,-1
30021025071,-2,0,-1,-4,0,-3,-5,-3
30021025794,-2,-3,0,0,1,3,3,-1
30021025794,2,0,-1,-3,-2,0,2,-3
30021039334,0,-3,-1,-2,-1,0,2,0
30021039334,0,1,-1,0,-2,0,0,1
30021040097,-1,1,0,1,0,-2,-3,0
30021040097,-3,-2,3,1,0,-4,-3,-2
30021061923,0,-2,-5,-4,-1,-1,-1,-4
30021061923,-2,-2,-1,-2,-5,-1,-1,-2
30021062592,-2,1,5,3,2,1,0,-2
30021062592,0,1,-4,-1,-1,0,-1,1
30021092728,-2,-8,-15,-3,2,3,1,-1
30021092728,0,0,5,7,2,0,0,0
30021093274,-1,2,0,-2,-4,0,0,-1
30021093274,0,1,-1,1,0,0,1,-2
30021099378,0,2,3,-3,-2,-1,-1,0
30021099378,-1,-3,-8,-4,0,-1,-1,2
30021100092,-2,-2,-1,-3,-4,-4,-1,-1
30021100092,-1,-3,3,0,-2,-1,-4,-2
30021121818,-2,-1,2,1,-2,-4,-6,-5
30021121818,1,1,-1,-1,1,3,5,4
30021122624,0,1,-2,-2,-2,-3,-2,1
30021122624,-1,-3,-1,-3,0,0,-1,-1
30021145019,0,1,-1,0,-1,0,0,0
30021145019,0,0,-5,0,-6,-2,-1,-2
30021145775,-2,-7,-8,-7,-3,-1,0,-2
30021145775,-2,0,3,-1,-4,-1,-1,-1
30021159412,0,6,7,1,3,1,-2,-3
30021159412,-3,-3,-9,-1,0,-3,-1,-3
30021160109,-2,0,1,-3,-2,-1,0,2
30021160109,-2,-3,-1,-1,-1,0,-1,0
30021181900,-3,-5,-3,-4,-7,0,-1,-1
30021181900,-1,-1,3,-1,-3,-2,-2,-3
30021182598,0,1,-1,1,0,-2,-2,-2
30021182598,-1,0,1,-2,1,-2,-1,0
30021205122,-1,1,-7,-2,1,0,-3,0
30021205122,1,-1,7,1,5,2,3,2
30021205797,-4,-4,-7,-1,3,1,1,1
30021205797,-2,-1,1,-3,0,-1,2,0
30021219366,-1,-3,-4,0,-1,0,2,0
30021219366,-1,-3,-7,-3,0,0,-2,-3
30021220091,2,5,11,5,-1,-1,-3,-1
30021220091,-2,-6,-15,-6,-3,-2,0,-1
30021242037,-1,-2,5,-1,-2,-1,-1,-1
30021242037,-2,1,4,1,-3,-2,-1,-1
30021242626,-1,-5,-25,16,5,2,1,-1
30021242626,0,0,1,16,-1,-2,0,0
30021265126,1,1,-5,3,-3,-3,-3,-1
30021265126,0,0,6,1,3,2,-2,-2
30021265773,-1,-2,-5,-10,-3,-3,-1,-1
30021265773,0,-2,6,-6,-3,-2,0,0
30021279416,-3,-5,0,-5,-2,-5,0,-1
30021279416,-1,0,2,-7,-1,0,-1,-1
30021280093,1,-3,-8,-10,0,0,-1,-2
30021280093,-5,2,6,3,-2,-2,-6,-4
30021301819,0,0,21,0,-5,-2,1,-1
30021301819,1,-2,-14,-9,-5,-3,0,0
30021302572,-3,-3,-12,3,15,6,2,-2
30021302572,-2,-6,-8,-5,-1,-1,-1,0
30021325188,1,4,0,1,4,1,2,-1
30021325188,-3,-4,-15,-5,-2,-2,-2,-2
30021325824,1,4,20,-3,-7,-5,-5,-2
30021325824,4,9,17,4,0,2,2,2
30021339397,-4,-8,-21,-8,-3,-3,-3,0
30021339397,-3,-1,1,2,-2,-3,-3,0
30021340066,2,-3,-2,1,-1,0,-1,0
30021340066,0,1,-1,-3,0,1,0,0
30021361677,-1,5,9,3,-1,-3,0,0
30021361677,0,0,-4,-9,-4,-3,-2,-2
30021369583,-3,-2,-3,4,1,3,0,-4
30021369583,-1,-4,5,3,-2,-1,-3,-2
30021385031,1,2,8,11,7,5,2,0
30021385031,-4,-4,-32,-14,-1,-1,-1,-1
30021385814,0,-5,7,3,-2,-1,0,2
30021385814,2,7,1,0,1,-2,-1,0
30021398748,-1,-11,-8,-1,4,1,0,0
30021398748,1,-3,-1,2,-1,1,0,1
30021406966,0,5,-1,-2,-1,0,2,0
30021406966,-3,-4,-12,-3,-2,-1,-2,0
30021421936,-1,0,4,-2,-2,-2,-3,0
30021421936,0,2,6,1,2,1,-3,-3
30021422617,-2,-4,0,-3,-7,-5,-3,-1
30021422617,0,-3,7,0,0,1,5,1
30021445092,-2,-1,-17,-10,-1,-1,-3,-3
30021445092,0,1,6,2,1,-1,-1,-2
30021445797,-3,-9,-6,-4,-3,-2,3,2
30021445797,-3,2,9,3,0,-2,-3,-1
30021458734,1,-3,-2,-5,-5,-4,-1,0
30021458734,-1,2,12,6,0,-1,-2,-2
30021466987,-1,-4,-7,-1,-1,-3,-4,-1
30021466987,0,3,-10,-10,-3,0,0,0
30021481849,-3,-3,-12,-10,-3,0,2,-2
30021481849,-1,-1,1,7,1,0,0,-3
30021482588,1,10,29,1,1,1,-1,1
30021482588,-3,-11,-12,3,1,-1,-3,-3
30021505091,-1,4,-8,-5,-3,-3,-4,0
30021505091,-4,0,-1,-6,-4,0,3,-3
30021505772,-4,-11,-9,-6,-4,-3,0,-3
30021505772,2,3,3,-14,-5,-3,-4,-3
30021518790,1,-6,3,-2,1,1,2,0
30021518790,0,-6,-3,3,1,1,2,0
30021526966,-2,5,3,0,-6,-4,-2,-3
30021526966,-1,3,13,4,-3,-4,-4,-3
30021541831,0,-2,1,9,2,2,-1,-1
30021541831,-1,-1,-3,0,-2,0,1,1
30021542606,-1,-3,-14,-1,2,2,0,-3
30021542606,-1,-2,-12,-1,-1,1,1,-1
30021565039,-1,2,19,-4,-6,-5,-4,0
30021565039,-1,-3,4,8,0,-3,-4,0
30021565795,2,12,9,-2,-2,-2,-1,-1
30021565795,-2,-3,-13,-1,-1,-2,-1,0
30021578711,-3,-3,-17,-2,0,-3,-1,-1
30021578711,0,0,4,8,2,1,0,-2
30021586990,-2,-6,-12,-4,1,-2,-3,-1
30021586990,1,1,-1,5,4,4,0,0
30021601777,-3,-13,-13,-1,1,2,2,1
30021601777,-3,-7,9,2,-4,-4,-3,-1
30021602573,2,9,-4,-3,-7,-3,-4,-1
30021602573,1,3,-5,-1,0,1,4,2
30021625095,-2,-3,11,1,0,-1,-1,-2
30021625095,0,-4,-15,-7,-3,-3,-1,0
30021625773,-1,1,13,7,-1,-1,-2,-1
30021625773,-2,-4,-1,-5,-2,-1,-2,0
30021638675,4,17,-1,10,0,0,-4,0
30021638675,-2,-4,-1,18,3,1,4,0
30021646957,-2,0,0,11,0,1,-3,1
30021646957,-3,-9,9,0,0,-1,1,-2
30021661950,-7,-8,-5,-6,-3,-2,-1,-3
30021661950,5,6,0,-7,-1,-1,-3,2
30021662582,3,7,4,-13,-6,-3,0,1
30021662582,-1,4,-13,0,1,0,-2,-2
30021685072,-3,-6,5,-8,-1,-1,-2,-3
30021685072,-7,-8,-6,-13,-2,-1,-1,-3
30021685751,1,2,3,2,-2,-3,-1,-2
30021685751,-2,5,2,-5,-3,-2,0,-2
30021698770,2,8,9,2,-2,-1,1,0
30021698770,-1,2,-8,-7,-1,-3,-4,0
30021706943,-1,-10,4,-4,5,5,5,1
30021706943,-5,-7,-8,0,-1,-1,0,-3
30021721993,1,-1,13,13,1,-1,-5,-2
30021721993,1,18,8,-16,-7,-2,-3,-3
30021722567,-3,-17,-14,-2,-3,-2,-1,-3
30021722567,-4,-17,-10,-6,2,0,0,-2
30021745123,2,6,0,1,0,2,0,4
30021745123,1,0,6,2,-1,-2,1,-4
30021745774,-1,3,-2,-5,0,0,2,-2
30021745774,-2,0,-12,-2,-5,-4,-11,-4
30021767604,-7,-14,-12,-1,-1,1,6,-3
30021767604,2,1,7,-4,0,3,4,3
30021768239,-2,4,-2,5,-1,1,0,1
30021768239,6,12,20,12,2,1,1,2
30021781892,-4,-3,-14,-9,-3,-3,-6,-4
30021781892,-7,-15,-14,-3,-3,-1,-2,0
30021782609,0,-2,-18,0,3,1,0,0
30021782609,-3,6,3,0,1,-1,-3,-1
30021805115,-1,14,30,7,-1,-2,0,-2
30021805115,3,-8,-17,-12,-4,-2,-1,3
30021805830,-13,-6,-3,6,0,-2,-2,-8
30021805830,-1,4,-10,-5,-4,-4,-6,-5
30021827684,3,2,4,-3,0,-1,5,1
30021827684,-3,0,28,12,6,3,1,0
30021828269,-1,-2,-17,-5,0,1,-2,1
30021828269,0,-10,-15,-5,2,-1,0,0
30021841919,-3,-6,-22,-2,-4,-3,-6,-3
30021841919,0,2,12,1,0,-1,2,-2
30021842623,0,-1,12,-4,-2,-3,-2,-2
30021842623,-3,-3,1,-2,0,1,3,-1
30021865071,-1,-11,-21,-5,-3,-1,0,4
30021865071,-3,-3,12,10,2,-1,-4,-1
30021865743,0,1,-5,2,1,-1,-2,1
30021865743,5,11,21,2,-2,-1,0,1
30021887618,-3,3,15,2,0,-1,-3,-1
30021887618,4,6,2,-1,-1,-2,-1,0
30021888264,1,-2,-6,-6,-1,0,3,0
30021888264,-3,-12,-9,-8,-2,0,2,0
30021901819,-5,-9,0,6,1,-1,1,-2
30021901819,2,7,-20,-4,-4,-4,-6,-2
30021902605,-1,-4,4,-4,1,1,5,3
30021902605,-3,-2,2,1,0,1,1,-2
30021925074,2,10,0,-6,2,-1,-2,0
30021925074,0,-4,-20,-4,-4,-3,-1,0
30021925745,2,0,6,0,-4,0,-2,-2
30021925745,-6,-3,-9,0,-2,-1,1,0
30021947630,2,5,-8,-3,-3,-3,-5,-4
30021947630,-3,-1,7,4,-1,-3,-3,-1
30021948296,6,-18,-18,-3,-1,-3,-5,6
30021948296,10,23,24,1,0,-1,4,6
30021961875,0,-5,-6,-1,0,-1,1,-2
30021961875,-8,-7,2,4,4,0,2,-3
30021962589,-4,0,3,-4,-2,0,-1,-3
30021962589,3,-4,-12,-1,1,3,8,5
30021985094,2,15,15,-1,-2,-1,1,1
30021985094,0,-5,-4,-1,2,0,-1,-3
30021985773,1,13,24,15,1,-3,-5,-5
30021985773,0,-9,-8,-6,-5,-3,-3,-1
30022007550,-1,-1,-4,-5,-1,1,0,-1
30022007550,-2,-7,-3,5,1,3,5,-1
30022009064,-6,4,4,-4,-4,-7,-8,-4
30022009064,-1,2,-3,-3,-3,-5,-9,-2
30022021220,5,-13,-6,-4,0,-1,1,1
30022021220,-5,9,15,1,-3,-4,-3,-4
30022030132,2,0,2,-1,1,-2,-4,-7
30022030132,-6,-21,-12,-1,-3,-2,4,3
30022045130,11,4,9,2,-2,-1,-2,5
30022045130,-11,7,7,-1,-1,3,-3,-5
30022046601,0,-1,-3,-2,-1,2,5,8
30022046601,-2,-2,-5,-6,-2,-2,-4,-7
30022067564,8,1,-7,3,1,1,2,-3
30022067564,-5,-12,0,-3,-1,-2,2,1
30022069045,2,7,2,-6,-2,-2,-1,-1
30022069045,-1,-2,3,6,2,-1,-3,0
30022081247,-8,-9,-1,-4,-1,-1,-2,-7
30022081247,7,8,-15,-5,-2,-2,-1,-1
30022090083,-7,-8,-7,-3,0,-1,-1,-2
30022090083,1,2,25,11,1,1,-3,-6
30022105166,-6,0,-7,-5,-5,-2,-3,-1
30022105166,-2,-4,5,1,-1,0,3,4
30022106598,8,7,6,-1,-4,-3,-6,-5
30022106598,18,4,-14,-5,-2,5,14,8
30022127679,-17,-5,5,4,1,3,0,-4
30022127679,1,-2,4,-2,-1,0,1,-1
30022129096,0,-3,-6,-3,-1,-1,-6,-4
30022129096,-9,-2,8,4,2,-3,-3,1
30022141851,4,-4,2,-1,0,-3,-5,-1
30022141851,4,7,-19,-7,-3,-2,2,6
30022148561,-5,-13,-4,0,3,3,2,2
30022148561,-3,5,-1,-2,-4,-1,-6,-3
