30140048234,-0.297973632812,-0.0220947265625,-0.256164550781,0.919311523438
30140069405,-0.297973632812,-0.0221557617188,-0.256164550781,0.919250488281
30140084533,-0.297790527344,-0.026123046875,-0.256713867188,0.919067382812
30140108212,-0.296142578125,-0.0293579101562,-0.257629394531,0.919250488281
30140129492,-0.293395996094,-0.0348510742188,-0.259704589844,0.919372558594
30140144472,-0.292114257812,-0.0340576171875,-0.259643554688,0.919799804688
30140168181,-0.293884277344,-0.026611328125,-0.257202148438,0.920227050781
30140189477,-0.2958984375,-0.0226440429688,-0.255737304688,0.920043945312
30140234542,-0.295593261719,-0.02392578125,-0.256103515625,0.919982910156
30140245202,-0.294860839844,-0.0255126953125,-0.256652832031,0.920043945312
30140247271,-0.294860839844,-0.0248413085938,-0.256469726562,0.920104980469
30140260889,-0.297546386719,-0.017333984375,-0.25390625,0.920166015625
30140279550,-0.297119140625,-0.0215454101562,-0.254516601562,0.920043945312
30140295870,-0.296691894531,-0.0220336914062,-0.254211425781,0.920227050781
30140320980,-0.296569824219,-0.0220336914062,-0.254150390625,0.920288085938
30140356945,-0.296569824219,-0.0220336914062,-0.254150390625,0.920288085938
30140362417,-0.296508789062,-0.0220336914062,-0.254150390625,0.920288085938
30140377513,-0.296691894531,-0.0236206054688,-0.254638671875,0.920043945312
30140399983,-0.295288085938,-0.03125,-0.256774902344,0.919738769531
30140414294,-0.295227050781,-0.0321655273438,-0.257080078125,0.919616699219
30140436898,-0.294738769531,-0.0338745117188,-0.257629394531,0.919555664062
30140459420,-0.294128417969,-0.0350952148438,-0.258056640625,0.919616699219
30140474203,-0.294067382812,-0.03076171875,-0.256713867188,0.920166015625
30140496852,-0.294799804688,-0.0289306640625,-0.256103515625,0.920166015625
30140519334,-0.295776367188,-0.0292358398438,-0.255981445312,0.919860839844
30140534192,-0.293518066406,-0.0360107421875,-0.258239746094,0.919677734375
30140556868,-0.291870117188,-0.0367431640625,-0.258728027344,0.920043945312
30140579277,-0.292053222656,-0.0353393554688,-0.258239746094,0.920227050781
30140594299,-0.2919921875,-0.0335083007812,-0.257629394531,0.920471191406
30140616773,-0.292053222656,-0.0324096679688,-0.25732421875,0.920532226562
30140639345,-0.2919921875,-0.0303344726562,-0.256713867188,0.920776367188
30140654301,-0.292541503906,-0.0275268554688,-0.255798339844,0.920959472656
30140676908,-0.294250488281,-0.024658203125,-0.25537109375,0.920654296875
30140699402,-0.298156738281,-0.0214233398438,-0.255004882812,0.919555664062
30140714286,-0.303039550781,-0.0172729492188,-0.25390625,0.918395996094
30140736772,-0.31005859375,-0.01220703125,-0.253051757812,0.916320800781
30140759241,-0.320190429688,-0.0052490234375,-0.252319335938,0.9130859375
30140774271,-0.330871582031,0.0037841796875,-0.250732421875,0.909729003906
30140796803,-0.33984375,0.0147705078125,-0.248291015625,0.906982421875
30140819299,-0.346923828125,0.0264892578125,-0.245544433594,0.90478515625
30140834371,-0.352233886719,0.0382690429688,-0.243225097656,0.902954101562
30140856801,-0.352600097656,0.0486450195312,-0.241638183594,0.902709960938
30140879316,-0.354370117188,0.061279296875,-0.237182617188,0.902465820312
30140894328,-0.361022949219,0.0765380859375,-0.230773925781,0.900268554688
30140916845,-0.371215820312,0.0904541015625,-0.224060058594,0.896545410156
30140939335,-0.383972167969,0.104797363281,-0.2158203125,0.8916015625
30140954279,-0.3955078125,0.119262695312,-0.206604003906,0.886901855469
30140976853,-0.404113769531,0.132446289062,-0.197326660156,0.88330078125
30140999291,-0.408142089844,0.14404296875,-0.188781738281,0.881469726562
30141014368,-0.40966796875,0.155029296875,-0.1806640625,0.880615234375
30141036725,-0.410217285156,0.166198730469,-0.172546386719,0.879943847656
30141059415,-0.411499023438,0.177917480469,-0.163452148438,0.878784179688
30141074352,-0.41455078125,0.189392089844,-0.15234375,0.876953125
30141096829,-0.419677734375,0.200256347656,-0.140563964844,0.874084472656
30141119284,-0.42529296875,0.21044921875,-0.129333496094,0.870666503906
30141134329,-0.429077148438,0.221008300781,-0.118286132812,0.867736816406
30141156804,-0.430603027344,0.231323242188,-0.106628417969,0.865844726562
30141179428,-0.431091308594,0.240539550781,-0.095703125,0.864379882812
30141194340,-0.430786132812,0.248901367188,-0.0858764648438,0.863159179688
30141216799,-0.430969238281,0.25732421875,-0.0768432617188,0.861450195312
30141239329,-0.430969238281,0.266540527344,-0.0677490234375,0.859436035156
30141254311,-0.430297851562,0.275573730469,-0.0575561523438,0.857666015625
30141276795,-0.43115234375,0.283325195312,-0.0471801757812,0.855285644531
30141299299,-0.433654785156,0.290100097656,-0.0380249023438,0.852233886719
30141314295,-0.436096191406,0.296752929688,-0.0298461914062,0.849060058594
30141338115,-0.436889648438,0.3037109375,-0.0216674804688,0.846374511719
30141359327,-0.436889648438,0.310546875,-0.0137939453125,0.844055175781
30141377085,-0.437255859375,0.316833496094,-0.0068359375,0.841613769531
30141398151,-0.437805175781,0.323059082031,-0.000244140625,0.838989257812
30141419914,-0.438842773438,0.329223632812,0.0059814453125,0.836059570312
30141436293,-0.440063476562,0.33544921875,0.0119018554688,0.832824707031
30141457446,-0.441040039062,0.341430664062,0.0172729492188,0.829772949219
30141479940,-0.442199707031,0.347229003906,0.0222778320312,0.82666015625
30141496256,-0.44287109375,0.353088378906,0.0265502929688,0.823669433594
30141518795,-0.443176269531,0.358825683594,0.0302124023438,0.820861816406
30141533141,-0.443603515625,0.364501953125,0.0333862304688,0.818054199219
30141556293,-0.444458007812,0.370056152344,0.0360717773438,0.81494140625
30141578818,-0.445617675781,0.37548828125,0.0379638671875,0.811767578125
30141593116,-0.445922851562,0.380798339844,0.0400390625,0.809020996094
30141616292,-0.447021484375,0.385559082031,0.0428466796875,0.806030273438
30141638751,-0.44921875,0.389465332031,0.045654296875,0.802734375
30141653149,-0.451538085938,0.392761230469,0.0481567382812,0.799682617188
30141676342,-0.453186035156,0.395324707031,0.05029296875,0.79736328125
30141698774,-0.454711914062,0.397705078125,0.0520629882812,0.795227050781
30141719981,-0.455749511719,0.39990234375,0.0535888671875,0.793395996094
30141736272,-0.457458496094,0.402160644531,0.0550537109375,0.791137695312
30141758796,-0.459411621094,0.404174804688,0.056396484375,0.788940429688
30141779893,-0.460815429688,0.405944824219,0.0573120117188,0.787109375
30141802397,-0.462036132812,0.407592773438,0.0576782226562,0.785522460938
30141818785,-0.462951660156,0.409362792969,0.0578002929688,0.784057617188
30141840000,-0.463256835938,0.411193847656,0.0579223632812,0.782897949219
30141856301,-0.464050292969,0.413146972656,0.0588989257812,0.781311035156
30141878782,-0.465881347656,0.414794921875,0.060302734375,0.779235839844
30141893129,-0.468200683594,0.416198730469,0.0613403320312,0.777038574219
30141916248,-0.470092773438,0.417114257812,0.0615844726562,0.775390625
30141938831,-0.470886230469,0.418029785156,0.0617065429688,0.7744140625
30141953118,-0.471618652344,0.418823242188,0.06201171875,0.7734375
30141976275,-0.473327636719,0.419494628906,0.0623779296875,0.772094726562
30141998758,-0.474853515625,0.419982910156,0.0619506835938,0.770874023438
30142019917,-0.475708007812,0.420349121094,0.0606689453125,0.770202636719
30142036265,-0.476135253906,0.4208984375,0.059326171875,0.769836425781
30142058833,-0.476196289062,0.421630859375,0.0582275390625,0.769409179688
30142079981,-0.476928710938,0.422546386719,0.0579223632812,0.768493652344
30142096319,-0.47802734375,0.423461914062,0.0580444335938,0.767333984375
30142118798,-0.478759765625,0.424011230469,0.0579833984375,0.766540527344
30142139903,-0.4794921875,0.42431640625,0.0574340820312,0.765930175781
30142156285,-0.479553222656,0.424621582031,0.0565795898438,0.765808105469
30142178752,-0.479125976562,0.425048828125,0.0562133789062,0.765869140625
30142199995,-0.479309082031,0.42529296875,0.0560913085938,0.765625
30142216272,-0.479614257812,0.425537109375,0.0560302734375,0.765258789062
30142238800,-0.479736328125,0.425903320312,0.0557861328125,0.765075683594
30142259948,-0.479919433594,0.426086425781,0.055419921875,0.764892578125
30142276265,-0.480102539062,0.426208496094,0.05517578125,0.764709472656
30142298800,-0.480163574219,0.426513671875,0.0551147460938,0.764465332031
30142319981,-0.480712890625,0.426574707031,0.0553588867188,0.764099121094
30142336296,-0.481384277344,0.426513671875,0.0553588867188,0.763671875
30142358771,-0.481628417969,0.426452636719,0.0550537109375,0.763610839844
30142379906,-0.481323242188,0.426391601562,0.0545043945312,0.763854980469
30142396293,-0.48095703125,0.426513671875,0.0545043945312,0.764038085938
30142418755,-0.48095703125,0.426635742188,0.0548095703125,0.763916015625
30142441293,-0.4814453125,0.426513671875,0.0549926757812,0.763732910156
30142456291,-0.481201171875,0.426452636719,0.054443359375,0.763916015625
30142478746,-0.480590820312,0.426574707031,0.0540771484375,0.764282226562
30142501269,-0.480407714844,0.426452636719,0.0537719726562,0.764465332031
30142516220,-0.480773925781,0.426330566406,0.053466796875,0.764343261719
30142538759,-0.481018066406,0.426208496094,0.0532836914062,0.764282226562
30142561278,-0.481384277344,0.425964355469,0.0529174804688,0.76416015625
30142575626,-0.481506347656,0.42578125,0.052490234375,0.764282226562
30142598757,-0.481506347656,0.425659179688,0.0521240234375,0.764282226562
30142621296,-0.481689453125,0.425537109375,0.0521240234375,0.764282226562
30142635617,-0.482238769531,0.42529296875,0.0521850585938,0.764099121094
30142658770,-0.482421875,0.424987792969,0.0520629882812,0.76416015625
30142681284,-0.482116699219,0.425109863281,0.0516357421875,0.764282226562
30142695693,-0.481750488281,0.425231933594,0.0516967773438,0.764465332031
30142718786,-0.481811523438,0.42529296875,0.0520629882812,0.764343261719
30142741262,-0.482421875,0.425109863281,0.0523071289062,0.764038085938
30142755592,-0.482299804688,0.424865722656,0.0521240234375,0.764282226562
30142778794,-0.481994628906,0.424682617188,0.0515747070312,0.764587402344
30142801261,-0.481689453125,0.424194335938,0.051025390625,0.765075683594
30142815592,-0.4814453125,0.423645019531,0.05029296875,0.765563964844
30142838749,-0.480834960938,0.423583984375,0.04931640625,0.76611328125
30142861300,-0.479736328125,0.423828125,0.0481567382812,0.766723632812
30142875681,-0.478210449219,0.423461914062,0.0476684570312,0.767944335938
30142898779,-0.476928710938,0.422180175781,0.0474243164062,0.769409179688
30142922743,-0.47607421875,0.420349121094,0.0465698242188,0.77099609375
30142942443,-0.474182128906,0.418823242188,0.0453491210938,0.773071289062
30142958796,-0.471008300781,0.417724609375,0.0435180664062,0.775695800781
30142981245,-0.467346191406,0.416259765625,0.041748046875,0.77880859375
30143002312,-0.4638671875,0.414245605469,0.0397338867188,0.782043457031
30143018814,-0.460632324219,0.411499023438,0.037109375,0.785522460938
30143041264,-0.457458496094,0.408325195312,0.0333251953125,0.789184570312
30143062383,-0.453552246094,0.404968261719,0.0289306640625,0.793334960938
30143078784,-0.44921875,0.401550292969,0.0241088867188,0.797729492188
30143101253,-0.444274902344,0.398071289062,0.0195922851562,0.802307128906
30143122417,-0.440490722656,0.393920898438,0.0155639648438,0.806518554688
30143138745,-0.437377929688,0.388732910156,0.01171875,0.810791015625
30143161271,-0.433532714844,0.383239746094,0.00726318359375,0.815490722656
30143182428,-0.427856445312,0.377685546875,0.0018310546875,0.821105957031
30143198838,-0.421630859375,0.3720703125,-0.00390625,0.826843261719
30143221266,-0.415893554688,0.365661621094,-0.009765625,0.832580566406
30143242447,-0.411315917969,0.358459472656,-0.0159301757812,0.837890625
30143258775,-0.406494140625,0.3505859375,-0.022705078125,0.843383789062
30143281243,-0.400390625,0.342102050781,-0.029541015625,0.849548339844
30143302317,-0.394348144531,0.333740234375,-0.0366821289062,0.855407714844
30143318128,-0.388427734375,0.325805664062,-0.0438842773438,0.860778808594
30143341297,-0.383056640625,0.3173828125,-0.0513305664062,0.865966796875
30143363748,-0.377197265625,0.307434082031,-0.0595092773438,0.87158203125
30143378064,-0.370361328125,0.296630859375,-0.068603515625,0.877563476562
30143401236,-0.361999511719,0.285827636719,-0.0784912109375,0.8837890625
30143423773,-0.352172851562,0.275512695312,-0.0888671875,0.890014648438
30143438098,-0.3427734375,0.264831542969,-0.0985717773438,0.895874023438
30143461269,-0.33447265625,0.253295898438,-0.107971191406,0.901245117188
30143483777,-0.328247070312,0.2412109375,-0.116638183594,0.90576171875
30143498077,-0.322265625,0.229125976562,-0.125,0.909973144531
30143521241,-0.31591796875,0.217041015625,-0.132995605469,0.914001464844
30143543768,-0.309448242188,0.204284667969,-0.140625,0.91796875
30143558125,-0.304565429688,0.190979003906,-0.14794921875,0.921325683594
30143581269,-0.300231933594,0.177124023438,-0.154907226562,0.924377441406
30143603747,-0.2958984375,0.163208007812,-0.161926269531,0.927124023438
30143624962,-0.291625976562,0.149169921875,-0.169250488281,0.929504394531
30143641277,-0.287048339844,0.135681152344,-0.176452636719,0.931701660156
30143669981,-0.281066894531,0.122314453125,-0.183044433594,0.93408203125
30143684913,-0.275268554688,0.109313964844,-0.189270019531,0.936157226562
30143701232,-0.270263671875,0.0972290039062,-0.195007324219,0.937805175781
30143723809,-0.266906738281,0.0860595703125,-0.200012207031,0.938781738281
30143744921,-0.2646484375,0.0751953125,-0.205078125,0.939270019531
30143761252,-0.26318359375,0.0648193359375,-0.210144042969,0.939331054688
30143783724,-0.261901855469,0.0552978515625,-0.214721679688,0.939270019531
30143804954,-0.260437011719,0.04638671875,-0.219055175781,0.939147949219
30143821290,-0.258728027344,0.0380249023438,-0.223205566406,0.939025878906
30143843779,-0.257629394531,0.0308837890625,-0.226989746094,0.938659667969
30143864903,-0.257141113281,0.024658203125,-0.230285644531,0.938171386719
30143881228,-0.2578125,0.0197143554688,-0.232666015625,0.937561035156
30143903755,-0.259887695312,0.0158081054688,-0.234741210938,0.9365234375
30143924900,-0.262390136719,0.0126342773438,-0.236938476562,0.935302734375
30143941245,-0.264831542969,0.00958251953125,-0.239074707031,0.934143066406
30143963769,-0.266296386719,0.0067138671875,-0.241027832031,0.933227539062
30143984929,-0.266296386719,0.00421142578125,-0.242370605469,0.932861328125
30144000582,-0.265869140625,0.00164794921875,-0.243225097656,0.932800292969
30144023732,-0.263793945312,-0.00091552734375,-0.244140625,0.933166503906
30144044886,-0.263916015625,-0.00250244140625,-0.244445800781,0.933044433594
30144061208,-0.264526367188,-0.00372314453125,-0.244445800781,0.932861328125
30144083734,-0.264709472656,-0.00494384765625,-0.244506835938,0.932800292969
30144104824,-0.265197753906,-0.00579833984375,-0.244873046875,0.932556152344
30144121725,-0.266296386719,-0.0069580078125,-0.245483398438,0.932067871094
30144143779,-0.267211914062,-0.0081787109375,-0.245971679688,0.931640625
30144164895,-0.267761230469,-0.00982666015625,-0.246398925781,0.931396484375
30144181249,-0.267761230469,-0.01171875,-0.246948242188,0.931213378906
30144203721,-0.267517089844,-0.0136108398438,-0.248046875,0.930969238281
30144224920,-0.267028808594,-0.0151977539062,-0.249328613281,0.930725097656
30144241257,-0.266723632812,-0.0158081054688,-0.250793457031,0.930419921875
30144263745,-0.267822265625,-0.0155029296875,-0.251525878906,0.929931640625
30144284816,-0.268798828125,-0.0158081054688,-0.251281738281,0.9296875
30144300574,-0.268371582031,-0.0172119140625,-0.250732421875,0.929931640625
30144323750,-0.267211914062,-0.0188598632812,-0.250854492188,0.930236816406
30144346220,-0.265869140625,-0.019775390625,-0.251708984375,0.930358886719
30144361174,-0.264892578125,-0.019775390625,-0.252319335938,0.930480957031
30144383772,-0.263610839844,-0.0195922851562,-0.253295898438,0.930541992188
30144406175,-0.262817382812,-0.0194702148438,-0.25390625,0.930603027344
30144421232,-0.261901855469,-0.0198974609375,-0.254272460938,0.930786132812
30144443777,-0.26025390625,-0.0209350585938,-0.255249023438,0.930969238281
30144466242,-0.258483886719,-0.02197265625,-0.256530761719,0.931030273438
30144480599,-0.257751464844,-0.0224609375,-0.257629394531,0.930969238281
30144504222,-0.257751464844,-0.0221557617188,-0.25830078125,0.930786132812
30144526220,-0.258117675781,-0.0215454101562,-0.258666992188,0.930603027344
30144540523,-0.258605957031,-0.0208740234375,-0.259094238281,0.930358886719
30144563773,-0.259033203125,-0.020263671875,-0.259460449219,0.930114746094
30144586231,-0.259643554688,-0.0196533203125,-0.259582519531,0.929931640625
30144607414,-0.260498046875,-0.0191040039062,-0.259765625,0.9296875
30144623702,-0.261169433594,-0.0188598632812,-0.260131835938,0.929382324219
30144646231,-0.261535644531,-0.0185546875,-0.260498046875,0.92919921875
30144660571,-0.261779785156,-0.0184326171875,-0.2607421875,0.929016113281
30144683749,-0.262084960938,-0.0178833007812,-0.260620117188,0.929016113281
30144706241,-0.262512207031,-0.0175170898438,-0.2607421875,0.928833007812
30144720596,-0.263061523438,-0.0173950195312,-0.261108398438,0.928588867188
30144743788,-0.263549804688,-0.0174560546875,-0.261474609375,0.928344726562
30144749127,-0.264099121094,-0.01708984375,-0.261535644531,0.92822265625
30144771730,-0.264709472656,-0.0166015625,-0.261413574219,0.928039550781
30144788094,-0.265380859375,-0.0162963867188,-0.261596679688,0.927795410156
30144809217,-0.265747070312,-0.0162353515625,-0.261840820312,0.927673339844
