30025999061,-4,2,-2,-1,1,1,-1,2
30025999061,0,-8,9,3,-3,-2,-1,-7
30025999736,2,1,-11,-6,-4,-2,-2,3
30025999736,3,-5,4,-2,-3,0,3,4
30026000518,-1,3,0,0,-1,-1,-3,-1
30026000518,-2,-3,-10,-2,0,-1,-1,4
30026001329,-19,1,5,-1,0,-2,-3,-18
30026001329,0,-3,-5,1,0,-1,-9,0
30026011298,6,-2,9,1,-1,-1,0,-2
30026011298,4,0,4,-2,0,1,7,14
30026020755,-11,-2,9,1,-3,-3,-5,-22
30026020755,-1,10,-4,-2,-1,-2,0,2
30026026324,-9,-22,-8,1,-1,-1,-2,-13
30026026324,3,3,-3,-2,0,-2,-4,-2
30026042062,3,-4,-1,2,0,0,3,14
30026042062,-3,-4,-7,1,0,-2,-10,-8
30026050041,-2,-1,-2,-3,-4,-2,3,-1
30026050041,7,2,7,-3,-2,0,0,-1
30026065016,-17,-5,-3,-1,-1,3,0,-2
30026065016,-3,4,-4,-5,-3,-4,-3,-3
30026072776,-2,6,22,1,-2,-1,-4,2
30026072776,-7,-11,-28,-3,-2,-2,-2,-7
30026086150,9,6,4,-1,-2,-4,-2,15
30026086150,3,0,0,-2,-1,1,0,-13
30026127911,-1,4,-3,-3,0,-3,-5,3
30026127911,1,-3,12,-1,0,0,7,1
30026128716,-4,-4,11,0,1,-1,-2,0
30026128716,8,1,-12,-3,-3,-4,-5,-2
30026131798,-2,4,3,0,-2,-1,-1,2
30026131798,2,-1,0,1,0,-2,-3,-1
30026132573,-4,0,-4,-5,-3,-4,-4,-3
30026132573,-1,-1,8,0,-1,1,3,0
30026139315,-2,-2,8,0,1,0,0,-3
30026139315,-2,-4,-24,-3,-3,-5,-8,-7
30026146148,2,-1,1,1,0,1,4,2
30026146148,-5,-3,-3,-1,-1,0,4,3
30026153617,-6,-7,-6,-3,-4,-2,-5,-4
30026153617,5,1,2,1,0,-1,0,-2
30026168618,-5,-8,-16,-4,-4,-4,-6,-3
30026168618,-6,1,25,4,1,-1,1,-3
30026176898,3,-15,-21,0,3,2,2,5
30026176898,-2,3,2,1,0,1,2,-1
30026200044,1,-1,-1,1,-2,-2,-6,-3
30026200044,3,5,12,1,-1,-3,-3,-1
30026200687,4,0,9,2,1,2,5,2
30026200687,-6,7,7,0,-2,-3,-8,-6
30026214325,1,-6,-8,-1,1,0,3,2
30026214325,-6,-8,-15,-2,-2,-1,-3,-3
30026215034,-1,11,10,0,-3,-3,-4,-5
30026215034,3,0,-1,-3,-3,-2,0,3
30026237367,-2,-2,-12,-3,0,1,-2,13
30026237367,1,0,2,-2,-1,1,-1,-10
30026238155,2,-2,2,-2,-5,-4,-5,2
30026238155,6,-3,-11,-6,-4,-1,-1,-2
30026259924,-15,1,3,1,-2,1,2,1
30026259924,0,-2,-17,-4,-2,-2,-4,-3
30026260661,-1,-4,-12,-2,-2,-3,-2,1
30026260661,-8,-1,-2,1,0,1,0,-3
30026274208,3,-9,-4,-1,1,2,6,-2
30026274208,-3,-2,0,0,0,4,5,7
30026274967,0,5,-5,2,1,2,-4,-6
30026274967,-1,-2,9,-3,-3,-3,-6,2
30026297442,5,2,2,0,-2,-3,-2,-7
30026297442,-2,3,3,3,2,1,3,2
30026298199,-1,-5,-9,-5,-1,-1,0,0
30026298199,2,-5,-1,-1,1,2,4,12
30026320045,0,3,8,2,-1,-1,-5,-9
30026320045,10,-5,-15,-4,-1,-1,1,7
30026320690,-6,8,26,1,-3,-3,0,-4
30026320690,0,0,-7,-1,1,0,-3,1
30026334302,-2,4,3,-3,-2,-2,6,3
30026334302,-5,-3,-1,-1,1,-2,-8,-4
30026334962,-5,-3,-12,-3,0,-1,4,-3
30026334962,-1,-1,-5,-2,-2,-1,1,-4
30026357523,4,6,9,-1,-3,-4,-5,0
30026357523,-7,-3,4,1,-1,-2,-3,-6
30026358199,-3,-4,-1,-1,-1,-1,-4,-3
30026358199,-2,-1,4,0,-1,-2,1,-3
30026380043,0,5,-16,-4,-2,-2,-2,-5
30026380043,0,1,12,0,-1,0,-6,7
30026380719,-7,0,2,-2,-2,-2,-3,-18
30026380719,10,-2,-12,-1,0,2,3,8
30026394294,-2,-5,15,1,0,0,1,-8
30026394294,1,-2,-12,-2,0,1,5,3
30026395016,3,5,-13,-5,-2,-2,-2,5
30026395016,1,0,-3,-1,0,-1,-6,-2
30026417533,-4,-1,-2,-2,1,2,-1,-5
30026417533,-2,-12,-9,-4,-3,-3,-8,-3
30026418189,-1,-1,-7,0,1,1,5,2
30026418189,-5,1,19,2,-1,-2,-1,-7
30026440041,-2,1,-4,-4,-1,-1,-5,-2
30026440041,0,5,-7,-5,-2,-1,0,-1
30026440670,-2,-9,-2,-2,1,1,-2,-5
30026440670,-8,-4,-5,-1,-1,-3,-6,5
30026454353,12,2,3,-1,-1,2,2,-8
30026454353,2,2,-4,2,2,2,7,0
30026454974,8,-2,1,2,0,-1,2,-2
30026454974,-1,3,-7,-5,-1,-2,-4,-1
30026477616,-3,-2,-8,-4,-1,-2,-5,2
30026477616,-2,-1,-3,0,-1,0,5,3
30026478249,-1,-1,-2,-1,1,0,-2,2
30026478249,-2,-1,17,1,-2,-1,1,-4
30026500066,-1,-3,-2,-1,0,-1,-1,1
30026500066,-7,-1,7,1,0,-1,-7,-6
30026500703,1,1,10,-1,-2,0,3,5
30026500703,-2,-2,-13,-2,-2,-2,1,0
30026522544,-1,-1,1,3,-1,1,-2,0
30026522544,-4,1,11,1,-1,-2,-3,-2
30026523237,2,1,0,0,-1,1,3,10
30026523237,-20,-6,-3,-1,0,-2,-6,-26
30026537574,9,9,3,3,0,-2,2,3
30026537574,-2,-6,-8,0,1,-2,-5,0
30026538237,-3,-6,-16,-2,-2,-1,0,-4
30026538237,1,-6,12,7,3,5,9,6
30026560116,-10,0,5,0,1,-1,-3,4
30026560116,-4,0,1,-4,0,-2,-5,-9
30026560674,-2,1,-3,-1,1,-1,-1,1
30026560674,-2,-3,-6,0,-1,-3,-4,1
30026573674,-4,0,9,-1,-4,-4,-4,-7
30026573674,4,-1,1,1,-1,0,-2,4
30026581821,12,0,-18,-6,-2,-1,3,6
30026581821,-5,1,8,-3,-2,-1,0,0
30026597527,0,-6,-14,-4,-1,0,-1,-2
30026597527,2,3,-1,-4,-2,-5,-10,1
30026598999,0,2,37,6,-1,-1,2,-2
30026598999,12,3,-16,-1,2,2,5,7
30026620041,-3,-5,-7,2,0,1,9,4
30026620041,5,-4,5,1,0,-1,-2,-2
30026621504,-13,0,-3,-2,-1,-4,-13,-10
30026621504,5,7,13,-1,-2,-2,5,5
30026633647,-1,-4,4,-2,-1,-2,-3,0
30026633647,-6,3,-4,-2,-2,0,0,-2
30026642532,11,-5,-7,-2,-2,0,-2,1
30026642532,-20,-5,4,-2,-3,-3,-6,-7
30026657420,5,0,1,-1,-2,-1,0,6
30026657420,2,2,-4,-4,-4,-2,6,-3
30026658983,10,3,10,4,1,0,-1,13
30026658983,3,1,-9,-4,0,0,-10,-14
30026680019,3,-4,6,1,0,1,0,6
30026680019,1,6,6,-1,0,1,6,2
30026681515,-9,-3,-6,-3,-2,-1,2,0
30026681515,5,3,-17,-3,0,2,12,8
30026693661,-9,-4,-5,-1,1,-1,-3,-3
30026693661,4,-1,-12,-1,0,0,-5,-2
30026702608,-2,-14,5,1,1,-3,-11,-5
30026702608,-7,-2,8,-1,-2,-1,2,-1
30026717585,0,-5,-16,-1,-3,-1,-2,-3
30026717585,3,2,1,1,0,-1,0,0
30026719004,-5,5,-5,-1,-3,1,3,-2
30026719004,5,-1,2,0,-3,-2,-6,4
30026740078,4,2,24,0,-3,-6,-15,-2
30026740078,0,-2,-23,-3,2,8,29,9
30026741535,-3,2,-1,-2,-2,-3,-10,-5
30026741535,0,-5,-6,-2,0,-2,2,4
30026753597,-1,5,0,-5,-2,-2,-2,-1
30026753597,-7,-6,3,2,-2,-4,-12,-8
30026762560,-6,2,4,-1,-2,-3,0,-9
30026762560,14,0,-14,-2,0,2,9,17
30026777406,-2,5,3,1,0,1,0,-4
30026777406,6,8,10,-4,-2,-5,-9,-4
30026778982,-8,-10,-3,0,2,4,12,-1
30026778982,-1,3,8,1,-1,-3,-11,-7
30026800003,1,1,-11,-2,-2,2,4,-2
30026800003,-1,-1,9,1,0,-1,-4,0
30026801484,2,0,-23,0,2,0,-2,-1
30026801484,0,3,3,-4,-2,-1,-3,-6
30026813612,-7,-12,-6,3,2,1,4,1
30026813612,-8,-11,-6,-4,-4,-2,-4,-2
30026822562,-4,1,-1,-2,-2,-3,-7,-2
30026822562,-4,-4,2,2,-2,0,-7,-7
30026837468,-2,1,-7,-3,-1,3,11,3
30026837468,-2,-4,-3,-2,1,-1,-3,0
30026839035,4,4,14,6,1,-1,3,-1
30026839035,0,1,6,1,-1,-3,-5,-3
30026860061,1,4,6,1,0,-2,-4,-3
30026860061,-5,-8,-13,-5,-3,-2,0,-3
30026861502,-1,-2,-1,-3,-2,-3,-2,0
30026861502,-4,-5,-2,-3,2,0,-2,-3
30026873677,-1,-2,-13,-6,0,-2,-4,-2
30026873677,-1,3,19,5,0,0,4,0
30026882509,-3,-3,-4,-2,-1,1,-2,-2
30026882509,-1,4,-11,-2,-2,-3,-1,-4
30026897402,-1,0,0,-1,0,-1,2,-1
30026897402,-2,-2,-5,-1,0,-1,-3,-1
30026899026,-1,-2,10,1,-2,-2,-1,0
30026899026,-1,0,-2,3,-1,-1,0,0
30026920507,0,-1,-1,-1,-1,0,-3,-1
30026920507,-2,1,-10,-2,-1,0,-3,-3
30026921975,-3,-13,-1,-4,-2,-1,0,0
30026921975,-3,-1,2,0,-1,0,0,1
30026942494,-2,-3,0,6,-2,-5,-3,-1
30026942494,-3,-3,-9,-9,-5,-4,-3,0
30026944010,1,2,-6,-5,2,3,2,-1
30026944010,-1,0,2,6,2,0,-2,0
30026957543,0,-4,-4,1,0,2,0,1
30026957543,1,3,2,-4,0,3,1,0
30026959029,-3,2,0,-3,-4,-5,-4,-2
30026959029,-3,-6,-10,1,-2,-2,-1,-1
30026980066,-1,8,12,5,-2,-3,-7,-1
30026980066,-2,-4,3,-2,0,-1,3,9
30026981492,1,3,-5,0,-2,1,4,-14
30026981492,-7,-7,-1,-1,0,-2,-4,-3
30027002418,-2,-6,-2,-5,-1,1,6,2
30027002418,-3,1,1,-2,-4,-1,-3,-4
30027004026,2,4,7,2,2,0,-2,4
30027004026,1,0,6,-1,1,1,3,-1
30027016771,-3,-3,-13,-10,-2,-3,-5,-5
30027016771,1,0,3,2,1,-3,-3,1
30027023549,-2,4,6,7,-4,-4,-3,1
30027023549,-4,-6,-15,-14,-5,-1,-1,-5
30027039876,-1,1,10,12,3,-1,0,1
30027039876,3,3,10,4,4,4,0,0
30027041505,1,-1,-19,-1,5,4,1,5
30027041505,-1,0,11,-1,-5,-4,-1,1
30027062368,1,0,10,-6,-3,-2,-1,-1
30027062368,-1,-3,-17,-3,-4,-2,-4,-6
30027064013,-4,1,4,-3,-2,-2,1,0
30027064013,3,-1,-1,-2,-1,1,2,0
30027076853,0,-1,-2,-3,-1,-2,-2,0
30027076853,-1,0,-3,-3,-4,-4,-1,-3
30027083744,0,-2,4,0,-3,-1,-4,2
30027083744,0,0,0,14,9,4,1,-1
30027098690,1,-1,-4,-15,-5,-1,1,2
30027098690,-3,0,-2,8,4,1,1,-3
30027107660,0,-5,-13,-12,-10,-4,-1,0
30027107660,2,3,14,0,-2,-2,-2,1
30027122520,-2,-3,-9,1,3,2,-2,-2
30027122520,0,-4,-1,-6,-3,-3,-2,0
30027124097,0,-1,3,0,-3,-4,-3,-1
30027124097,-1,-3,-9,-1,0,-4,-3,0
30027145008,0,1,13,2,2,-2,0,-2
30027145008,-2,-7,-9,-2,2,2,1,-4
30027146476,-2,9,11,8,9,8,4,-1
30027146476,-1,-6,-7,-9,-7,-5,-3,-1
30027158665,0,-3,-7,-5,-16,-17,-6,1
30027158665,1,11,4,6,5,2,-2,1
30027167508,1,-12,6,9,17,17,7,1
30027167508,1,3,-4,-4,5,8,5,0
30027182410,1,0,-6,2,1,1,1,-2
30027182410,0,1,9,3,-9,-11,-5,-3
30027183957,0,3,-2,-3,-4,-5,-3,0
30027183957,2,-1,-1,-2,2,4,3,0
30027204997,-2,-7,-11,-2,-2,0,-5,-4
30027204997,0,-5,-5,-8,-13,-7,-2,10
30027206505,-3,1,4,4,-2,-9,-5,-15
30027206505,0,-2,1,3,5,6,0,0
30027218612,1,-2,-3,-2,3,4,0,-1
30027218612,0,-4,-6,-3,0,-1,-1,2
30027227512,0,-1,-1,-12,-15,-11,-4,1
30027227512,2,2,2,12,5,0,-3,0
30027242376,1,4,2,1,4,5,1,1
30027242376,-1,-4,12,7,1,0,-2,-3
30027243954,1,-2,-20,-10,0,0,-1,2
30027243954,-2,3,1,-5,-10,-7,-3,-4
30027265035,-2,1,3,4,12,8,2,0
30027265035,-3,-4,-4,-3,0,1,4,-3
30027266503,-4,-2,3,-1,-4,-5,-1,-2
30027266503,-8,-8,-6,-6,-7,-7,-6,-3
30027278536,-3,-4,-4,-3,-8,-3,1,0
30027278536,-1,4,-4,1,2,4,4,-1
30027287660,-1,-6,6,6,4,3,-1,2
30027287660,-4,-1,-6,-2,-3,-8,-2,-3
30027302424,-4,1,1,-3,-9,-3,-4,-1
30027302424,-10,-3,-1,7,12,10,5,5
30027304011,4,0,-3,0,1,1,-1,3
30027304011,-2,0,5,-3,-6,-5,0,-2
30027324071,-9,-5,-9,-4,-5,-5,-3,-8
30027324071,2,3,8,-3,-6,-5,-3,4
30027332561,-8,0,-3,2,3,4,-1,-2
30027332561,0,-5,-1,0,2,1,0,2
30027338524,-2,-1,-2,-1,-5,-7,-4,-1
30027338524,3,1,1,-2,1,0,-1,-4
30027347508,2,11,-10,-3,2,1,4,3
30027347508,-3,-12,5,0,0,2,3,2
30027362520,-5,-6,1,-1,-1,-3,-6,-5
30027362520,-3,-3,-12,-1,-3,-4,-1,-4
30027364028,3,4,9,-3,-5,-3,-1,-1
30027364028,1,-2,1,0,0,-1,-1,-1
30027384925,1,-6,1,-5,-2,-2,2,3
30027384925,-12,1,0,-1,-2,-4,-7,-12
30027386464,5,-1,-5,-1,-1,-2,0,6
30027386464,5,13,0,3,2,3,0,4
30027399128,5,-2,2,0,0,1,2,4
30027399128,-7,-14,-3,-7,-2,-2,-3,-11
30027407507,-16,-9,-8,1,-5,-4,-4,-7
30027407507,-6,0,-1,-4,-10,-8,-5,-3
30027421815,0,6,-2,7,13,4,1,1
30027421815,19,10,3,2,2,5,2,8
30027428617,-4,-10,4,5,1,0,0,0
30027428617,-1,0,-5,-3,2,1,3,4
30027445080,-3,-11,-10,-3,-5,-5,-9,-13
30027445080,0,4,4,1,0,0,5,1
30027446525,-1,0,9,-2,0,-1,-2,-4
30027446525,12,4,-5,2,0,0,1,1
30027458612,-1,5,4,1,-1,0,3,-1
30027458612,-9,-10,-9,-1,-1,-2,2,1
30027475001,7,-5,-5,-1,-2,0,-1,-2
30027475001,-22,-6,-4,-6,-2,-3,-3,-9
30027481712,-3,-7,2,-3,0,1,0,-5
30027481712,-6,-6,-3,2,-6,-3,-3,-5
30027488488,12,9,-4,1,-3,0,2,10
30027488488,3,-2,-8,-6,2,0,-3,-7
30027505045,8,8,1,0,-1,0,0,3
30027505045,-21,-8,6,6,3,2,-2,7
30027506478,-5,-9,-10,-13,-5,0,-2,-14
30027506478,3,5,16,17,0,1,-1,0
30027527602,-10,-9,-19,-5,-3,-2,-3,-4
30027527602,17,5,-3,-3,1,-1,0,5
30027528961,-10,-18,-11,-3,-3,-4,-2,-5
30027528961,-12,-8,5,-8,-1,-3,-2,-6
30027541845,7,4,5,-2,-4,-2,-2,9
30027541845,4,10,0,-5,-4,-1,2,0
30027548652,-1,-7,-3,8,6,2,0,0
30027548652,8,6,-10,-5,-7,-4,-1,4
30027565206,-11,-8,8,4,-2,-2,-1,-5
30027565206,-7,-19,-7,-1,-3,-3,-9,-7
30027566514,1,9,-2,-3,1,1,2,8
30027566514,8,6,-5,-5,1,1,0,7
30027587439,-9,-16,-4,-2,-3,-1,-2,-12
30027587439,0,3,-8,-10,-6,-5,-4,-7
30027588982,-13,0,6,2,1,0,-1,-9
30027588982,6,1,12,4,-5,-4,-4,2
30027601700,2,7,-5,-3,1,3,3,11
30027601700,0,1,0,0,0,-2,-1,-7
30027608617,-2,4,-23,-5,-3,-3,-2,-5
30027608617,1,-16,2,-16,-7,-3,-3,2
30027625022,-3,1,12,4,0,-2,-1,-2
30027625022,10,13,14,6,4,3,1,3
30027626504,-8,-11,1,0,-1,-5,-4,2
30027626504,-4,-2,-8,4,6,4,2,2
30027647504,8,9,-6,-7,-5,0,3,-1
30027647504,-6,-18,-1,-4,-6,-5,-7,-16
30027648990,7,1,6,3,4,4,4,6
30027648990,-12,4,9,10,7,1,-4,-16
30027661821,1,10,-4,2,3,1,-1,9
30027661821,-8,-3,-2,-11,-12,-4,2,6
30027668620,19,24,19,-5,-6,-3,0,14
30027668620,-26,-36,-26,-6,-6,-4,-4,-26
30027685008,7,3,3,14,28,14,6,6
30027685008,-3,12,-1,-2,6,2,2,-14
30027686454,0,-16,-11,0,-8,-4,-1,19
30027686454,5,9,7,-29,-29,-12,-9,-11
30027707530,-11,5,-12,6,0,0,7,8
30027707530,3,-1,-4,14,16,6,-2,6
30027708994,-5,-14,27,9,10,3,-2,-9
30027708994,4,12,2,2,6,3,0,6
30027721905,3,2,-7,0,-17,-11,1,-1
30027721905,-1,-5,-14,-11,-4,-1,-5,-5
30027728466,-3,5,-6,-4,-6,-2,1,-6
30027728466,8,-3,-8,-5,-2,0,5,8
30027752493,-11,-17,-18,-8,-5,-3,-7,-9
30027752493,7,12,12,12,1,3,3,3
30027753998,3,10,3,-4,-5,-1,-8,-6
30027753998,-5,-24,-24,-8,-1,-2,7,15
30027767504,0,7,8,-1,-1,-1,-2,-2
30027767504,12,20,15,-3,-7,-8,-5,0
30027769045,-33,-49,-44,-11,-2,1,-3,-9
30027769045,11,28,25,23,6,2,-7,-22
30027781020,12,9,29,0,-11,-7,-2,7
30027781020,3,-19,-19,-6,1,2,7,6
30027790083,12,36,0,1,7,2,2,-4
30027790083,-12,-2,12,11,4,0,-5,-1
30027805163,1,6,-11,-15,-7,-2,-3,-8
30027805163,-5,-7,7,-1,-9,-5,-4,-7
30027806496,-3,2,-8,-16,-12,-7,-4,-9
30027806496,9,-4,17,17,21,10,6,15
30027827472,19,-6,9,12,5,6,2,0
30027827472,-2,9,20,-5,-4,-5,-3,8
30027828955,-7,-20,-35,-6,-5,-2,-3,-20
30027828955,15,27,0,-18,-15,-10,-11,6
30027841060,-24,-29,16,1,2,1,-6,-20
30027841060,4,12,-55,-10,3,4,17,18
30027850029,2,-6,35,18,4,-1,4,10
30027850029,-19,-18,-15,1,1,3,0,-11
30027865014,-5,-15,-8,5,4,0,-4,10
30027865014,17,21,4,-7,-1,1,-7,-17
30027866501,5,15,30,13,0,-3,-3,-3
30027866501,-14,-28,-15,-12,-1,-1,3,3
30027887381,7,22,-38,-8,-2,0,0,-3
30027887381,-7,5,66,20,-3,-5,-4,15
30027888944,0,-23,-30,-34,-16,-8,-1,2
30027888944,-6,-2,17,20,5,3,-3,-12
30027901143,8,11,39,-4,1,2,2,-3
30027901143,2,-32,-60,-5,-4,-3,-7,-1
30027909979,-1,20,0,5,9,8,17,8
30027909979,24,-5,-4,-4,-6,0,0,13
30027924949,-20,4,-7,-19,-13,-9,-15,-11
30027924949,-17,-15,-8,-3,-2,-1,1,-7
30027926469,-6,1,24,20,9,0,-6,-7
30027926469,-11,-10,-43,-11,0,4,10,5
30027947360,8,0,34,3,4,0,0,-1
30027947360,-13,-28,-39,-9,-5,-2,-5,-18
30027948979,0,7,-16,3,3,-2,-4,19
30027948979,-13,16,12,-2,-4,-6,-4,-9
30027961141,16,1,25,11,2,0,4,-2
30027961141,-2,9,-8,1,-1,1,2,12
30027970014,6,-17,1,7,5,2,-4,1
30027970014,2,18,-2,0,-1,2,7,-2
30027984956,-35,-31,-51,-2,-1,-1,3,-1
30027984956,12,19,28,-6,5,8,10,11
30027986457,14,-6,3,-6,-11,-5,-2,-1
30027986457,-6,11,13,11,1,-1,-5,-3
30028007640,-13,-33,-7,1,1,-1,1,1
30028007640,12,5,3,3,0,-3,-1,8
30028009004,-1,-2,-22,-25,-14,-9,-7,-7
30028009004,-16,-4,51,19,3,2,6,-3
30028021102,22,13,-35,-35,-12,-6,-1,8
30028021102,-32,-14,-14,2,1,1,-2,1
30028029980,19,6,35,19,9,6,5,5
30028029980,10,-19,-47,-29,-8,-8,-5,-4
30028044968,-5,20,44,29,7,4,0,-14
30028044968,5,10,21,4,-10,-9,-6,1
30028046474,2,4,-11,0,13,8,2,5
30028046474,1,2,19,8,6,2,2,5
30028067462,-1,39,40,1,-2,-3,-15,-30
30028067462,-5,-32,-20,-13,-2,-3,0,6
30028069012,-6,43,23,11,-3,-3,-1,8
30028069012,8,8,-16,-3,1,0,2,-3
30028080977,-1,-29,-38,-8,-8,-6,-3,-6
30028080977,-7,33,101,17,6,4,-2,-4
30028089997,-4,-41,-36,-3,-1,1,7,0
30028089997,-17,0,-11,-3,-4,-2,-6,-2
30028105067,-2,-9,-33,-4,1,-3,3,17
30028105067,17,27,34,5,-5,-4,-21,-33
30028106468,-18,-60,-45,-27,-5,2,17,25
30028106468,12,9,22,6,3,3,3,9
30028127374,18,10,15,-8,-4,-1,3,3
30028127374,-9,-9,-17,-1,1,-1,-4,-10
30028128951,1,36,39,16,-5,-9,-5,-4
30028128951,3,-9,-32,-21,-13,-10,-8,-4
30028141165,18,33,9,18,10,7,9,14
30028141165,-5,-42,-14,-10,-3,-2,-9,2
30028150030,3,25,-4,-2,10,5,6,-10
30028150030,-4,-42,0,28,3,-2,-6,-14
30028165042,11,24,23,0,-5,0,9,17
30028165042,5,13,-11,-5,3,1,-1,-2
30028166499,-1,3,22,5,2,3,0,-11
30028166499,8,61,30,1,0,0,-8,-10
30028187455,-11,-43,-68,-9,6,4,-28,-13
30028187455,8,-16,3,4,-4,-1,53,36
30028189017,3,3,3,-16,-10,-2,0,6
30028189017,5,-15,-39,-10,-2,-1,2,-1
30028201049,6,9,59,6,-2,-2,2,-4
30028201049,-16,12,0,3,8,1,-9,-7
30028209988,-6,-13,12,-1,-7,-8,-15,-19
30028209988,18,-15,-43,10,3,3,6,3
30028224819,-17,-2,8,-8,-5,-6,-4,-8
30028224819,-7,-41,-58,-18,-4,2,-5,-11
30028231141,2,38,42,13,0,-2,12,10
30028231141,-15,-11,-6,-10,3,1,-10,-21
30028247485,-2,-39,-14,-2,-7,-2,7,12
30028247485,13,28,-11,-17,4,1,-6,6
30028249005,-12,-26,-46,15,-6,-10,-21,-19
30028249005,-7,24,26,-18,-11,-4,-3,1
30028261115,-19,16,-32,-19,-4,-2,8,3
30028261115,-7,-47,40,20,3,3,1,5
30028270058,-1,28,-5,-20,-5,-4,-7,-9
30028270058,23,6,8,-3,5,2,4,16
30028285081,-14,0,17,13,-5,-6,-11,-16
30028285081,14,40,36,11,-5,-1,-1,-1
30028286474,-32,-42,-41,-21,-1,-2,0,-8
30028286474,-9,-30,-23,4,1,-1,-25,-36
30028307319,1,31,29,16,3,-1,10,-1
30028307319,24,15,-17,-5,-4,0,7,17
30028308929,-11,-68,-56,-14,2,5,-3,4
30028308929,9,71,91,-10,-15,-9,2,17
30028321150,1,-2,-24,6,7,2,-5,0
30028321150,-19,-18,29,9,2,-3,-15,-29
30028330037,38,30,-19,6,7,6,10,14
30028330037,-38,-72,6,4,2,1,3,-4
30028345041,-1,45,-26,-22,-8,-5,-2,10
30028345041,6,-13,27,11,-1,-2,18,38
30028346549,6,21,27,-8,-5,-3,-9,-18
30028346549,-14,-11,34,-3,-4,-3,-6,-9
30028367412,10,-7,-53,-4,7,5,-10,-9
30028367412,-30,-46,-35,-13,-4,-2,10,3
30028368955,4,56,53,14,5,1,-5,-4
30028368955,1,-29,-24,-3,-4,-5,6,20
30028381150,-14,-9,11,3,0,-2,-17,-20
30028381150,28,41,7,11,6,7,8,0
30028389980,7,-5,-61,-29,-8,-4,-2,0
30028389980,-11,1,28,4,-6,-3,1,4
30028404971,3,-25,0,-3,-2,-2,-1,2
30028404971,-12,-16,-36,8,2,-3,-16,-20
30028406461,-3,53,39,-4,1,-1,-4,-11
30028406461,8,-7,-48,3,6,5,-5,6
30028427556,22,1,12,6,-2,0,35,37
30028427556,-21,-57,-41,-9,-2,-2,-4,-19
30028428986,9,-8,29,19,4,1,-9,-3
30028428986,16,28,-18,-16,-6,-1,9,16
30028449945,-23,-24,-4,-1,-2,-2,-2,-7
30028449945,11,0,-26,-8,-8,-6,-18,-16
30028451456,-3,-14,8,13,-3,-6,-14,-4
30028451456,2,-13,-12,0,4,2,12,9
30028465649,-5,18,-2,-8,-2,-2,2,1
30028465649,11,21,-6,-8,2,5,-3,1
30028471112,-32,-38,-20,-8,-7,-8,-14,-19
30028471112,10,19,18,16,9,8,10,11
30028487377,-12,-61,-35,-6,-2,2,4,-7
30028487377,6,35,13,-5,1,-4,-7,-10
30028488978,-1,23,66,3,-7,-3,15,18
30028488978,-1,27,-22,-6,1,-1,2,-11
30028509979,-3,-21,19,10,4,3,2,2
30028509979,0,9,11,17,3,0,-2,1
30028511450,4,-36,-71,-27,-8,-2,2,1
30028511450,-13,-3,24,6,1,0,0,-5
30028524905,-6,1,-12,-5,-3,-3,-9,-12
30028524905,2,5,28,15,-1,-5,-2,8
30028526447,0,14,12,3,1,1,-8,8
30028526447,21,15,-30,-15,0,4,22,20
30028547501,5,-28,-42,-5,1,2,-3,2
30028547501,0,32,29,8,-1,-4,-10,-7
30028548969,10,16,28,7,0,3,9,14
30028548969,-13,-9,44,10,-3,-6,-17,-13
30028569962,-1,5,25,7,2,-1,3,0
30028569962,7,-20,-61,-29,-4,2,3,7
30028571452,-10,-25,9,26,-1,-5,-20,-21
30028571452,-11,-22,-55,-18,0,0,-1,-3
30028584758,-4,31,43,5,-3,-3,-2,1
30028584758,-7,10,3,-13,-5,-3,-5,-10
30028591099,12,64,41,20,11,5,3,-7
30028591099,2,-39,-45,-8,-9,-9,-7,15
30028607666,-5,-3,-36,-21,3,2,-1,-5
30028607666,-4,3,27,3,-3,-3,7,5
30028608971,-19,-27,-34,-18,-13,-5,5,1
30028608971,10,18,38,28,5,1,-5,-10
30028629982,18,31,18,4,2,-1,-3,3
30028629982,-1,25,39,4,0,0,-15,-6
30028631450,-8,-101,-93,-33,-5,-2,25,12
30028631450,-5,33,16,-1,4,3,13,10
30028644271,-12,-28,42,29,-1,-4,-16,-18
30028644271,8,19,43,0,2,0,14,14
30028651032,6,-19,-49,-9,-1,-4,-17,-20
30028651032,-40,-32,-3,-2,1,1,-16,-27
30028667393,15,8,-23,-28,-12,-3,20,21
30028667393,-11,-5,-57,-4,-2,-1,-7,-14
30028668977,7,13,30,6,1,-1,4,14
30028668977,-12,-21,-26,-8,-8,-3,-10,-23
30028689966,33,65,70,11,1,0,-6,9
30028689966,-8,-4,-23,9,7,5,-4,-3
30028691470,9,7,34,3,1,1,4,14
30028691470,-3,-2,-24,-14,-4,-2,3,-7
30028704301,2,-39,-17,-13,-11,-5,3,15
30028704301,6,-11,56,17,-3,-3,-1,1
30028711066,-21,-13,-23,-14,-4,-2,2,-4
30028711066,4,33,31,8,-3,-7,-15,-15
30028727607,-10,2,-12,-9,0,0,9,9
30028727607,-7,-54,-23,-14,-9,-5,2,10
30028728950,5,25,-7,-5,-1,-2,-7,-5
30028728950,12,4,11,-2,-3,-4,-6,-9
30028750062,-2,13,-17,8,5,2,2,-1
30028750062,-23,-2,-62,-15,-4,-2,-8,-20
30028751483,-11,-29,-18,9,3,4,-3,-10
30028751483,11,6,71,25,8,1,19,25
30028764327,15,-7,-36,-11,-6,-6,-21,-17
30028764327,-3,4,-8,-5,-3,2,18,5
30028771165,-17,-13,-83,-11,-2,-6,-22,-32
30028771165,27,1,2,1,6,6,14,27
30028787356,-26,18,33,-4,0,3,3,-7
30028787356,9,-32,27,17,4,0,4,8
30028788983,5,-3,15,16,5,2,-3,3
30028788983,-15,-7,-6,5,-4,-4,-16,-9
30028809826,-13,-39,-63,-18,-9,-4,-3,-9
30028809826,14,26,17,-13,-2,3,1,-1
30028811401,-4,-13,-20,11,10,5,7,7
30028811401,-2,19,34,2,4,5,3,6
30028824419,-5,-74,-49,-14,-8,-3,-4,-3
30028824419,-6,37,-15,-17,-7,-7,-17,-18
30028831147,17,34,66,23,3,2,12,13
30028831147,-7,-71,-86,-19,-6,-1,3,2
30028847604,6,75,103,23,9,2,-14,-15
30028847604,-6,-23,-36,-7,6,6,8,6
30028848983,17,8,32,-5,-7,-3,-8,10
30028848983,9,38,30,-6,-5,-3,1,-5
30028870008,-42,-24,-22,8,1,1,-2,-24
30028870008,-21,-29,27,18,-2,-10,-22,-13
30028871458,-3,45,23,-10,0,4,17,18
30028871458,7,-11,-2,-2,-5,-7,-5,-15
30028884299,15,-14,15,-6,3,4,17,27
30028884299,-9,-5,-6,0,-5,-5,-2,6
30028891049,-13,-29,-4,2,-3,-5,-8,-17
30028891049,-1,21,-14,-15,-2,1,-5,-4
30028907669,3,-3,-14,16,7,4,10,11
30028907669,-8,-52,-25,-4,-1,-1,-7,-13
30028909022,6,46,47,-7,-8,-4,5,5
30028909022,17,25,-38,-5,2,-2,-1,11
30028929862,-12,-17,38,-5,-1,3,8,3
30028929862,22,13,-17,14,5,4,8,16
30028931450,4,-32,14,0,4,2,-15,-21
30028931450,27,74,41,-5,-11,-4,33,57
30028943644,7,2,-83,-23,-3,-5,-18,-7
30028943644,-16,42,-2,-9,-5,-1,13,-13
30028952480,1,-50,-4,-1,0,-1,5,5
30028952480,4,29,64,12,4,-1,-13,-10
30028967467,2,20,7,7,1,1,-4,-10
30028967467,13,-39,-32,-8,1,0,-17,-3
30028968943,1,15,-18,-1,0,0,19,22
30028968943,-27,-63,-38,-19,-9,-6,-6,-19
30028990071,-1,1,33,11,-2,-6,-4,-8
30028990071,13,44,-17,-13,-10,-8,-16,-12
30028991472,-17,-33,51,9,-6,-5,-4,-7
30028991472,2,3,-15,17,7,0,-10,-2
30029003612,-2,-21,-28,-1,2,2,6,3
30029003612,-4,6,5,1,0,0,5,0
30029012503,-6,33,-14,-20,-11,-6,-14,-10
30029012503,-12,-31,-14,7,9,4,-2,-10
30029027491,-1,1,-10,2,0,0,11,16
30029027491,11,25,-1,4,4,4,7,11
30029028960,-5,-9,-29,-5,-4,-3,-3,-12
30029028960,-14,-14,46,2,4,4,2,-4
30029050016,17,33,-12,-4,-3,-5,-16,-16
30029050016,-12,-20,11,1,0,-2,9,32
30029051473,7,12,20,0,6,9,13,14
30029051473,6,52,15,7,-2,-4,-19,-20
30029063589,-24,-85,-63,-13,-6,-2,20,24
30029063589,-7,-38,31,8,0,0,6,-5
30029072503,-9,14,19,-5,-6,-7,-18,-21
30029072503,25,23,10,-7,-1,6,12,17
30029086799,4,22,17,2,-4,-5,-14,-11
30029086799,-17,-24,-11,-1,-2,-4,-14,-29
30029087473,-7,-29,-49,-22,-7,-4,1,5
30029087473,-20,-61,-45,-6,-4,-2,-11,-13
30029109297,7,11,16,-18,-10,-5,2,2
30029109297,4,-12,-1,9,3,1,3,0
30029109970,13,39,56,36,16,7,-4,-2
30029109970,-24,-31,-45,-27,-14,-10,-17,-25
30029131690,-5,12,75,21,0,-4,-9,-7
30029131690,2,13,-59,-32,-6,1,11,11
30029132423,4,-13,-25,33,0,-7,-11,-6
30029132423,-22,-16,38,19,13,7,-10,-11
30029146796,32,46,21,8,9,7,16,19
30029146796,20,15,16,-7,0,2,16,17
30029147463,0,4,-58,-33,-13,-6,18,24
30029147463,-17,-10,43,10,-1,1,-1,-14
30029169272,19,2,15,9,2,-2,-8,-10
30029169272,-13,-27,-38,-12,-3,-2,-7,-14
30029169938,-6,7,35,-2,2,3,-6,-3
30029169938,9,6,-37,-5,3,0,13,16
30029191899,25,14,12,19,8,1,-6,-5
30029191899,-46,12,-8,-20,-15,-15,-13,-15
30029192440,-11,-38,-19,-3,0,5,14,20
30029192440,2,-15,-39,-17,-7,-3,4,7
30029206772,15,26,-25,-8,-1,2,8,7
30029206772,17,16,39,19,5,1,-6,-13
30029207449,21,46,-1,-5,5,-2,-4,12
30029207449,7,6,4,-2,-10,-3,23,26
30029229297,-10,-6,8,-12,-5,-4,-8,0
30029229297,1,13,26,27,4,0,-10,-13
30029229939,5,-4,-14,-10,9,8,-2,-10
30029229939,18,29,14,26,7,2,3,3
30029252488,-29,-49,-7,-16,-12,-6,-4,-5
30029252488,24,13,27,3,1,1,4,15
30029253101,10,7,-13,-7,-4,-3,-3,-10
30029253101,-21,-2,0,13,2,-6,-16,-17
30029266776,3,1,-35,-22,-12,-5,-5,-1
30029266776,-6,2,7,-14,-4,0,-2,-6
30029267417,4,-2,26,-4,-3,-3,-4,-10
30029267417,-2,15,-47,-5,-3,2,3,5
30029289301,-32,-54,-15,-1,-4,-9,-13,-17
30029289301,9,27,13,23,3,-4,-1,-7
30029289968,-7,2,17,-6,0,4,5,8
30029289968,7,-21,-14,-22,-9,-4,-5,-4
30029312614,5,2,-11,9,10,5,6,6
30029312614,-8,13,8,-18,-9,-6,-7,-1
30029313099,3,16,31,23,3,-2,-4,-11
30029313099,27,-7,-23,10,9,3,1,4
30029326770,-5,-15,-39,-11,-4,-2,-1,2
30029326770,24,19,12,-2,0,3,16,18
30029327457,-29,-24,-4,2,-2,-4,-4,-8
30029327457,10,17,7,-3,-7,-3,1,3
30029349241,-21,0,21,7,9,-1,-16,-23
30029349241,-24,-18,-6,9,6,2,-17,-56
30029349945,27,-23,-80,-28,-10,6,47,76
30029349945,-5,12,54,3,-2,-3,-11,-9
30029372411,0,-3,-13,0,-4,-1,6,5
30029372411,-2,-6,-48,9,2,-2,-6,-1
30029373134,-22,-8,6,7,-1,-12,-83,-99
30029373134,10,2,7,-22,-10,-5,57,91
30029386778,6,-14,33,7,-2,3,8,1
30029386778,-9,10,-22,-2,4,0,3,19
30029387466,10,-34,-4,21,3,4,-1,-4
30029387466,5,37,-6,-9,-1,0,-10,-15
30029409283,7,46,40,0,-2,2,10,5
30029409283,6,-21,-30,-2,-2,0,-1,6
30029409920,16,11,20,11,9,2,10,8
30029409920,-20,-18,23,8,-5,-4,-14,-22
30029432419,-3,4,8,-14,0,3,12,6
30029432419,-6,-3,5,-12,-6,-1,2,9
30029433149,-18,-39,-11,0,2,-1,-5,-8
30029433149,-4,39,12,-9,-2,-7,-31,-53
30029446784,-9,6,-72,-3,3,-3,-17,11
30029446784,2,-38,49,-10,-5,4,18,20
30029447470,-21,20,-13,8,3,-2,7,7
30029447470,-5,-12,1,-3,-1,-2,-6,-8
30029469234,-15,-15,4,18,12,5,-18,-35
30029469234,11,21,29,3,4,2,-2,5
30029469943,-20,13,-10,-5,-4,-3,11,6
30029469943,-4,-34,-43,-16,-4,2,-5,7
30029492401,24,-2,85,19,-2,-3,3,2
30029492401,5,-1,-31,1,-1,2,8,12
30029493192,21,4,29,3,5,2,-2,-7
30029493192,-7,8,38,12,-2,-6,-13,-21
30029506748,4,-3,-70,-12,-2,2,7,23
30029506748,-15,-23,15,-30,-21,-11,1,-1
30029507446,19,24,-36,-16,-16,-13,-11,-6
30029507446,-37,-87,-28,1,1,1,8,4
30029529228,13,29,10,-4,2,1,-6,-13
30029529228,4,21,44,25,9,1,-7,-13
30029529919,3,2,-29,-7,-7,-2,1,7
30029529919,25,17,-4,-11,-2,0,3,-3
30029552361,-58,-43,1,8,-1,-5,-5,-12
30029552361,17,13,-27,-9,4,3,3,24
30029553187,-13,-36,21,20,-1,-2,1,-3
30029553187,-8,30,-34,-36,-11,-2,-3,3
30029566768,-2,5,-37,-21,-10,-5,-9,-14
30029566768,-14,-12,33,-2,3,-1,-1,-1
30029567486,17,37,20,7,5,2,-2,-4
30029567486,-8,0,10,24,12,4,6,4
30029589281,10,-7,-37,-11,-3,1,16,11
30029589281,-2,-2,-12,-10,-7,-2,-3,-6
30029589971,-5,3,4,-3,-2,-1,8,3
30029589971,4,-3,-13,-1,3,0,-11,-9
30029612366,10,21,52,10,2,-1,-3,3
30029612366,1,25,-4,19,-1,-5,-5,-4
30029613210,-22,-31,-19,-23,-8,-3,-9,-10
30029613210,3,-6,8,2,-3,-4,0,0
30029626751,-1,-5,6,3,5,1,2,3
30029626751,4,-2,-27,-12,-1,-2,-3,-7
30029627438,1,26,2,-2,-2,0,2,2
30029627438,-4,-19,-2,-2,1,4,5,3
30029649268,7,10,7,3,1,-2,5,5
30029649268,-16,-23,-13,3,9,1,-6,-9
30029649917,2,12,25,-2,-2,1,2,10
30029649917,3,-16,-21,2,-2,1,2,3
30029672447,2,8,14,4,-3,-1,-4,-5
30029672447,2,-7,-3,-5,-8,-3,0,-2
30029673140,-7,-2,10,-4,0,-3,-5,-3
30029673140,9,0,-10,6,5,5,-1,3
30029686838,-6,11,2,1,-1,-3,0,-3
30029686838,8,-3,3,0,2,1,1,5
30029687493,-4,-2,-1,-10,-5,-1,5,1
30029687493,-2,-6,-11,4,-2,-4,-3,-2
30029709301,3,2,13,-4,-4,-2,-4,-1
30029709301,-7,-2,1,-4,-2,0,-3,-5
30029709969,-1,-3,-2,4,4,1,-2,-1
30029709969,-1,2,1,0,-1,-2,-1,3
30029732425,-1,-10,-2,-3,-4,-5,-5,-5
30029732425,2,4,-9,-2,2,2,-1,-2
30029733078,1,3,5,6,8,4,0,0
30029733078,-2,2,0,-5,-5,1,0,-1
30029747449,1,1,-7,-3,-7,-6,-2,-1
30029747449,-2,-1,10,9,7,6,0,0
30029754425,-1,-2,-1,5,12,6,1,1
30029754425,0,5,-2,1,-4,-4,-2,-1
30029769270,-3,-8,-6,-6,-1,0,-1,1
30029769270,0,-4,-3,-10,-13,-8,-2,-2
30029769940,0,1,4,2,6,3,-2,-1
30029769940,-1,3,1,-4,-3,-3,0,-2
30029792503,-2,-5,-2,-4,-5,-4,-3,0
30029792503,-2,3,-1,5,2,1,-2,-1
30029793136,-4,-7,1,-1,-4,-2,0,-2
30029793136,-1,-2,0,2,-4,-2,-1,-2
30029806653,-1,2,-2,1,1,2,2,0
30029806653,2,-2,1,-1,-3,-2,0,-1
30029807441,-1,2,-1,-10,-13,-7,-1,-2
30029807441,-2,-9,-1,-1,2,-1,1,1
30029829341,2,-3,-14,10,11,6,1,2
30029829341,-2,5,11,-3,-3,-1,-2,-1
30029829977,-1,5,21,2,-7,-4,1,-1
30029829977,-1,-10,-13,0,2,0,1,0
30029852529,-1,-6,5,-4,1,1,0,-1
30029852529,2,7,-9,0,2,-4,-3,0
30029853120,5,5,-2,-2,-1,0,-1,1
30029853120,-1,3,4,-2,-1,0,-1,2
30029866737,-2,-1,-1,-4,-3,-4,-4,-2
30029866737,-2,-1,-11,-1,0,-2,-1,-4
30029867447,1,-9,2,-4,-1,-2,2,-1
30029867447,3,2,1,4,3,3,-1,-1
30029889150,-2,-5,-1,-4,-7,-5,-3,1
30029889150,1,6,8,-2,-3,0,-1,0
30029889937,-2,1,-5,-5,-3,-3,-3,0
30029889937,2,2,-4,0,0,0,0,-1
30029912567,-1,-3,0,1,-1,0,-1,0
30029912567,-5,-11,-7,-2,-2,-2,0,-3
30029913136,2,10,2,2,3,1,0,-1
30029913136,-7,-17,-12,-9,-6,-4,-3,-1
30029935008,1,11,11,-2,-2,-4,-4,-1
30029935008,-6,-8,-1,0,0,-2,-4,-4
30029935617,-1,-2,-7,-4,-4,0,3,2
30029935617,2,7,7,3,1,1,1,-2
30029949291,0,-7,-7,-6,-4,-1,4,-3
30029949291,1,-1,2,0,-3,-2,-1,-1
30029949941,-1,1,-4,-3,2,0,-4,-2
30029949941,-4,-4,4,4,0,-2,-2,1
30029972463,1,2,0,-1,0,0,-2,-1
30029972463,1,1,0,2,3,2,3,1
30029973165,-2,-6,-8,-6,-5,-4,-4,-1
30029973165,-3,-2,2,3,0,0,-3,-1
30029986089,-3,-2,3,-3,-3,1,3,-1
30029986089,-1,-2,-8,-2,-3,-1,1,-1
30029994445,1,8,1,3,2,-2,0,0
30029994445,-3,-16,-12,-5,-4,-2,-2,-3
30030009277,-2,4,2,3,5,2,-2,-1
30030009277,-4,-6,-2,-2,-2,0,-1,-1
30030009948,-1,-5,-3,-2,-4,-1,-1,1
30030009948,-3,-2,-2,-3,-6,-2,-3,-2
30030032446,2,4,-3,3,-1,-1,1,1
30030032446,2,5,13,4,2,-1,0,-1
30030033131,-2,-7,-2,2,1,1,0,-1
30030033131,1,7,-4,-6,0,-1,-1,0
30030046159,1,1,1,-4,-5,-1,0,-1
30030046159,-1,-3,-5,1,-2,-1,-1,1
30030054277,-5,-12,1,-2,-4,-3,-1,-4
30030054277,0,5,5,-1,-1,-2,-1,-1
30030069236,0,1,-11,-4,2,1,-2,-2
30030069236,-1,-10,-6,-6,-5,-1,2,1
30030069974,-1,4,5,0,-3,-4,-2,-3
30030069974,-2,0,-2,2,6,2,0,0
30030092316,-4,-7,3,0,-2,-1,-1,0
30030092316,-2,5,-4,1,0,0,-1,-1
30030093047,-3,-6,5,-3,-5,-3,-2,-2
30030093047,0,-1,-7,4,-1,-2,-2,-1
30030106051,-1,5,11,7,1,0,1,-1
30030106051,-1,-10,-9,4,9,2,0,0
30030114224,-3,-4,1,-4,-7,-3,-3,-1
30030114224,-1,-8,0,-6,-5,-4,-1,-2
30030129289,0,9,-5,1,0,1,0,-2
30030129289,0,1,-3,-3,-1,1,1,1
30030129943,-1,4,-2,3,-1,-2,-4,-2
30030129943,1,6,3,-1,-2,-1,3,2
30030152491,-5,-9,-5,-6,-4,-2,-1,-1
30030152491,-4,-6,-1,-5,-1,-1,-2,-2
30030153146,5,4,-11,0,3,1,1,1
30030153146,1,5,6,-4,-3,-2,-1,-1
30030166097,-3,-12,-10,1,4,0,0,-1
30030166097,2,16,8,-6,-4,-2,-3,-1
30030174304,-2,1,8,-2,-3,-2,-1,1
30030174304,-4,-7,3,14,6,2,0,-2
30030189239,7,12,0,-7,-8,-3,-2,0
30030189239,-3,-9,-9,2,2,1,0,-2
30030189967,-2,-5,6,0,-1,-2,0,-1
30030189967,1,5,4,-6,2,4,2,0
30030212393,-4,-6,-15,-8,-3,-2,-1,-1
30030212393,0,4,-8,1,-6,-4,-3,-1
30030213081,-3,-8,18,2,3,3,-3,-4
30030213081,-5,-7,-3,-4,-6,-2,-3,-3
30030226138,0,0,4,-3,-1,-3,-4,-1
30030226138,-2,-7,-4,0,-1,0,2,0
30030234322,1,6,-7,-4,-2,-1,1,2
30030234322,-2,-7,-27,0,1,-1,-2,-3
30030249250,-1,-1,13,1,1,-1,1,-1
30030249250,0,1,1,-5,-4,-4,-1,-1
30030249921,2,2,-3,2,3,0,2,1
30030249921,-3,3,2,-3,-6,-1,-1,0
30030272443,-2,-6,-6,-2,-2,-1,-1,-3
30030272443,-3,-2,1,5,2,-2,-1,-1
30030273148,-4,-12,-2,-8,-1,0,1,-2
30030273148,3,10,20,16,-1,-2,-1,0
30030286062,-1,-1,-3,-9,1,-2,-1,-1
30030286062,0,0,3,-5,-5,-2,-2,-1
30030294425,2,17,-6,-1,-3,-2,-1,-1
30030294425,-5,-14,-4,-12,-7,-2,-1,-1
30030309274,-1,-5,-2,8,6,3,0,-3
30030309274,0,1,5,1,1,0,-1,-2
30030309973,-1,11,-6,-4,-3,-4,-3,-2
30030309973,0,-10,1,-1,2,0,-1,-3
30030332313,-1,-8,2,7,-3,-1,0,-1
30030332313,2,-2,1,1,-2,1,1,2
30030333131,2,10,-28,-4,0,2,0,0
30030333131,-5,-17,12,3,0,0,0,-1
30030354952,-2,-2,-19,-17,-5,-2,1,-1
30030354952,-2,2,17,7,-2,-3,-1,-2
30030355676,-1,-13,-14,-8,-3,0,1,-1
30030355676,-1,5,4,1,-2,-2,1,-1
30030369186,-3,-3,-7,3,2,-1,0,1
30030369186,3,-3,-4,-1,-1,2,0,1
30030369973,-3,-12,-15,-3,1,0,-2,0
30030369973,0,-2,-6,-1,5,2,2,1
30030392557,-5,18,36,6,-2,-2,-3,-2
30030392557,-1,1,-11,-19,-7,-6,-2,-2
30030393101,3,-1,21,12,-3,-2,2,3
30030393101,-3,-6,-22,-6,4,2,0,0
30030415652,1,4,0,5,5,2,2,0
30030415652,-2,5,-5,-3,-1,-1,-2,-2
30030416313,-4,-16,8,0,3,0,-3,-2
30030416313,4,18,8,-5,-2,-3,-4,-1
30030429253,-6,-18,-19,-5,-5,-3,1,-2
30030429253,-1,-5,1,0,-2,-1,-2,-1
30030429919,-4,-4,1,4,-1,-1,1,-1
30030429919,-1,6,-5,-5,-3,-4,-6,-2
30030452441,4,4,-10,-4,-1,-1,0,-1
30030452441,-5,-10,-9,1,3,1,-1,-2
30030453155,-2,-2,4,0,1,1,1,-3
30030453155,-3,-7,-22,2,0,-1,0,-2
30030474972,3,4,23,-4,-2,-1,-2,0
30030474972,-2,-1,-15,-1,-6,-7,-5,-2
30030475631,2,2,-6,-1,-1,-1,-3,0
30030475631,0,4,8,5,2,0,-1,-3
30030489278,-5,-16,-6,-9,-6,-3,0,-3
30030489278,-1,4,9,6,4,1,2,0
30030489965,-2,1,0,-5,-5,-4,-4,-3
30030489965,-2,-12,-17,-5,-2,0,4,1
30030512527,2,8,14,10,2,0,0,0
30030512527,1,-3,13,3,0,1,-3,-1
30030513146,-4,-3,-9,-3,-2,-1,1,0
30030513146,0,-2,17,-3,-1,-1,-3,-2
30030534978,-3,1,-15,-2,-2,-1,-2,-1
30030534978,2,-1,-11,-4,0,-1,-2,-1
30030535617,-1,-2,13,4,-2,-2,-1,-2
30030535617,1,9,21,12,1,-3,-4,-2
30030549282,-1,-6,-8,-10,-2,-1,2,1
30030549282,0,2,11,1,0,0,-1,1
30030549959,0,0,-12,-14,-2,-1,-2,0
30030549959,1,0,-17,-6,-3,-1,-3,0
30030572533,-6,-3,0,8,1,1,-2,-6
30030572533,-1,-5,9,1,-4,-3,2,0
30030573094,-1,5,2,-4,1,-1,-1,-3
30030573094,-1,3,-1,-5,0,0,2,0
30030594955,1,0,5,2,3,-1,-2,0
30030594955,0,0,5,0,0,1,3,0
30030595628,-4,-12,-21,6,2,1,-1,-1
30030595628,6,9,-1,-2,-3,0,-1,1
30030609274,2,2,1,2,-1,-1,-3,-1
30030609274,-2,-2,2,-4,2,1,-4,-2
30030609970,2,0,1,-4,1,2,3,2
30030609970,-3,-2,5,-3,-3,-2,0,1
30030639968,3,7,-6,-2,1,1,1,1
30030639968,-2,-9,2,3,-1,1,-3,-4
30030641455,0,-3,-6,0,-2,-4,-4,-2
30030641455,-1,5,13,1,0,-1,2,0
30030654943,0,7,-8,-7,-3,-4,0,1
30030654943,-1,-5,9,1,-3,-1,-2,-2
30030655642,-3,-1,13,7,0,2,-4,-2
30030655642,-3,-13,-38,-18,-4,-3,-2,-2
30030668509,0,9,16,6,-3,-4,-1,0
30030668509,-1,5,0,2,-2,0,-1,1
30030677484,1,1,-13,-7,-1,-1,-1,-1
30030677484,0,0,15,9,1,2,1,-2
30030692449,-3,-3,1,-2,0,-2,-1,-2
30030692449,-6,-18,-35,-11,-3,-4,-2,-1
30030693926,2,12,24,6,-5,-4,-2,2
30030693926,-1,-1,-5,-3,1,-2,-6,-3
30030714927,-4,-5,2,5,4,3,3,-2
30030714927,1,5,-2,-5,-3,-1,1,0
30030716403,0,-4,0,1,-1,-2,-4,0
30030716403,0,2,8,3,-2,1,3,-1
30030728581,-2,-6,3,7,2,1,-3,-1
30030728581,-3,-2,-17,-9,-3,-4,-2,-3
30030737485,-1,2,4,-4,0,-1,1,-1
30030737485,-3,2,-3,-5,-2,-1,-3,-2
30030752473,-3,-16,-7,-9,-4,-3,-3,-3
30030752473,1,12,0,3,6,1,-1,1
30030753974,-1,0,-6,-3,1,-1,0,-1
30030753974,-3,-8,-6,-7,-1,-2,0,1
30030774903,1,6,3,6,-2,-2,-2,0
30030774903,-1,-4,6,4,-1,-1,-1,-1
30030776430,-2,-3,2,-2,-2,-1,-1,-1
30030776430,-3,-4,1,-3,1,0,-2,-1
30030788591,-3,-9,-24,-5,1,1,2,2
30030788591,-1,9,19,5,-2,0,4,0
30030797429,-2,-11,-4,-1,-2,0,-1,-1
30030797429,-1,-1,2,-2,-1,0,-1,-1
30030812467,0,2,0,-4,-3,-3,-2,1
30030812467,-1,0,-3,1,0,0,1,-1
30030813964,-1,-2,-17,-3,0,0,1,-1
30030813964,2,0,-9,-1,-4,-3,-5,-2
30030834791,1,-1,-5,-2,0,0,2,0
30030834791,2,0,5,2,-4,-2,0,1
30030836419,1,2,-2,2,5,1,1,0
30030836419,1,1,8,4,2,0,-1,0
30030848556,1,0,-15,-4,-1,-1,-4,0
30030848556,1,2,2,-2,-1,0,-2,0
30030857440,-1,1,-5,-6,-7,-4,-3,-2
30030857440,-5,-9,0,1,-1,-1,-1,-4
30030872452,2,15,24,0,0,-1,-2,0
30030872452,-2,-10,-19,-13,-3,-4,2,1
30030873904,-1,0,12,10,-2,0,-1,-2
30030873904,1,-1,-1,1,-3,-1,2,2
30030894990,-2,-3,0,2,0,-2,-1,-4
30030894990,-3,-3,-18,-7,1,2,-1,0
30030896446,-2,3,-2,-3,0,0,-1,1
30030896446,0,4,3,1,0,0,2,0
30030908593,-2,-7,-10,-1,-3,-3,-2,-3
30030908593,0,-3,7,4,-2,0,-4,-3
30030917460,-5,-6,11,1,2,2,-2,-4
30030917460,1,2,-21,-3,0,-2,-2,1
30030932451,3,-1,3,-2,0,1,2,2
30030932451,-2,-3,-14,-3,0,-1,2,0
30030933921,3,8,13,-2,-2,-4,-2,-1
30030933921,-5,-6,13,5,-1,-4,-5,-2
30030954958,-1,-1,-17,-10,-1,0,-1,-1
30030954958,-2,-14,-7,-3,-3,-6,-5,-2
30030956452,-1,1,-9,-2,-3,-1,1,0
30030956452,-1,-1,-1,-3,-2,-2,-1,-2
30030968539,-3,-9,-22,-3,-1,-2,0,-1
30030968539,0,8,27,4,1,2,0,-2
30030977480,1,3,1,-4,1,1,2,2
30030977480,-3,-2,2,5,-1,-1,0,-1
30030992530,0,5,4,-2,-3,-2,-3,-2
30030992530,-3,0,-12,-3,0,1,3,-2
30030993932,-3,-1,5,-3,-3,-4,-2,0
30030993932,0,5,11,6,-1,-1,-1,-2
30031014927,-1,-3,0,3,3,1,2,1
30031014927,2,0,-13,-6,-1,-4,-8,-1
30031016409,-1,-3,-5,1,2,1,-4,-4
30031016409,-5,-8,-16,-8,-1,1,4,1
30031028622,-4,1,22,3,0,0,3,1
30031028622,5,0,-7,-3,1,-1,0,1
30031037487,-3,3,4,6,-1,-2,0,1
30031037487,1,-3,-1,-1,-1,-2,-5,0
30031052329,-3,1,6,5,-1,-4,-5,-3
30031052329,-3,0,10,-5,-1,1,1,-2
30031053931,-2,-5,-6,3,1,0,0,-1
30031053931,0,-5,-31,-11,-1,0,1,-1
30031082461,0,2,4,-4,-3,-4,-4,-2
30031082461,0,-1,-9,3,3,0,1,-1
30031083948,-1,0,19,-8,1,0,1,-1
30031083948,-3,-10,0,1,-1,-1,-2,-3
30031088575,-1,-6,-4,-4,-1,-2,-1,1
30031088575,-3,0,4,6,-2,-4,-4,-4
30031097436,7,4,-3,-3,-3,0,6,5
30031097436,-11,-2,4,-4,-2,0,-2,-6
30031112418,0,1,-6,-4,-2,1,3,1
30031112418,-3,-1,10,7,1,-1,1,-2
30031113965,-3,-6,-18,1,0,-1,-3,0
30031113965,2,4,1,-4,0,1,-1,5
30031134968,-1,-4,-20,-7,-4,-4,-4,-1
30031134968,-5,3,15,3,0,-1,0,-2
30031136423,-1,-2,24,2,1,-3,-3,-4
30031136423,4,5,-18,2,1,1,6,1
