-0.81103515625,-0.14794921875,0.568359375
-0.810546875,-0.1572265625,0.5556640625
-0.80322265625,-0.17431640625,0.56494140625
-0.798828125,-0.16943359375,0.5703125
-0.8095703125,-0.15234375,0.5732421875
-0.8056640625,-0.14794921875,0.5634765625
-0.81201171875,-0.15234375,0.55908203125
-0.81591796875,-0.15478515625,0.56494140625
-0.8125,-0.15283203125,0.55419921875
-0.82470703125,-0.13623046875,0.54833984375
-0.82861328125,-0.1328125,0.53515625
-0.8330078125,-0.13525390625,0.53173828125
-0.84375,-0.1337890625,0.525390625
-0.85693359375,-0.11865234375,0.517578125
-0.84375,-0.1162109375,0.5087890625
-0.84765625,-0.11474609375,0.51171875
-0.84912109375,-0.1142578125,0.51025390625
-0.85009765625,-0.10009765625,0.498046875
-0.85693359375,-0.11328125,0.51611328125
-0.8544921875,-0.1201171875,0.494140625
-0.86328125,-0.09521484375,0.48779296875
-0.86474609375,-0.10107421875,0.4931640625
-0.8623046875,-0.1220703125,0.48828125
-0.86376953125,-0.12109375,0.494140625
-0.8720703125,-0.10205078125,0.47802734375
-0.87939453125,-0.08935546875,0.4736328125
-0.87109375,-0.099609375,0.47509765625
-0.8759765625,-0.103515625,0.47705078125
-0.86865234375,-0.1123046875,0.4921875
-0.86767578125,-0.1083984375,0.48193359375
-0.88427734375,-0.095703125,0.4697265625
-0.88623046875,-0.0927734375,0.458984375
-0.873046875,-0.11083984375,0.47509765625
-0.87060546875,-0.1162109375,0.47607421875
-0.876953125,-0.09716796875,0.47314453125
-0.87939453125,-0.08251953125,0.45947265625
-0.8896484375,-0.07861328125,0.455078125
-0.8896484375,-0.0908203125,0.451171875
-0.880859375,-0.0849609375,0.46484375
-0.87744140625,-0.09716796875,0.46533203125
-0.89013671875,-0.0830078125,0.4609375
-0.89501953125,-0.083984375,0.462890625
-0.88037109375,-0.1025390625,0.45263671875
-0.89599609375,-0.09326171875,0.447265625
-0.89697265625,-0.0888671875,0.4580078125
-0.8837890625,-0.09423828125,0.453125
-0.88525390625,-0.10205078125,0.4638671875
-0.8935546875,-0.10302734375,0.45263671875
-0.8916015625,-0.09619140625,0.44677734375
-0.89990234375,-0.08544921875,0.447265625
-0.89208984375,-0.08935546875,0.443359375
-0.89599609375,-0.07421875,0.43310546875
-0.90087890625,-0.07568359375,0.4443359375
-0.900390625,-0.07275390625,0.4375
-0.89501953125,-0.072265625,0.43798828125
-0.8935546875,-0.0849609375,0.4404296875
-0.89697265625,-0.0849609375,0.43359375
-0.900390625,-0.08740234375,0.44384765625
-0.8779296875,-0.09228515625,0.4755859375
-0.8916015625,-0.08203125,0.45458984375
-0.900390625,-0.0927734375,0.451171875
-0.8955078125,-0.08642578125,0.439453125
-0.88720703125,-0.10546875,0.46435546875
-0.87890625,-0.09521484375,0.4609375
-0.88671875,-0.09619140625,0.4677734375
-0.8896484375,-0.08447265625,0.4482421875
-0.89501953125,-0.08984375,0.46826171875
-0.884765625,-0.08984375,0.451171875
-0.89892578125,-0.06982421875,0.4443359375
-0.896484375,-0.0732421875,0.4384765625
-0.89599609375,-0.0810546875,0.44091796875
-0.8857421875,-0.10400390625,0.458984375
-0.88916015625,-0.09521484375,0.4599609375
-0.8984375,-0.0810546875,0.43603515625
-0.8935546875,-0.08935546875,0.44775390625
-0.89501953125,-0.09130859375,0.447265625
-0.89599609375,-0.08203125,0.44482421875
-0.8994140625,-0.07470703125,0.439453125
-0.8857421875,-0.083984375,0.44580078125
-0.89501953125,-0.07470703125,0.44287109375
-0.88916015625,-0.07177734375,0.45166015625
-0.89697265625,-0.07470703125,0.44189453125
-0.890625,-0.08544921875,0.458984375
-0.8779296875,-0.0830078125,0.45556640625
-0.8994140625,-0.0810546875,0.4560546875
-0.88916015625,-0.083984375,0.447265625
-0.89697265625,-0.08984375,0.455078125
-0.8916015625,-0.09423828125,0.44677734375
-0.888671875,-0.09033203125,0.458984375
-0.89453125,-0.08056640625,0.45166015625
-0.88916015625,-0.083984375,0.4521484375
-0.89404296875,-0.07275390625,0.4453125
-0.8935546875,-0.0927734375,0.46142578125
-0.88427734375,-0.0908203125,0.44775390625
-0.8974609375,-0.07177734375,0.4453125
-0.896484375,-0.08837890625,0.458984375
-0.8828125,-0.08349609375,0.45458984375
-0.88818359375,-0.07568359375,0.4580078125
-0.8857421875,-0.07666015625,0.45263671875
-0.88623046875,-0.0849609375,0.46533203125
-0.87841796875,-0.09130859375,0.4697265625
-0.89111328125,-0.07958984375,0.44873046875
-0.888671875,-0.0947265625,0.46630859375
-0.88720703125,-0.08544921875,0.45751953125
-0.88330078125,-0.09619140625,0.46728515625
-0.88330078125,-0.0849609375,0.4599609375
-0.88623046875,-0.10791015625,0.47412109375
-0.8798828125,-0.08056640625,0.45263671875
-0.89013671875,-0.08349609375,0.46630859375
-0.87841796875,-0.08740234375,0.44873046875
-0.88720703125,-0.08984375,0.46142578125
-0.88916015625,-0.06298828125,0.453125
-0.88427734375,-0.0712890625,0.46142578125
-0.896484375,-0.064453125,0.44970703125
-0.8935546875,-0.07421875,0.4453125
-0.88134765625,-0.10205078125,0.47119140625
-0.88818359375,-0.0859375,0.45751953125
-0.90234375,-0.04296875,0.4375
-0.87939453125,-0.09326171875,0.46337890625
-0.87353515625,-0.1044921875,0.47265625
-0.8876953125,-0.08642578125,0.46923828125
-0.888671875,-0.08154296875,0.4609375
-0.89208984375,-0.080078125,0.46826171875
-0.8974609375,-0.06787109375,0.44140625
-0.87548828125,-0.0947265625,0.46728515625
-0.89501953125,-0.08154296875,0.46044921875
-0.892578125,-0.05859375,0.43017578125
-0.8984375,-0.07763671875,0.4501953125
-0.87451171875,-0.09423828125,0.46337890625
-0.85498046875,-0.1357421875,0.51318359375
-0.87646484375,-0.0927734375,0.48095703125
-0.93701171875,0.005859375,0.38427734375
-0.91552734375,-0.01513671875,0.400390625
-0.86181640625,-0.107421875,0.4814453125
-0.845703125,-0.1533203125,0.5205078125
-0.86767578125,-0.0908203125,0.4990234375
-0.88623046875,-0.0263671875,0.4697265625
-0.87744140625,-0.068359375,0.486328125
-0.84912109375,-0.12109375,0.51611328125
-0.837890625,-0.14599609375,0.53515625
-0.85205078125,-0.1064453125,0.51806640625
-0.8759765625,-0.04345703125,0.4912109375
-0.88134765625,-0.0341796875,0.4755859375
-0.85888671875,-0.072265625,0.498046875
-0.84423828125,-0.142578125,0.5234375
-0.83203125,-0.1279296875,0.509765625
-0.857421875,-0.07421875,0.5029296875
-0.86328125,-0.04248046875,0.4990234375
-0.8525390625,-0.0849609375,0.5048828125
-0.83349609375,-0.12158203125,0.5380859375
-0.82470703125,-0.1435546875,0.53955078125
-0.82568359375,-0.119140625,0.53759765625
-0.82666015625,-0.07958984375,0.537109375
-0.82568359375,-0.078125,0.5478515625
-0.80908203125,-0.10986328125,0.5693359375
-0.79736328125,-0.1328125,0.57763671875
-0.78466796875,-0.12939453125,0.57861328125
-0.783203125,-0.1318359375,0.5908203125
-0.77490234375,-0.13330078125,0.60205078125
-0.76123046875,-0.13671875,0.6103515625
-0.74853515625,-0.1357421875,0.62646484375
-0.74169921875,-0.150390625,0.6328125
-0.73291015625,-0.15087890625,0.62451171875
-0.73046875,-0.16455078125,0.646484375
-0.71923828125,-0.17822265625,0.67529296875
-0.69921875,-0.17578125,0.67578125
-0.69384765625,-0.16259765625,0.68310546875
-0.69189453125,-0.173828125,0.689453125
-0.66650390625,-0.1826171875,0.71044921875
-0.65185546875,-0.18798828125,0.720703125
-0.65380859375,-0.185546875,0.72314453125
-0.64990234375,-0.18115234375,0.712890625
-0.63671875,-0.1728515625,0.7177734375
-0.62939453125,-0.18896484375,0.7431640625
-0.62353515625,-0.20458984375,0.75537109375
-0.61083984375,-0.20166015625,0.75927734375
-0.59765625,-0.1904296875,0.75537109375
-0.60302734375,-0.1875,0.75634765625
-0.5947265625,-0.1982421875,0.74853515625
-0.578125,-0.21142578125,0.7763671875
-0.56494140625,-0.2314453125,0.78466796875
-0.564453125,-0.2099609375,0.77294921875
-0.56103515625,-0.2080078125,0.783203125
-0.55224609375,-0.20947265625,0.77880859375
-0.54833984375,-0.22314453125,0.791015625
-0.53759765625,-0.2158203125,0.7900390625
-0.52294921875,-0.20361328125,0.796875
-0.51611328125,-0.2060546875,0.80126953125
-0.5126953125,-0.21044921875,0.8134765625
-0.48583984375,-0.2060546875,0.8076171875
-0.4892578125,-0.19775390625,0.81494140625
-0.4794921875,-0.2119140625,0.83056640625
-0.45556640625,-0.22705078125,0.8330078125
-0.44482421875,-0.2216796875,0.82861328125
-0.4443359375,-0.21435546875,0.83251953125
-0.4375,-0.21533203125,0.84375
-0.421875,-0.2265625,0.8642578125
-0.40380859375,-0.21826171875,0.8564453125
-0.3994140625,-0.2080078125,0.849609375
-0.40087890625,-0.21728515625,0.85888671875
-0.37939453125,-0.23828125,0.8759765625
-0.3564453125,-0.23046875,0.87109375
-0.3525390625,-0.21337890625,0.87841796875
-0.345703125,-0.220703125,0.88623046875
-0.32080078125,-0.2333984375,0.89794921875
-0.3046875,-0.21826171875,0.89892578125
-0.287109375,-0.21826171875,0.9091796875
-0.28076171875,-0.22802734375,0.92041015625
-0.26806640625,-0.22900390625,0.92529296875
-0.255859375,-0.21875,0.9296875
-0.25,-0.2216796875,0.92041015625
-0.2392578125,-0.2314453125,0.9267578125
-0.23388671875,-0.22998046875,0.9130859375
-0.2275390625,-0.24169921875,0.9228515625
-0.2197265625,-0.24951171875,0.923828125
-0.20947265625,-0.2529296875,0.9365234375
-0.20068359375,-0.24853515625,0.93701171875
-0.19580078125,-0.2353515625,0.9287109375
-0.18994140625,-0.23046875,0.92919921875
-0.181640625,-0.248046875,0.94091796875
-0.1708984375,-0.2529296875,0.94384765625
-0.166015625,-0.25927734375,0.94677734375
-0.16259765625,-0.24853515625,0.94287109375
-0.16064453125,-0.24267578125,0.93896484375
-0.15966796875,-0.25048828125,0.9287109375
-0.154296875,-0.2548828125,0.93359375
-0.150390625,-0.26025390625,0.93017578125
-0.15087890625,-0.25390625,0.916015625
-0.14892578125,-0.2451171875,0.91943359375
-0.1455078125,-0.2509765625,0.92041015625
-0.14111328125,-0.25537109375,0.923828125
-0.13427734375,-0.26025390625,0.927734375
-0.1298828125,-0.26025390625,0.92138671875
-0.12353515625,-0.25927734375,0.93017578125
-0.13427734375,-0.26513671875,0.951171875
-0.10986328125,-0.25830078125,0.95068359375
-0.09228515625,-0.26611328125,0.93408203125
-0.09521484375,-0.27294921875,0.939453125
-0.09130859375,-0.27734375,0.94091796875
-0.1015625,-0.26708984375,0.92578125
-0.10595703125,-0.267578125,0.916015625
-0.1044921875,-0.28076171875,0.92529296875
-0.1005859375,-0.296875,0.93212890625
-0.091796875,-0.29833984375,0.92041015625
-0.095703125,-0.29296875,0.919921875
