29798766315,-0.313659667969,0.0240478515625,-0.155151367188,0.936462402344
29798787609,-0.314025878906,0.0233154296875,-0.155639648438,0.936279296875
29798802625,-0.314636230469,0.025390625,-0.155517578125,0.93603515625
29798825206,-0.317504882812,0.0325927734375,-0.153015136719,0.935241699219
29798848870,-0.318664550781,0.0347900390625,-0.152221679688,0.934936523438
29798863868,-0.321594238281,0.0379638671875,-0.151000976562,0.933959960938
29798885157,-0.318420410156,0.0311279296875,-0.153381347656,0.934936523438
29798908919,-0.313720703125,0.0237426757812,-0.156005859375,0.936279296875
29798954589,-0.314147949219,0.0264282226562,-0.155151367188,0.936218261719
29798956677,-0.3154296875,0.0286254882812,-0.154357910156,0.935852050781
29798968840,-0.31787109375,0.031005859375,-0.153381347656,0.935119628906
29798986607,-0.317504882812,0.0304565429688,-0.153564453125,0.935241699219
29799006590,-0.317443847656,0.0307006835938,-0.154541015625,0.935119628906
29799037047,-0.317260742188,0.0304565429688,-0.154418945312,0.935180664062
29799080147,-0.317260742188,0.0303955078125,-0.154479980469,0.935180664062
29799090098,-0.317260742188,0.0303955078125,-0.154479980469,0.935180664062
29799090819,-0.317199707031,0.0303955078125,-0.154479980469,0.935180664062
29799103835,-0.316772460938,0.03564453125,-0.15380859375,0.935241699219
29799125003,-0.316528320312,0.0307006835938,-0.155639648438,0.935241699219
29799147501,-0.31494140625,0.0258178710938,-0.157348632812,0.935607910156
29799165314,-0.310302734375,0.0171508789062,-0.160339355469,0.936828613281
29799184977,-0.309692382812,0.0164794921875,-0.160583496094,0.93701171875
29799207366,-0.313049316406,0.0234985351562,-0.158264160156,0.936157226562
29799225271,-0.314331054688,0.025390625,-0.157653808594,0.935791015625
29799244855,-0.314392089844,0.0234985351562,-0.158325195312,0.935668945312
29799267535,-0.309448242188,0.0150756835938,-0.161315917969,0.93701171875
29799285319,-0.307006835938,0.0125122070312,-0.162414550781,0.937622070312
29799304971,-0.30810546875,0.0158081054688,-0.162170410156,0.937255859375
29799327473,-0.308044433594,0.0156860351562,-0.161865234375,0.937316894531
29799345262,-0.30810546875,0.0158081054688,-0.161865234375,0.937316894531
29799364963,-0.308532714844,0.0162963867188,-0.161804199219,0.937194824219
29799387448,-0.30908203125,0.01708984375,-0.161743164062,0.93701171875
29799405293,-0.309814453125,0.0179443359375,-0.161804199219,0.936767578125
29799426327,-0.310668945312,0.0189208984375,-0.161682128906,0.936462402344
29799442797,-0.311462402344,0.0199584960938,-0.161376953125,0.936218261719
29799465243,-0.312561035156,0.0213012695312,-0.16064453125,0.935974121094
29799484998,-0.314575195312,0.0228881835938,-0.159912109375,0.935363769531
29799502808,-0.317138671875,0.0244140625,-0.159606933594,0.934509277344
29799525290,-0.319519042969,0.0263061523438,-0.159301757812,0.933715820312
29799546297,-0.321228027344,0.0286865234375,-0.158935546875,0.93310546875
29799562747,-0.322998046875,0.0314331054688,-0.158508300781,0.932495117188
29799585249,-0.326110839844,0.0344848632812,-0.158142089844,0.931335449219
29799606293,-0.329467773438,0.0382690429688,-0.157775878906,0.930053710938
29799627482,-0.332458496094,0.0426635742188,-0.1572265625,0.928894042969
29799645249,-0.335632324219,0.0474243164062,-0.156127929688,0.927734375
29799666322,-0.337707519531,0.0518798828125,-0.154968261719,0.926940917969
29799687445,-0.337951660156,0.0559692382812,-0.154052734375,0.9267578125
29799705240,-0.3388671875,0.0606689453125,-0.152954101562,0.926330566406
29799726244,-0.340942382812,0.0660400390625,-0.151428222656,0.925415039062
29799747417,-0.343078613281,0.0718994140625,-0.14990234375,0.924438476562
29799765220,-0.3447265625,0.07861328125,-0.148010253906,0.923583984375
29799786289,-0.346740722656,0.0862426757812,-0.145629882812,0.922546386719
29799807511,-0.348876953125,0.094482421875,-0.14306640625,0.921325683594
29799825312,-0.350524902344,0.103393554688,-0.140380859375,0.920166015625
29799845555,-0.350463867188,0.114074707031,-0.136657714844,0.919494628906
29799868184,-0.347778320312,0.124084472656,-0.133117675781,0.919738769531
29799884443,-0.342529296875,0.133422851562,-0.130920410156,0.920715332031
29799905644,-0.33544921875,0.144287109375,-0.127990722656,0.922058105469
29799928106,-0.329895019531,0.155334472656,-0.12451171875,0.922729492188
29799944484,-0.326721191406,0.166259765625,-0.120971679688,0.922485351562
29799966940,-0.324157714844,0.177490234375,-0.116943359375,0.921813964844
29799988088,-0.320983886719,0.189025878906,-0.112487792969,0.921203613281
29800004424,-0.317565917969,0.200927734375,-0.107604980469,0.92041015625
29800026994,-0.314208984375,0.213012695312,-0.101867675781,0.919494628906
29800041292,-0.311950683594,0.224731445312,-0.0952758789062,0.918212890625
29800070531,-0.308959960938,0.236572265625,-0.0882568359375,0.916931152344
29800087404,-0.305725097656,0.248596191406,-0.0814208984375,0.915466308594
29800109488,-0.302307128906,0.260192871094,-0.0748291015625,0.913940429688
29800130607,-0.298522949219,0.271301269531,-0.0680541992188,0.912475585938
29800147448,-0.294189453125,0.282470703125,-0.0615844726562,0.910949707031
29800169421,-0.288818359375,0.293273925781,-0.0553588867188,0.90966796875
29800190681,-0.283020019531,0.303100585938,-0.0491943359375,0.908569335938
29800206951,-0.278137207031,0.310974121094,-0.0425415039062,0.907775878906
29800229465,-0.27197265625,0.318115234375,-0.0354614257812,0.907470703125
29800250604,-0.264343261719,0.326049804688,-0.0292358398438,0.907165527344
29800266921,-0.256469726562,0.333801269531,-0.0228271484375,0.90673828125
29800289444,-0.249816894531,0.341247558594,-0.0156860351562,0.906005859375
29800310599,-0.2451171875,0.348388671875,-0.00836181640625,0.904663085938
29800326947,-0.241088867188,0.35546875,-0.00152587890625,0.903015136719
29800349472,-0.235961914062,0.362731933594,0.0048828125,0.901489257812
29800370625,-0.230102539062,0.370239257812,0.010986328125,0.89990234375
29800386297,-0.222961425781,0.377746582031,0.0170288085938,0.898498535156
29800409445,-0.215576171875,0.385070800781,0.02294921875,0.897033691406
29800431978,-0.209655761719,0.392822265625,0.0296020507812,0.894897460938
29800453146,-0.204528808594,0.400024414062,0.0369873046875,0.892578125
29800469437,-0.1982421875,0.406799316406,0.0443115234375,0.890625
29800491922,-0.193542480469,0.413818359375,0.0521240234375,0.888000488281
29800506363,-0.189086914062,0.419616699219,0.0603637695312,0.885681152344
29800529450,-0.182983398438,0.4248046875,0.0687866210938,0.883850097656
29800552011,-0.174438476562,0.429748535156,0.0759887695312,0.882629394531
29800566264,-0.165283203125,0.433959960938,0.0826416015625,0.881713867188
29800589399,-0.156921386719,0.436950683594,0.0897827148438,0.881103515625
29800611945,-0.148132324219,0.440185546875,0.0971069335938,0.880249023438
29800626293,-0.14111328125,0.443603515625,0.103942871094,0.87890625
29800649402,-0.134948730469,0.446533203125,0.110412597656,0.877563476562
29800671968,-0.128479003906,0.449340820312,0.115905761719,0.876403808594
29800686291,-0.122619628906,0.452575683594,0.12060546875,0.874938964844
29800709427,-0.116516113281,0.456176757812,0.125,0.873291015625
29800731904,-0.111755371094,0.459716796875,0.12841796875,0.871520996094
29800753074,-0.107116699219,0.4638671875,0.131530761719,0.869445800781
29800769442,-0.103332519531,0.467651367188,0.134704589844,0.867431640625
29800791915,-0.100036621094,0.471252441406,0.137634277344,0.865417480469
29800813097,-0.0970458984375,0.474487304688,0.140014648438,0.863525390625
29800829442,-0.0930786132812,0.477844238281,0.141479492188,0.861877441406
29800851928,-0.0890502929688,0.481750488281,0.142822265625,0.859985351562
29800873151,-0.0869750976562,0.485107421875,0.144287109375,0.858032226562
29800889425,-0.0855102539062,0.487731933594,0.145568847656,0.8564453125
29800911940,-0.0850219726562,0.490112304688,0.147033691406,0.854919433594
29800933155,-0.0838012695312,0.491882324219,0.148010253906,0.853820800781
29800949420,-0.0814208984375,0.49365234375,0.149291992188,0.852844238281
29800971963,-0.0787963867188,0.49658203125,0.150756835938,0.85107421875
29800993182,-0.0765991210938,0.499694824219,0.152221679688,0.849243164062
29801009493,-0.0752563476562,0.502258300781,0.153747558594,0.847534179688
29801031944,-0.0741577148438,0.505249023438,0.155029296875,0.845642089844
29801053082,-0.07275390625,0.507873535156,0.155151367188,0.844177246094
29801069421,-0.0714721679688,0.510070800781,0.154846191406,0.843017578125
29801091944,-0.0712280273438,0.512023925781,0.15478515625,0.841857910156
29801113071,-0.0713500976562,0.513366699219,0.154235839844,0.841125488281
29801129422,-0.0714111328125,0.514465332031,0.153869628906,0.840515136719
29801151969,-0.0712890625,0.515014648438,0.153625488281,0.840209960938
29801173143,-0.0715942382812,0.514953613281,0.153442382812,0.840270996094
29801189449,-0.0718383789062,0.5146484375,0.153076171875,0.840515136719
29801211897,-0.072021484375,0.513977050781,0.15283203125,0.840942382812
29801233054,-0.0722045898438,0.513549804688,0.152526855469,0.841247558594
29801249524,-0.0726318359375,0.513122558594,0.152465820312,0.841491699219
29801271910,-0.072265625,0.513061523438,0.152038574219,0.841613769531
29801293083,-0.0724487304688,0.513427734375,0.151977539062,0.841430664062
29801316974,-0.0730590820312,0.513916015625,0.151550292969,0.841125488281
29801331928,-0.0733032226562,0.514404296875,0.151184082031,0.840881347656
29801353209,-0.0738525390625,0.515014648438,0.150756835938,0.840515136719
29801369426,-0.0742797851562,0.515563964844,0.150268554688,0.840209960938
29801391945,-0.074951171875,0.516052246094,0.150207519531,0.839904785156
29801414454,-0.0753784179688,0.515991210938,0.150512695312,0.83984375
29801429398,-0.0759887695312,0.515930175781,0.15087890625,0.839721679688
29801451943,-0.0774536132812,0.515930175781,0.151550292969,0.839477539062
29801474425,-0.0784912109375,0.515991210938,0.152587890625,0.839172363281
29801488751,-0.0794067382812,0.515686035156,0.153259277344,0.839111328125
29801518123,-0.0802001953125,0.515625,0.153564453125,0.839050292969
29801534449,-0.0807495117188,0.51611328125,0.153869628906,0.838684082031
29801548769,-0.0828247070312,0.5166015625,0.154541015625,0.838012695312
29801571902,-0.084716796875,0.516967773438,0.155029296875,0.837524414062
29801594423,-0.0857543945312,0.517517089844,0.155029296875,0.837036132812
29801608772,-0.0858764648438,0.518310546875,0.154846191406,0.836608886719
29801631942,-0.086181640625,0.518859863281,0.155029296875,0.836181640625
29801654392,-0.0875244140625,0.518859863281,0.155700683594,0.8359375
29801668811,-0.0886840820312,0.518981933594,0.156494140625,0.835571289062
29801691943,-0.0892333984375,0.519348144531,0.156799316406,0.835266113281
29801715072,-0.0889282226562,0.519653320312,0.156616210938,0.835144042969
29801735603,-0.0889282226562,0.519836425781,0.156860351562,0.8349609375
29801751945,-0.0897216796875,0.519897460938,0.157531738281,0.834716796875
29801774419,-0.0905151367188,0.520080566406,0.158325195312,0.834350585938
29801788806,-0.0906372070312,0.520385742188,0.158630371094,0.834106445312
29801811942,-0.0906372070312,0.520812988281,0.15869140625,0.833801269531
29801834442,-0.0914306640625,0.521301269531,0.159362792969,0.833312988281
29801848777,-0.0924072265625,0.521423339844,0.159912109375,0.8330078125
29801871918,-0.0927734375,0.521118164062,0.16015625,0.833129882812
29801894401,-0.0939331054688,0.520935058594,0.160827636719,0.832946777344
29801915629,-0.0956420898438,0.520751953125,0.161682128906,0.832702636719
29801932003,-0.0970458984375,0.520385742188,0.162170410156,0.832702636719
29801954400,-0.0982666015625,0.520141601562,0.162292480469,0.832702636719
29801975615,-0.0989990234375,0.519836425781,0.162292480469,0.832763671875
29801991946,-0.0996704101562,0.51904296875,0.162048339844,0.833251953125
29802014482,-0.101318359375,0.518493652344,0.16259765625,0.833312988281
29802035580,-0.103149414062,0.518615722656,0.163208007812,0.832885742188
29802051925,-0.103637695312,0.518737792969,0.163513183594,0.832702636719
29802074421,-0.103942871094,0.518432617188,0.163513183594,0.832824707031
29802095568,-0.104125976562,0.518371582031,0.163635253906,0.832824707031
29802111929,-0.104858398438,0.517883300781,0.163818359375,0.8330078125
29802134450,-0.104919433594,0.517517089844,0.163696289062,0.833251953125
29802155518,-0.105163574219,0.517211914062,0.163513183594,0.833435058594
29802171917,-0.105163574219,0.517211914062,0.163513183594,0.833435058594
29802194461,-0.105529785156,0.51708984375,0.163635253906,0.833435058594
29802215689,-0.105895996094,0.516662597656,0.163635253906,0.833618164062
29802231917,-0.106384277344,0.516540527344,0.163696289062,0.833618164062
29802254373,-0.106384277344,0.5166015625,0.163696289062,0.833618164062
29802275551,-0.106262207031,0.516479492188,0.16357421875,0.833740234375
29802291932,-0.107055664062,0.516235351562,0.163696289062,0.833740234375
29802314422,-0.108276367188,0.516174316406,0.163940429688,0.833618164062
29802319842,-0.108276367188,0.516174316406,0.163940429688,0.833618164062
29802342436,-0.108215332031,0.515991210938,0.163635253906,0.833801269531
29802357426,-0.108215332031,0.515930175781,0.163635253906,0.833801269531
29802379915,-0.108703613281,0.515808105469,0.163696289062,0.833801269531
29802402290,-0.109497070312,0.515686035156,0.163818359375,0.833740234375
29802417528,-0.109985351562,0.515441894531,0.163635253906,0.833862304688
29802439919,-0.110595703125,0.515197753906,0.163452148438,0.833984375
29802462405,-0.111389160156,0.51513671875,0.163269042969,0.833923339844
29802477403,-0.11181640625,0.515319824219,0.162902832031,0.833862304688
29802499891,-0.111999511719,0.515258789062,0.162536621094,0.833923339844
29802522449,-0.112731933594,0.515014648438,0.162353515625,0.834045410156
29802537496,-0.114074707031,0.514892578125,0.162475585938,0.833923339844
29802559971,-0.114929199219,0.515014648438,0.162658691406,0.833679199219
29802582518,-0.114929199219,0.515075683594,0.162658691406,0.833618164062
29802597419,-0.11474609375,0.515014648438,0.162353515625,0.833740234375
29802627417,-0.115478515625,0.514953613281,0.162414550781,0.833679199219
29802642396,-0.116394042969,0.515014648438,0.162719726562,0.83349609375
29802657249,-0.117004394531,0.514831542969,0.162902832031,0.833435058594
29802680004,-0.117126464844,0.514526367188,0.163024902344,0.833557128906
29802702423,-0.11767578125,0.514343261719,0.163391113281,0.833557128906
29802717427,-0.118591308594,0.513977050781,0.164001464844,0.83349609375
29802740045,-0.119873046875,0.513732910156,0.165100097656,0.833312988281
29802762566,-0.120910644531,0.513732910156,0.165893554688,0.8330078125
29802777464,-0.121643066406,0.514099121094,0.166564941406,0.83251953125
29802799994,-0.122985839844,0.514892578125,0.166931152344,0.831787109375
29802822572,-0.124633789062,0.515991210938,0.167236328125,0.830749511719
29802837423,-0.126831054688,0.517028808594,0.166931152344,0.829833984375
29802859919,-0.12890625,0.517761230469,0.166931152344,0.829040527344
29802882503,-0.130798339844,0.518188476562,0.166870117188,0.828491210938
29802897537,-0.132568359375,0.518127441406,0.166442871094,0.828369140625
29802920085,-0.134521484375,0.517822265625,0.165283203125,0.828491210938
29802942396,-0.136657714844,0.517211914062,0.163330078125,0.828918457031
29802958750,-0.138122558594,0.516235351562,0.160766601562,0.829772949219
29802982681,-0.138793945312,0.515014648438,0.157348632812,0.8310546875
29803002391,-0.139587402344,0.513366699219,0.152893066406,0.832763671875
29803020166,-0.141235351562,0.511169433594,0.148132324219,0.834716796875
29803039792,-0.141967773438,0.508605957031,0.143371582031,0.836975097656
29803062296,-0.144348144531,0.505004882812,0.138549804688,0.839538574219
29803078958,-0.149108886719,0.500244140625,0.133483886719,0.842407226562
29803107483,-0.152648925781,0.495361328125,0.127868652344,0.845520019531
29803122441,-0.1552734375,0.490417480469,0.121704101562,0.848815917969
29803138917,-0.158203125,0.485107421875,0.114990234375,0.852294921875
29803159904,-0.161865234375,0.479187011719,0.107727050781,0.855895996094
29803182313,-0.166809082031,0.47216796875,0.0999755859375,0.859741210938
29803198684,-0.168640136719,0.465393066406,0.091552734375,0.864013671875
29803219913,-0.170043945312,0.458740234375,0.0823364257812,0.868225097656
29803242307,-0.173278808594,0.451354980469,0.0725708007812,0.872314453125
29803258721,-0.177795410156,0.442810058594,0.062744140625,0.876525878906
29803279843,-0.180908203125,0.434204101562,0.0526123046875,0.880859375
29803302467,-0.182983398438,0.425720214844,0.042236328125,0.885131835938
29803320262,-0.185729980469,0.416687011719,0.0316772460938,0.889282226562
29803339787,-0.190002441406,0.407043457031,0.02099609375,0.893127441406
29803362526,-0.193298339844,0.397338867188,0.0103759765625,0.89697265625
29803380195,-0.196594238281,0.387451171875,-0.00018310546875,0.900634765625
29803399941,-0.200439453125,0.377136230469,-0.01025390625,0.904113769531
29803417634,-0.202697753906,0.367065429688,-0.0203857421875,0.907592773438
29803447686,-0.205505371094,0.356994628906,-0.0303955078125,0.910705566406
29803460536,-0.209411621094,0.346862792969,-0.0396728515625,0.913330078125
29803477716,-0.213317871094,0.336608886719,-0.048583984375,0.915832519531
29803500229,-0.217956542969,0.325988769531,-0.0572509765625,0.918090820312
29803519983,-0.222229003906,0.315612792969,-0.0662231445312,0.920104980469
29803537691,-0.226318359375,0.305236816406,-0.0751342773438,0.921875
29803560644,-0.231994628906,0.294067382812,-0.0839233398438,0.92333984375
29803579963,-0.236633300781,0.282592773438,-0.0928344726562,0.924926757812
29803598149,-0.239868164062,0.271118164062,-0.101501464844,0.926635742188
29803620159,-0.243041992188,0.259826660156,-0.109802246094,0.928100585938
29803639919,-0.246704101562,0.248413085938,-0.117858886719,0.929260253906
29803662437,-0.250793457031,0.236755371094,-0.125549316406,0.93017578125
29803680174,-0.255004882812,0.225158691406,-0.132629394531,0.930969238281
29803699955,-0.258972167969,0.213684082031,-0.139099121094,0.931579589844
29803717715,-0.262634277344,0.202331542969,-0.145263671875,0.932189941406
29803740201,-0.265930175781,0.191040039062,-0.151062011719,0.932678222656
29803759898,-0.268432617188,0.180236816406,-0.156555175781,0.933227539062
29803777690,-0.271057128906,0.170043945312,-0.161560058594,0.933532714844
29803800173,-0.272644042969,0.160339355469,-0.165893554688,0.934020996094
29803819921,-0.273498535156,0.151062011719,-0.169982910156,0.9345703125
29803837709,-0.274536132812,0.142456054688,-0.173522949219,0.934997558594
29803860168,-0.275695800781,0.134643554688,-0.176330566406,0.935241699219
29803881217,-0.277221679688,0.12744140625,-0.178649902344,0.935363769531
29803896923,-0.278381347656,0.120422363281,-0.180541992188,0.935607910156
29803919398,-0.2783203125,0.11376953125,-0.182067871094,0.936157226562
29803940521,-0.278015136719,0.107849121094,-0.18310546875,0.936767578125
29803956917,-0.278198242188,0.102478027344,-0.183776855469,0.937194824219
29803979388,-0.278991699219,0.09765625,-0.184143066406,0.937377929688
29804000474,-0.279479980469,0.093017578125,-0.1845703125,0.937622070312
29804016971,-0.279357910156,0.0885009765625,-0.185119628906,0.93798828125
29804039433,-0.27880859375,0.084228515625,-0.185485839844,0.9384765625
29804060626,-0.278503417969,0.0802612304688,-0.185485839844,0.938903808594
29804076952,-0.278137207031,0.076171875,-0.185546875,0.939331054688
29804099401,-0.278015136719,0.0722045898438,-0.185668945312,0.939697265625
29804120437,-0.277770996094,0.068359375,-0.185302734375,0.940124511719
29804136916,-0.277282714844,0.064697265625,-0.184692382812,0.940612792969
29804159370,-0.276977539062,0.0609741210938,-0.184265136719,0.941040039062
29804180451,-0.277587890625,0.0587768554688,-0.183715820312,0.941101074219
29804196264,-0.275146484375,0.0553588867188,-0.184448242188,0.94189453125
29804219351,-0.27490234375,0.0530395507812,-0.184387207031,0.942138671875
29804241875,-0.276000976562,0.05078125,-0.184509277344,0.94189453125
29804256226,-0.2783203125,0.0489501953125,-0.184448242188,0.941345214844
29804279405,-0.280883789062,0.0468139648438,-0.184875488281,0.940612792969
29804301924,-0.283813476562,0.044677734375,-0.185668945312,0.939636230469
29804316220,-0.287109375,0.0427856445312,-0.186401367188,0.938598632812
29804339441,-0.290222167969,0.0407104492188,-0.18701171875,0.937622070312
29804361983,-0.293823242188,0.0387573242188,-0.187683105469,0.936401367188
29804376250,-0.297973632812,0.0362548828125,-0.188720703125,0.93505859375
29804399390,-0.301574707031,0.0339965820312,-0.189636230469,0.933776855469
29804421929,-0.304138183594,0.0322265625,-0.190368652344,0.932861328125
29804443093,-0.307006835938,0.0310668945312,-0.190246582031,0.931945800781
29804459425,-0.308715820312,0.0303344726562,-0.189636230469,0.931518554688
29804481917,-0.309326171875,0.0300903320312,-0.188537597656,0.931579589844
29804496199,-0.308044433594,0.0296020507812,-0.1875,0.932250976562
29804519337,-0.306274414062,0.0289306640625,-0.186889648438,0.932922363281
29804541866,-0.306579589844,0.0283813476562,-0.186218261719,0.932983398438
29804570523,-0.307739257812,0.027587890625,-0.185485839844,0.932800292969
29804579361,-0.308654785156,0.0267333984375,-0.184631347656,0.932678222656
29804601909,-0.308471679688,0.02587890625,-0.183715820312,0.932983398438
29804616287,-0.308532714844,0.0256958007812,-0.1826171875,0.933166503906
29804646965,-0.309875488281,0.0256958007812,-0.181457519531,0.932922363281
29804661866,-0.311401367188,0.025634765625,-0.180297851562,0.9326171875
29804676248,-0.311828613281,0.0252685546875,-0.179504394531,0.932678222656
29804699394,-0.312377929688,0.0250854492188,-0.178466796875,0.932678222656
29804721913,-0.313415527344,0.0247802734375,-0.177429199219,0.932556152344
29804743242,-0.31396484375,0.0245361328125,-0.176391601562,0.932556152344
29804759391,-0.314208984375,0.0242919921875,-0.175476074219,0.932678222656
29804781908,-0.313659667969,0.02392578125,-0.174682617188,0.933044433594
29804803086,-0.313171386719,0.0234375,-0.174072265625,0.933288574219
