28639536025,2,1,0,-2,-2,-2,0,-2
28639536025,1,3,5,4,1,1,1,0
28639541577,-1,-2,-3,-5,-2,-1,3,-2
28639541577,-1,0,-1,-1,0,-1,-1,-1
28639542221,-2,-3,-3,-5,-1,-1,2,-1
28639542221,0,-1,-1,1,0,1,0,-1
28639543915,0,0,4,0,1,-1,1,-2
28639543915,-1,-5,-1,-2,0,1,-2,-3
28639554427,-1,-2,2,-2,-1,-2,-4,-1
28639554427,-1,-4,-4,-4,-1,-1,-1,0
28639566060,1,-2,-4,-1,-1,0,-3,0
28639566060,-6,-3,-2,-3,-2,-1,0,-2
28639569514,5,-1,-3,1,-1,-1,0,2
28639569514,-1,-3,-3,-2,-1,1,-2,-2
28639584599,0,-2,1,2,2,2,1,0
28639584599,-2,-2,-4,-4,-5,-3,-4,-2
28639593222,-4,1,2,8,1,-1,1,-2
28639593222,-1,0,1,-1,-1,-2,0,-1
28639600967,-3,-5,-5,-3,-2,0,-1,-1
28639600967,4,4,9,0,2,2,-1,0
28639614740,-3,-4,0,-1,-1,-1,-2,-3
28639614740,0,0,0,-3,-1,-2,-3,-2
28639624584,-5,-3,-2,0,-3,-3,-2,-2
28639624584,1,2,0,1,0,-2,-1,-1
28639653249,0,-1,-1,-1,-2,-4,1,-2
28639653249,2,-1,-3,0,-1,-2,1,1
28639661419,-1,-4,-2,-1,-3,-2,0,-1
28639661419,-1,0,-3,-1,-1,0,0,1
28639662114,0,0,-4,-5,-1,1,-1,0
28639662114,0,1,6,6,-1,-1,1,-1
28639663704,-1,6,2,0,-1,-2,0,0
28639663704,0,-4,-5,-2,0,0,-1,-3
28639674470,2,3,3,1,1,0,0,1
28639674470,-1,-1,-2,-6,-2,-2,-1,-1
28639683242,-2,-4,-2,-4,-1,-1,-1,-1
28639683242,1,-1,0,-2,-2,-1,1,0
28639689291,0,-1,-2,0,-3,0,-1,-1
28639689291,-2,-1,-3,-1,1,-1,-2,-2
28639704252,-3,1,2,0,1,0,-3,-1
28639704252,-2,0,2,-2,2,2,-1,0
28639711857,-2,-3,-1,-2,-2,-3,3,0
28639711857,-1,0,1,4,1,0,-7,0
28639720759,-2,-2,-2,0,1,2,0,-1
28639720759,-4,-1,1,1,0,-3,-6,-4
28639734354,2,0,3,-1,0,-1,-1,0
28639734354,-1,-1,-2,-4,2,0,0,-1
28639743234,1,-1,0,0,0,0,-1,0
28639743234,1,0,3,0,-1,0,0,1
28639749368,-3,-3,-2,-1,0,1,1,1
28639749368,-1,-5,-4,-6,-3,-4,-1,-1
28639764271,3,2,9,3,4,1,1,1
28639764271,-1,-2,-2,-1,-2,-1,0,-3
28639771739,0,1,-1,2,1,-2,-4,-2
28639771739,-2,-4,-4,-4,-3,0,-1,-1
28639780732,-3,-5,-6,-2,-2,-1,2,-1
28639780732,1,-2,-1,-1,1,-2,-2,-1
28639794360,-8,-4,3,1,3,2,2,-2
28639794360,1,-5,-3,1,-1,1,0,1
28639803277,-1,-1,0,-2,-4,-2,0,0
28639803277,1,-3,-2,-2,-5,0,3,0
28639809375,-1,-6,-4,-2,0,-2,-4,-4
28639809375,-3,-3,1,2,1,2,1,-1
28639824375,-2,-5,-2,-2,1,-1,-3,-2
28639824375,-3,-6,-4,-2,-1,-1,0,-3
28639831941,3,1,-2,-2,-3,-1,0,0
28639831941,1,2,2,1,-1,-2,-1,-1
28639840722,0,-1,-2,0,-2,-2,0,-1
28639840722,-4,-5,0,-2,0,1,0,-1
28639854288,-3,-5,0,-2,-1,-3,0,-2
28639854288,0,5,2,-2,1,1,1,-4
28639863294,-4,-8,-7,-2,-2,-3,-2,-2
28639863294,1,6,9,2,0,-1,-2,3
28639869316,0,-3,-2,-1,-3,0,-3,-1
28639869316,-2,-3,-4,2,3,-1,2,-1
28639884430,1,0,0,2,-1,0,-3,-1
28639884430,-3,-7,-6,0,-4,-2,-2,-2
28639891845,0,0,0,-2,0,0,1,0
28639891845,-2,0,1,-2,-3,0,-1,-2
28639906730,-4,-1,-2,-3,0,0,0,0
28639906730,-1,2,-1,0,-2,-2,-1,0
28639914297,-3,-4,-2,-3,-3,-1,-1,-1
28639914297,-3,-3,-2,-3,-1,-2,-3,-1
28639923233,1,2,1,-3,-1,-1,-1,0
28639923233,1,-3,-2,-1,1,0,-2,-2
28639929317,-2,1,-1,1,-2,-2,-1,-1
28639929317,-1,-3,-2,1,0,0,1,-2
28639944347,-2,-5,-6,0,-3,0,0,-3
28639944347,-1,2,3,2,-2,0,0,0
28639951944,0,-1,-1,-4,-3,-2,-2,-2
28639951944,-3,-5,-5,-3,0,-1,-1,1
28639966919,4,6,9,1,0,-1,-2,-2
28639966919,-1,-2,-4,-4,-1,-3,-4,-1
28639974378,0,1,-1,0,-1,2,-2,0
28639974378,-1,1,1,-1,-3,-2,-1,0
28639983227,-1,-4,-3,-2,-1,-3,-2,0
28639983227,-3,-6,-4,0,-3,-4,1,0
28639997553,-1,2,-1,0,1,-2,-2,-2
28639997553,-2,-9,-6,0,0,-1,-2,-4
28640004267,0,-6,0,-3,-1,0,1,-1
28640004267,6,9,4,0,-1,-2,0,0
28640011874,-1,-1,-3,-2,1,0,2,1
28640011874,0,1,-2,2,-1,-1,-1,-1
28640026922,-2,3,2,-2,-1,-4,0,0
28640026922,-2,-3,-4,-1,1,1,1,-2
28640034370,-1,-4,1,1,1,0,-1,-2
28640034370,0,3,-1,2,0,0,-1,1
28640043237,-1,3,4,2,-2,-1,-1,1
28640043237,-6,-2,-3,-5,-5,-2,1,-1
28640049329,-1,-1,0,2,2,-1,-2,-1
28640049329,-1,-1,2,-2,-1,-2,29,-2
28640064387,0,-6,-4,-3,0,0,-1,-2
28640064387,-2,-3,-4,-3,0,0,-12,1
28640071764,-2,1,2,-2,-3,0,-22,0
28640071764,1,-2,-6,-6,-3,1,-13,-1
28640086871,3,7,6,2,0,3,2,0
28640086871,-1,-1,-1,-2,0,-3,-7,0
28640094383,-1,-5,-4,-1,-3,-2,0,-1
28640094383,0,1,1,-1,0,-3,-6,-2
28640103296,-5,-8,-11,-3,0,-3,0,-3
28640103296,1,1,5,1,3,0,0,-2
28640109387,1,1,7,3,-2,-3,5,-2
28640109387,0,-1,2,-2,-1,0,0,0
28640124347,-2,-3,-4,-4,-3,-4,-7,-3
28640124347,-2,-6,-10,-3,0,-2,1,-2
28640131841,-2,-7,-7,-6,-3,-2,5,0
28640131841,0,6,7,7,3,2,-3,-1
28640146886,-1,1,-3,1,1,1,-1,-1
28640146886,-3,1,1,3,-1,-1,7,-2
28640154269,-2,0,-3,-4,-2,-2,5,-3
28640154269,-1,-4,-3,-5,-6,-4,-3,1
28640163242,-2,-1,-2,-3,-1,-1,0,-1
28640163242,-3,-4,1,5,4,3,2,1
28640169224,-2,-1,2,2,-2,-4,-4,-1
28640169224,0,-2,-8,-1,5,4,-1,0
28640184381,4,7,10,-2,-4,-3,-3,0
28640184381,-1,-4,0,-3,-5,-3,-3,-2
28640191859,-1,-3,-4,-2,0,1,-5,-1
28640191859,-2,-2,3,2,-4,-2,-7,-2
28640206782,-3,-7,-7,-3,-1,0,0,-1
28640206782,-2,1,-9,-8,-3,-1,-2,-3
28640214457,-3,0,3,6,4,1,1,-1
28640214457,-5,-6,-10,-13,-6,-5,-1,-4
28640223261,-1,-7,-7,-1,-8,-2,1,0
28640223261,1,6,14,2,1,2,4,0
28640237473,8,11,17,17,11,7,3,4
28640237473,3,7,7,5,1,-1,2,1
28640244327,-2,-5,-14,-2,0,-2,0,-3
28640244327,-3,-2,-13,-6,-6,-7,-3,-2
28640251847,-3,-5,-12,-9,-6,-2,0,-5
28640251847,-5,-6,-13,-3,-2,1,-1,-3
28640274925,1,6,1,4,2,-2,-2,-1
28640274925,1,9,4,5,2,1,1,0
28640275641,-1,4,1,-3,-2,-4,-3,-1
28640275641,-3,4,-3,-3,-3,-3,-3,-1
28640283245,-1,0,-4,-2,-1,-1,-3,-3
28640283245,3,-4,8,3,1,3,-3,0
28640297465,0,-9,-1,-4,-3,-3,-1,-1
28640297465,0,-11,12,4,1,0,-2,-1
28640304231,-1,-7,6,1,1,1,0,-1
28640304231,0,-10,-2,-1,-1,-2,-2,0
28640311798,-3,-19,-19,-8,-4,-4,-5,-2
28640311798,1,-7,-12,0,-2,-2,-2,2
28640326858,2,7,5,1,-4,-2,-2,1
28640326858,3,0,-10,-6,-1,2,2,0
28640334419,10,19,9,11,5,5,3,-1
28640334419,6,-8,-8,-3,-1,-2,-2,-3
28640343263,4,-15,2,0,-3,-1,-1,-2
28640343263,1,-9,6,5,-6,-8,-3,-2
28640357500,1,0,-4,-6,-5,-3,-2,-1
28640357500,1,6,3,1,2,0,1,-1
28640364345,-7,15,3,-4,3,-1,-3,-1
28640364345,-13,-6,-1,-4,0,-2,-2,1
28640371744,-12,-4,-3,-5,-3,-1,0,0
28640371744,-8,1,3,3,-1,-2,-3,0
28640386782,-5,-9,5,-1,4,3,4,2
28640386782,-3,9,-4,-1,1,2,0,-1
28640394394,-1,1,-5,-6,-3,-4,-2,-1
28640394394,-1,-2,0,-3,1,1,-1,0
28640403211,-6,-5,-3,2,0,-2,-1,-2
28640403211,-5,0,0,1,0,0,-4,-4
28640417529,-4,1,-4,-9,-2,1,0,-2
28640417529,3,11,8,3,-1,-2,0,-1
28640424351,7,9,6,1,3,1,2,1
28640424351,3,-5,-6,-7,-6,-6,-1,-1
28640431857,1,-2,6,-1,-1,0,0,0
28640431857,-2,-8,-1,-1,-3,-2,-2,-3
28640446852,-5,-12,-6,-1,-1,-1,-3,-2
28640446852,-5,-17,-12,-5,-3,-1,-2,-2
28640454301,0,9,16,5,4,1,4,3
28640454301,-9,-4,-6,-7,-2,-2,-2,-3
28640463246,-5,-2,9,7,-2,-4,-1,-1
28640463246,0,19,2,-2,5,2,3,1
28640477601,-4,3,0,2,0,-4,-2,-2
28640477601,-1,12,4,2,1,1,2,-1
28640484428,-2,4,-13,-10,-6,-4,0,-3
28640484428,-1,-4,-2,0,1,-1,-2,-1
28640491879,-2,-2,0,2,1,-1,0,-2
28640491879,1,-5,-3,-3,-1,-1,-3,-1
28640506820,-6,-13,-14,-7,-5,-3,-4,-3
28640506820,8,18,26,6,3,4,2,6
28640514329,0,-5,-8,-1,-1,1,-2,0
28640514329,-3,-1,-5,-4,-4,-3,-4,-2
28640523259,-1,-3,-3,1,-2,-3,-1,-1
28640523259,3,0,0,2,-1,1,1,-1
28640537449,-1,-2,-1,0,3,2,0,0
28640537449,-2,-8,2,0,-2,-2,-1,-1
28640544266,0,-8,-1,-2,-2,0,-2,-4
28640544266,-4,-4,-8,-5,-4,-7,-3,-5
28640551816,-4,-7,-9,-7,-4,0,2,-2
28640551816,4,3,13,6,2,2,1,1
28640566829,4,5,8,2,2,4,2,4
28640566829,-5,-10,-10,-8,-7,-6,-5,-4
28640574382,5,2,1,2,3,3,2,2
28640574382,1,1,-1,1,0,-1,-1,-2
28640583231,2,-6,-5,-4,-2,-4,-1,-1
28640583231,-1,-1,-1,1,-2,-1,-3,-1
28640597567,-1,-1,-2,0,2,-2,-2,-2
28640597567,-1,7,-1,-7,-1,-1,0,1
28640604275,-2,5,1,5,1,2,0,1
28640604275,-4,-1,-2,-2,1,0,-2,-3
28640611820,1,2,0,3,-1,-3,-3,0
28640611820,-2,-1,-1,0,-2,-2,-1,0
28640626892,0,8,3,0,-2,3,1,1
28640626892,-3,-13,-17,-12,-7,-4,-1,0
28640634337,-3,0,4,1,-1,-1,-1,-4
28640634337,4,2,3,-1,-3,-1,3,2
28640649357,-2,-4,-9,-4,2,-3,-6,-2
28640649357,-2,-3,2,2,-2,-1,-2,-2
28640657518,-2,-6,-1,-6,-13,-5,-1,-1
28640657518,1,-2,-1,12,9,6,4,2
28640672563,3,4,7,-2,0,-3,-1,-3
28640672563,0,8,11,1,2,-1,-2,-2
28640673216,-1,-10,-22,-4,-1,0,1,1
28640673216,-7,-1,4,-5,-8,-5,-3,-4
28640686795,3,5,-3,0,-1,2,2,2
28640686795,0,0,1,5,5,2,1,1
28640694483,-6,-7,-6,-5,0,-2,-6,-6
28640694483,-11,-23,-24,-16,-14,-10,-6,-5
28640709420,8,17,17,5,-1,5,4,9
28640709420,-1,-1,-1,0,5,3,-2,-3
28640717492,3,3,3,-3,-4,-3,-3,0
28640717492,-3,-7,-8,-1,-2,-2,-2,-2
28640732499,-3,-7,-5,1,7,0,-1,-2
28640732499,0,-4,-11,-4,-6,-5,-2,0
28640733197,0,1,7,5,2,2,0,1
28640733197,-1,-2,-2,2,6,5,0,-1
28640754950,-1,-3,-6,-7,-8,-6,-3,-4
28640754950,-5,-11,-4,3,4,5,6,-1
28640755687,0,-3,-5,0,0,0,0,0
28640755687,-3,-4,2,-1,-2,-2,3,-2
28640769281,-2,-10,-17,-6,-5,-5,-5,-2
28640769281,2,14,14,1,-2,-2,0,0
28640777400,-8,-11,-12,-3,5,4,2,-4
28640777400,7,15,11,11,9,5,3,4
28640792425,-3,3,5,0,-1,-1,1,-3
28640792425,2,-6,-3,-2,-8,-1,-2,0
28640793152,5,10,10,2,-4,-7,-13,-5
28640793152,-3,-17,-15,-10,-7,0,-1,1
28640806744,-1,1,11,0,3,1,0,-1
28640806744,-1,-4,-4,-2,1,-3,-3,-3
28640814374,-8,-2,4,-4,-2,2,4,-3
28640814374,0,-3,-11,0,4,0,-3,-2
28640829335,-3,9,15,3,3,3,0,-1
28640829335,11,15,8,5,2,2,3,6
28640837447,-3,-2,0,1,-3,-3,2,0
28640837447,3,11,5,-6,-11,-7,-6,-1
28640852478,-10,-14,-19,-2,7,4,3,0
28640852478,-7,-3,0,1,-2,1,-2,-3
28640853227,0,0,-3,0,4,0,0,-1
28640853227,3,6,2,-2,-3,-4,-1,1
28640866828,1,-5,-8,-4,-1,-4,-6,-2
28640866828,-8,-4,-3,-2,-5,-3,-3,-3
28640874357,8,10,4,2,0,1,0,3
28640874357,-10,-20,-25,-11,-4,-3,-4,-7
28640889356,-5,-2,1,-11,-11,-5,-3,-4
28640889356,4,-2,-1,2,2,4,2,3
28640897556,1,8,13,3,5,0,-1,-2
28640897556,-4,0,9,0,-6,-6,-1,-4
28640912511,7,0,0,-8,-10,-6,-4,-1
28640912511,-2,-10,-14,-13,-10,-8,-2,-2
28640913158,-4,-10,-8,5,1,0,0,2
28640913158,8,27,36,18,14,8,3,5
28640926826,0,-2,-10,-2,-1,-2,-3,-1
28640926826,-4,-3,-4,2,3,2,3,1
28640934346,-6,-6,-7,-8,-5,-2,-3,-5
28640934346,1,-6,-5,-3,1,-2,-1,-2
28640949459,-2,-15,-14,-2,-3,-2,-1,-1
28640949459,5,5,3,-3,-3,-3,2,2
28640957557,1,0,4,3,4,1,-2,1
28640957557,-3,-4,-4,-7,-7,-5,-3,-2
28640972498,-5,-1,-4,-5,-6,-4,-3,-4
28640972498,-2,-4,-7,-4,-10,-6,-4,-3
28640973169,4,-2,-12,-16,-11,-3,3,2
28640973169,0,3,5,8,12,5,-3,-2
28640986760,-5,-4,7,13,13,8,5,0
28640986760,-1,6,9,4,5,0,-4,-4
28640994464,2,4,2,-4,-4,-4,-6,-4
28640994464,8,2,-2,-1,-3,-3,-4,3
28641009320,-1,0,-8,-6,-2,-3,-1,0
28641009320,-3,-3,4,8,8,7,3,-1
28641017501,-4,-5,-6,-1,-4,-2,-3,-1
28641017501,-3,-6,-9,0,3,0,-3,-1
28641032505,2,12,13,1,0,-2,0,0
28641032505,-6,-7,-8,-8,-2,-2,-3,-2
28641033181,4,1,5,7,10,4,2,3
28641033181,-8,-10,-9,-7,-4,0,-1,-3
28641046852,7,-2,4,9,1,5,6,4
28641046852,4,10,7,4,3,2,4,2
28641054236,-6,-3,-3,-5,-5,-4,0,0
28641054236,-2,-7,-6,1,-1,1,5,-1
28641069358,-3,-3,1,2,3,3,0,0
28641069358,-4,-9,-6,2,7,3,-4,-4
28641077628,-2,-2,-1,-2,-5,0,0,-1
28641077628,-2,4,5,0,-2,-1,1,-1
28641092520,-3,0,-4,-6,-1,-3,-5,-5
28641092520,2,6,2,-6,-4,-6,-5,2
28641093197,1,3,2,8,5,2,4,3
28641093197,5,12,10,3,4,1,-4,0
28641106758,-10,-7,-5,-7,-10,-4,-2,-3
28641106758,5,8,6,5,0,0,1,2
28641114396,-3,-4,-7,-4,0,-4,-4,-4
28641114396,-8,-7,-10,-1,-6,-7,0,-4
28641129294,2,2,5,2,5,3,0,0
28641129294,-5,-11,-9,1,2,0,0,-2
28641137441,-4,-5,-1,-3,-8,-6,2,-1
28641137441,12,10,3,0,-5,-2,-2,3
28641152474,-7,-12,-10,-5,-4,-1,2,-2
28641152474,3,4,4,0,1,-1,-7,-4
28641153192,-5,-13,-15,-1,-2,-6,-5,-7
28641153192,4,6,14,3,3,5,2,2
28641166797,2,4,1,0,0,-5,-7,-2
28641166797,-4,-10,-8,-9,-6,5,7,-2
28641174325,0,2,-3,-1,-4,-5,-5,1
28641174325,-10,-7,-3,-8,-7,-8,-2,-5
28641189333,-10,0,-1,2,1,-4,-12,-16
28641189333,1,2,-6,0,2,2,-2,-2
28641197538,4,5,6,-5,-2,2,3,5
28641197538,-10,-26,-14,-6,-2,2,6,1
28641211834,2,4,0,-2,-3,-2,-3,-5
28641211834,0,-4,1,1,-2,-1,4,10
28641219942,7,16,9,2,-2,0,-3,0
28641219942,-2,0,-7,-7,-5,-4,1,0
28641226819,-3,-3,-3,4,3,-2,1,-2
28641226819,-11,-7,-3,1,3,-3,1,-5
28641234341,8,8,5,7,1,5,4,3
28641234341,-4,-6,-1,2,1,0,6,2
28641249390,18,17,3,-7,-7,-9,-9,11
28641249390,-4,10,10,6,2,-3,-5,-6
28641257538,-10,-11,-4,-3,3,-1,-1,-5
28641257538,-7,-7,-8,-6,-5,-5,-4,-8
28641271734,12,12,14,8,4,7,8,11
28641271734,-3,-23,-15,-7,-6,-4,-8,-6
28641279918,5,-13,-4,-1,-1,2,10,15
28641279918,-2,1,12,7,-2,-2,-7,-3
28641286724,4,2,-3,-4,-2,-3,1,3
28641286724,-1,16,11,-3,-8,-5,1,-1
28641294484,-8,-1,-8,1,8,4,1,-4
28641294484,3,12,4,0,1,-3,-4,3
28641310729,-11,-2,-10,-9,-8,-5,0,-3
28641310729,-2,-7,-12,-3,2,2,-1,0
28641317548,2,15,10,-3,-7,-6,-7,-10
28641317548,4,1,-8,-3,-2,1,7,13
28641331743,1,1,2,1,0,1,-7,-7
28641331743,0,-1,-5,-5,-3,2,3,1
28641340096,1,1,8,8,2,-3,-3,-2
28641340096,-5,-11,-15,-9,1,1,1,-4
28641346822,-5,-7,6,3,-2,0,4,-1
28641346822,7,13,12,6,8,-3,-12,2
28641354236,-7,-13,-3,-1,2,2,6,-7
28641354236,7,-5,0,-5,-7,-2,-1,-1
28641369386,-11,-27,-11,0,4,2,5,1
28641369386,3,12,15,1,-2,-6,-12,-8
28641377540,1,4,-3,-3,-4,-5,-8,1
28641377540,-7,5,0,3,3,2,-9,-10
28641391826,-2,1,-1,-8,-7,-5,-4,9
28641391826,-7,-15,-19,-3,0,7,20,3
28641400066,12,25,24,3,2,2,-1,8
28641400066,-6,-3,2,3,2,-1,0,-5
28641414997,-4,-2,-6,-7,-2,-3,-10,-7
28641414997,-2,-3,-3,-2,-2,-2,-2,0
28641415663,-1,-7,-1,3,0,3,5,4
28641415663,-1,2,-1,1,0,0,-1,-2
28641429270,-2,-2,1,-2,-5,-3,-2,-4
28641429270,5,5,0,-3,0,0,9,9
28641445155,-7,-20,-16,-12,-18,-9,-9,-9
28641445155,1,9,12,13,21,6,-7,0
28641451953,5,5,6,6,6,4,4,-2
28641451953,-5,-7,-7,-5,-7,-6,-2,-4
28641460065,-5,-8,-7,-5,-2,-3,-4,-5
28641460065,-14,-17,-8,-2,-7,-4,2,-5
28641474880,10,19,15,9,3,-1,-4,3
28641474880,1,-13,-19,-20,-17,-12,-7,3
28641475647,0,12,9,2,0,0,-6,-12
28641475647,4,0,-2,-5,-6,2,17,2
28641489246,-2,-6,-14,1,4,2,0,4
28641489246,-2,4,9,4,-2,-4,-3,-4
28641498266,-10,-9,-14,-5,2,-3,-6,-3
28641498266,3,12,7,-4,-4,-4,-5,0
28641511785,0,-11,-9,6,4,5,7,1
28641511785,-2,3,6,0,-2,-2,-4,-4
28641520714,-27,-32,-18,-3,8,1,-14,-25
28641520714,18,21,5,0,-4,-3,0,19
28641534352,4,0,-11,-12,-6,0,7,5
28641534352,0,5,12,9,7,2,-3,-2
28641543211,4,3,2,2,1,6,5,1
28641543211,-9,-16,-10,-5,-2,-3,-9,-11
28641549353,-1,-6,-4,-1,-5,-6,-5,-2
28641549353,5,5,4,0,1,1,1,2
28641558218,-1,2,0,-7,-7,-5,3,7
28641558218,-4,-5,-12,-8,-3,-6,-15,-10
28641571723,-3,6,4,-4,-3,5,13,2
28641571723,3,1,-2,0,1,2,-8,0
28641588342,4,9,0,-3,-6,-6,-3,4
28641588342,5,3,0,0,-3,-4,2,5
28641594403,1,1,0,0,2,-3,-8,-4
28641594403,-2,-2,-13,-3,-1,0,5,-1
28641603196,3,6,3,6,3,-1,0,-1
28641603196,3,1,2,5,2,3,4,4
28641609227,-12,-7,-3,-7,-3,1,3,-10
28641609227,3,-7,-10,-10,-8,-7,-5,9
28641618180,1,-2,2,6,2,0,-2,-6
28641618180,3,3,2,2,-1,7,-1,-3
28641631844,2,10,8,-2,-6,-7,-12,-7
28641631844,-8,-14,-9,-5,9,13,9,-1
28641640691,2,6,0,1,-3,-4,-3,2
28641640691,-7,-8,-1,-3,-7,-11,-4,-2
28641654288,-1,-9,-4,4,12,12,8,4
28641654288,2,6,3,-1,-7,-5,0,0
28641663209,5,16,13,3,3,4,5,1
28641663209,-16,-14,-7,0,4,5,8,-12
28641669391,3,-3,-7,-2,0,0,-1,7
28641669391,2,12,18,3,-4,-2,2,-1
28641678200,-7,-21,-16,-6,-4,3,9,7
28641678200,6,12,12,8,5,3,1,0
28641691858,-6,-1,-2,1,-2,-6,5,-1
28641691858,-7,-8,-2,2,-1,2,-5,-8
28641700698,-3,-22,-20,-7,-8,-1,11,9
28641700698,2,4,7,5,10,10,12,0
28641714297,-3,3,-2,-1,-3,-7,-8,-7
28641714297,2,-4,-4,1,-5,-7,-11,2
28641723266,2,9,13,9,11,9,4,6
28641723266,0,3,-4,-9,-10,-7,-12,0
28641729284,-4,-5,4,7,2,0,-6,-4
28641729284,-4,-11,-18,-8,-2,0,6,-3
28641738194,-1,-2,0,-7,-6,-12,-18,-6
28641738194,-1,-3,-6,-19,-22,-16,-21,1
28641751820,2,8,16,23,26,11,-2,2
28641751820,9,5,-2,-4,-1,6,3,11
28641760689,11,16,5,-5,-7,-5,-2,4
28641760689,8,17,13,1,-3,-5,3,6
28641775734,-3,-3,-15,-18,-18,-16,-14,-2
28641775734,-16,-4,5,10,4,-5,-24,-23
28641777204,-1,-4,-4,-2,5,8,15,17
28641777204,17,12,3,-9,-16,-3,11,4
28641789220,7,3,-1,-1,-4,-4,-4,-9
28641789220,8,13,19,9,3,-6,-12,-6
28641798214,-6,0,-4,-6,-2,-6,-13,-6
28641798214,-15,-20,-19,-5,2,0,-3,-9
28641811811,4,-2,4,5,2,4,-2,4
28641811811,8,5,8,13,14,14,20,19
28641820721,1,-1,-2,-7,-13,-10,-5,-9
28641820721,10,7,4,1,6,-8,-26,9
28641835581,-16,-9,-12,-13,-9,-1,18,-20
28641835581,-12,-13,-9,1,4,4,7,-8
28641837164,0,-10,-10,-9,-7,-2,6,-3
28641837164,8,1,0,12,17,15,-8,7
28641849357,7,15,21,13,3,7,-9,3
28641849357,-3,-12,-19,-18,-11,0,-6,-3
28641858184,-1,-4,3,6,9,5,12,1
28641858184,-3,-2,-1,12,2,-14,-22,-3
28641871798,-6,-8,-7,3,12,7,5,-6
28641871798,-5,6,11,7,2,0,9,-5
28641880724,-8,-12,-1,-5,-9,-10,-12,-16
28641880724,5,8,6,-1,1,9,32,3
28641895566,-1,-15,-11,-5,-5,-7,-21,3
28641895566,5,1,5,12,8,6,21,11
28641897151,-11,-9,-11,-7,-11,-6,-5,-9
28641897151,-5,-1,2,-1,0,3,12,-1
28641909329,5,4,5,-1,-7,-17,-62,-9
28641909329,16,25,7,-21,-19,-5,4,14
28641918247,1,0,2,10,11,12,25,12
28641918247,-8,-2,-5,-5,-5,-4,22,-14
28641931837,-4,-4,-9,-9,-5,5,46,13
28641931837,-18,-12,-5,8,10,-7,-35,-30
28641940717,-5,-3,2,-5,-13,-10,-20,-1
28641940717,-1,7,-10,-15,-14,-9,-14,0
28641954218,5,10,8,2,8,10,13,12
28641954218,-20,-26,-28,-17,-12,-7,6,-8
28641963241,22,22,13,10,7,5,-27,7
28641963241,-15,-26,-15,-3,-4,-11,-17,-7
28641969305,1,4,10,5,3,-2,-17,-16
28641969305,12,9,10,4,3,-3,-8,5
28641978202,-14,-6,13,9,9,4,3,-12
28641978202,-3,-18,-11,1,-2,-17,-52,-16
28641991798,3,9,3,-1,-4,4,20,17
28641991798,2,-2,0,-6,-11,-11,-49,-10
28642001375,5,1,-6,-3,2,3,14,11
28642001375,-3,4,15,17,14,11,-5,-7
28642015688,-25,-26,-19,-11,-15,-12,11,-1
28642015688,-7,-8,7,11,4,3,6,-2
28642017182,-2,-4,-13,-14,-7,-4,-12,-3
28642017182,-13,-13,-9,-10,-11,-8,-3,0
28642029354,4,-9,1,18,25,8,-41,-4
28642029354,3,4,1,-3,-6,17,88,33
28642038201,22,34,7,-12,-12,-23,-37,-21
28642038201,-6,6,6,-2,-4,20,109,22
28642051819,-10,-27,-26,-10,-17,-25,-10,-18
28642051819,-1,6,20,25,29,22,37,-11
28642060694,-3,-11,-19,-6,-5,1,50,17
28642060694,4,4,0,-13,-8,-11,-19,0
28642075655,-10,-9,-8,2,-2,-1,-11,-9
28642075655,13,25,8,3,6,-1,-43,-5
28642077145,-19,-32,-15,-2,5,10,-3,4
28642077145,-1,10,6,3,0,1,-14,-8
28642089233,23,28,9,-15,-8,5,25,10
28642089233,-9,-19,-23,-14,-14,-21,-51,-34
28642098220,-5,4,19,12,7,8,19,-8
28642098220,16,11,0,4,6,3,29,16
28642111705,-29,-35,-16,6,7,6,35,-10
28642111705,21,17,8,4,10,16,44,33
28642120724,-8,-20,-17,-7,-7,-3,-14,-18
28642120724,-1,-1,10,15,9,8,-18,3
28642135166,-5,5,-12,-17,-11,-1,22,13
28642135166,-12,-15,-8,-2,0,-4,-21,-1
28642141705,10,6,0,0,-5,-6,-45,-2
28642141705,3,-4,-7,-13,-12,-10,-19,-4
28642149301,-20,-5,-3,9,21,16,0,-34
28642149301,-10,-1,-8,-16,-17,-11,52,2
28642158209,-7,-3,7,1,-8,-9,21,0
28642158209,10,3,-1,-9,-4,-8,-3,-6
28642171695,5,19,9,-9,-11,-29,-53,-17
28642171695,4,-23,-30,-27,-17,5,-29,-3
28642180733,-12,0,8,6,-4,2,35,27
28642180733,-10,-13,-9,-4,0,5,15,11
28642195039,4,5,-6,-18,-25,-24,-1,25
28642195039,-4,9,2,-1,4,0,-19,-1
28642201797,35,22,6,9,15,23,20,42
28642201797,-8,-9,8,8,0,-12,-47,-12
28642209323,22,10,2,5,7,19,0,16
28642209323,-4,-1,9,2,-8,-17,-36,-18
28642218240,-16,-11,-13,-6,-2,-10,8,-16
28642218240,-2,-6,-15,-10,-1,18,43,16
28642231818,6,-10,3,5,-1,-2,-32,4
28642231818,2,16,19,26,25,30,62,30
28642240679,-17,-24,-21,-15,-6,-7,-13,-18
28642240679,-7,1,-12,-10,23,-8,-24,-22
28642254928,2,5,13,8,32,12,37,18
28642254928,5,-6,-1,-12,-9,-8,17,13
28642261690,-14,-9,3,17,22,10,-9,-11
28642261690,-6,-11,-13,-5,-20,1,10,-8
28642269315,-11,-12,-13,-5,-23,-11,-38,-40
28642269315,-12,-7,5,15,13,14,19,5
28642278211,22,32,15,13,1,1,-23,-4
28642278211,-29,-32,-16,-10,-19,-1,11,-8
28642291832,-12,-13,-11,-10,-17,-14,-34,-22
28642291832,12,23,12,0,-19,-20,-33,-10
28642300700,-28,-17,-16,-20,-14,-8,39,5
28642300700,25,12,-4,-2,1,13,-1,17
28642314913,-9,5,10,7,5,12,54,16
28642314913,-23,-24,-5,0,-12,-15,-23,-29
28642321700,30,22,8,5,13,0,-42,-1
28642321700,-19,-7,2,7,-2,-11,8,-18
28642338088,6,4,1,-31,-31,2,14,12
28642338088,32,16,-2,7,14,3,-30,14
28642339627,-3,-5,5,6,12,-2,-18,-4
28642339627,9,10,18,11,0,4,15,15
28642351711,-12,-18,-17,0,9,3,-7,-14
28642351711,-23,-23,-16,-4,0,4,34,-14
28642360713,15,17,11,-7,-12,3,31,30
28642360713,38,32,5,5,6,8,55,59
28642375083,-7,-8,0,4,-6,-26,-60,-26
28642375083,-5,-9,-12,-21,-21,-27,-83,-47
28642381751,-21,7,18,33,31,25,22,-22
28642381751,-8,-19,-33,-16,14,12,-6,2
28642398198,-13,-12,9,11,-7,-17,5,-11
28642398198,13,3,-9,3,-8,9,61,39
28642399666,-5,5,8,3,15,14,28,1
28642399666,2,-17,-23,-34,-42,-39,-76,-36
28642420556,36,41,25,12,30,22,-2,21
28642420556,-21,-23,-13,-12,-6,-9,3,-17
28642422161,-8,-20,-2,4,-7,3,22,0
28642422161,-1,-3,-3,-3,-4,-5,20,14
28642435039,3,6,21,20,-4,7,57,28
28642435039,-18,-16,-17,-15,-7,-30,-84,-39
28642441778,6,6,-5,-10,-8,5,1,15
28642441778,-6,7,17,8,7,12,31,3
28642458189,-5,-18,-25,-4,3,-10,-31,-27
28642458189,17,36,17,-2,-12,13,68,63
28642459681,-22,-19,17,17,-2,-20,-47,-48
28642459681,16,31,23,10,2,-3,21,15
28642471742,-2,6,5,-10,5,3,17,11
28642471742,-24,-22,-3,10,11,1,-21,-35
28642480787,14,-11,-35,-34,-24,-16,-13,27
28642480787,-5,4,7,2,-9,5,-6,-6
28642495480,24,33,27,8,13,-6,-79,-20
28642495480,4,6,-2,1,15,15,23,21
28642501897,-8,-16,-24,-19,-16,-25,-59,-35
28642501897,-27,-19,-1,9,-2,-19,-89,-87
28642518157,36,28,-3,5,24,38,55,53
28642518157,-11,-34,-12,1,0,-13,-27,-1
28642519606,-1,9,3,-16,-13,-4,-18,-14
28642519606,9,11,3,-1,5,4,-40,-21
28642531819,-18,-13,-3,-14,-19,-5,43,25
28642531819,-8,-5,-5,-1,6,3,3,-11
28642540666,-11,-12,-17,-10,0,-3,23,15
28642540666,5,10,31,24,17,13,20,19
28642554991,-1,12,8,3,-12,-12,-10,-13
28642554991,-6,-3,-6,-5,-8,-13,-20,-14
28642561889,6,22,19,9,5,16,52,32
28642561889,-14,-14,-16,-18,-4,6,43,18
28642578145,-19,-27,-19,0,13,3,-1,-10
28642578145,28,38,37,21,11,11,-7,-2
28642579686,8,1,-5,1,-2,-5,-14,-11
28642579686,-8,-3,12,15,1,-8,-3,1
28642591796,-6,-7,-17,-20,-20,-1,35,13
28642591796,-6,4,-2,4,-1,4,38,5
28642600696,14,10,7,-3,-6,-4,-19,-2
28642600696,-7,-21,-13,6,6,6,27,9
28642614985,-22,-33,-28,-13,-7,-7,-34,-31
28642614985,22,31,17,5,7,10,0,4
28642621710,2,1,4,5,-7,-3,-4,0
28642621710,-8,-10,-6,3,3,-6,-37,-21
28642638106,-2,3,10,2,-5,-12,-26,-17
28642638106,0,0,-8,-18,-9,3,22,16
28642639634,-11,-12,-3,14,11,-3,5,-12
28642639634,5,3,-2,-1,28,19,4,4
28642651860,7,13,14,7,-1,-1,3,2
28642651860,-2,4,9,1,-7,-7,-14,-7
28642660721,8,0,-6,-4,-1,2,-14,1
28642660721,-3,0,-4,-6,-11,-4,-6,2
28642674881,-11,-9,-9,2,5,11,11,4
28642674881,15,-19,-12,-3,-1,-4,-20,6
28642681800,-5,-1,4,8,6,1,-13,-6
28642681800,12,8,8,1,-2,-4,-24,5
28642698203,-11,-11,-14,-10,-17,-7,-23,-3
28642698203,-11,-2,-5,-6,-4,-6,-23,-7
28642699702,2,2,0,2,2,0,18,0
28642699702,-6,-5,1,13,5,2,3,0
28642711874,3,5,4,0,-3,-1,-36,-1
28642711874,-2,-5,2,9,11,9,-88,2
28642720727,12,15,8,-5,-2,-6,-115,-1
28642720727,-7,-6,-12,-12,-10,-8,-128,-6
28642735234,4,1,1,-9,-13,-7,-112,5
28642735234,2,6,2,3,4,-3,-62,-6
28642741763,-10,-20,-20,-8,-3,-1,-51,-8
28642741763,4,6,4,0,-4,-4,-72,1
28642758194,5,1,0,-1,0,-1,84,0
28642758194,-4,-4,-9,-9,-9,-2,101,-1
28642759663,-4,-6,-11,-7,-7,-5,120,-7
28642759663,4,9,14,3,3,2,21,-3
28642772220,2,-3,4,11,13,7,-18,3
28642772220,2,7,7,-3,-6,-8,-49,3
28642780669,0,0,6,6,3,1,-68,6
28642780669,-1,-5,-6,-5,-6,-3,16,5
28642794989,-9,-13,-7,-4,-1,-1,33,0
28642794989,-5,2,-1,4,5,5,73,0
28642801826,7,5,-3,-4,-3,-3,50,10
28642801826,-2,0,0,-3,-3,-3,55,-4
28642818173,4,3,-2,-3,0,3,58,24
28642818173,-5,-8,-3,4,5,4,42,3
28642819692,-3,-5,1,-2,-1,0,17,-12
28642819692,-7,-10,-10,-6,-5,-2,41,-16
28642831715,5,2,-2,-6,-4,-7,47,-24
28642831715,-6,-13,-6,-6,-8,-4,69,-6
28642840731,-3,2,1,1,-1,3,68,-5
28642840731,-1,0,-3,1,0,-4,102,-9
28642854956,3,3,1,6,6,5,34,0
28642854956,-13,-5,-8,-9,-4,-2,-15,-4
28642861830,5,3,6,3,-2,-2,13,4
28642861830,-13,-15,-13,-4,-4,-4,16,11
28642878171,18,3,7,4,3,1,11,24
28642878171,1,6,24,16,1,2,20,5
28642879666,-2,-6,-9,-3,1,-1,-4,5
28642879666,0,6,5,-2,-1,2,-26,-3
28642891825,-9,-5,-12,-9,-3,-2,-17,-13
28642891825,-6,-4,-11,-5,-1,0,-23,-12
28642900696,0,-2,3,2,-2,-3,-35,-5
28642900696,7,4,1,-2,-1,-2,-37,-2
28642914971,-6,-11,1,-2,-2,-3,-40,-9
28642914971,1,-17,-11,-6,-2,1,-26,-4
28642921793,-2,-1,9,3,0,1,6,-6
28642921793,-3,-4,0,2,2,4,13,3
28642938040,-1,-4,-3,-1,-3,-4,23,-4
28642938040,1,5,6,3,6,2,8,-1
28642939588,-2,-8,-11,-9,-6,-4,21,-1
28642939588,-1,5,6,0,5,-1,20,-6
28642951809,-5,7,8,-1,-5,-4,-6,-7
28642951809,8,3,-2,-1,-1,-3,-20,6
28642960715,-6,-4,-5,-4,0,-3,-32,-1
28642960715,-3,9,9,2,-4,0,-15,-1
28642975007,-6,-4,-12,-10,-1,0,-24,-6
28642975007,19,14,3,-3,-4,-4,-15,6
28642981793,-5,7,1,4,2,3,-2,0
28642981793,0,5,4,3,5,1,-13,5
28642998191,-12,-1,-2,-3,-3,-4,-14,-6
28642998191,-2,-4,-10,-11,-11,-6,7,-1
28642999680,6,7,1,5,7,5,17,0
28642999680,2,9,4,5,0,4,23,0
28643011817,8,5,1,5,8,7,19,4
28643011817,-13,-6,-18,-13,-3,-6,-12,-14
28643020694,6,5,20,13,5,4,-3,7
28643020694,-1,-6,-7,-3,-1,-3,-10,1
28643035155,2,2,4,2,-1,1,-2,1
28643035155,-5,-11,-4,-3,-5,-1,2,0
28643041774,-14,-10,-11,-6,-4,-5,-9,-6
28643041774,-3,-6,-9,-6,-1,0,-7,-8
28643058175,18,5,11,5,2,1,2,21
28643058175,3,8,3,3,-6,-7,-1,-3
28643059593,-2,-4,-1,5,10,8,-6,4
28643059593,-15,-13,-9,-1,0,-2,-1,-4
28643071715,0,14,12,5,4,4,6,-1
28643071715,1,-1,0,0,0,2,-2,2
28643080731,-6,-2,-17,-21,-16,-7,-13,-6
28643080731,3,9,16,8,4,0,-16,2
28643095046,1,-5,-5,1,2,2,-9,0
28643095046,4,5,4,-2,-4,-1,-8,-4
28643101826,-11,-12,-3,-5,-3,-4,6,-2
28643101826,3,-10,-10,-10,-2,-2,-3,0
28643117511,-4,-5,-6,-6,-10,-9,3,-3
28643117511,-8,-2,3,5,2,0,1,-2
28643124268,-7,-6,-9,-4,-4,-1,19,-7
28643124268,20,-2,-5,-5,-6,0,13,13
28643131795,-6,-7,0,4,3,-2,-4,-6
28643131795,1,2,1,-3,0,-1,-6,0
28643140805,0,3,-1,0,-2,-4,-15,-1
28643140805,-8,-1,13,13,6,2,0,-2
28643154974,-3,-3,-5,-4,-3,-2,-11,-1
28643154974,0,3,6,2,0,0,-4,3
28643161772,-4,-1,-7,-5,0,-1,-15,-3
28643161772,-1,3,-2,-4,-9,-6,-10,-6
28643177534,-4,-3,-7,-2,1,-2,-6,-5
28643177534,2,0,-2,-2,3,2,-4,-4
28643184298,3,-4,9,6,4,0,5,8
28643184298,2,-3,-4,-1,3,-1,4,2
28643191798,-7,-12,1,-3,-5,-3,0,-5
28643191798,-4,-8,1,2,2,3,5,-2
28643200689,7,7,-1,-7,-3,-1,-2,-1
28643200689,-4,-3,1,8,8,6,-1,2
28643215056,-2,8,-2,-3,-6,-3,2,-3
28643215056,-6,-1,-6,0,2,1,-3,2
28643221722,-3,-6,-11,-5,-5,-8,-13,-4
28643221722,-5,4,-2,-8,0,2,-5,-2
28643237487,-5,5,6,3,3,3,-9,-4
28643237487,13,-5,-5,-6,-4,-3,-3,9
28643244310,4,0,-1,3,-1,-2,-11,-2
28643244310,-2,-3,-3,-7,-7,-5,1,-3
28643251809,-2,1,3,6,2,1,-2,-3
28643251809,-10,-6,-8,-6,-6,-4,0,-5
28643260690,2,1,-2,-1,-1,-2,-3,-1
28643260690,-2,-4,-1,-7,-4,-5,-6,-4
28643275068,7,5,12,8,2,1,2,1
28643275068,-4,-3,-2,2,1,0,2,1
28643281826,4,3,5,-1,-2,-1,-1,2
28643281826,-1,-2,-7,-3,0,2,-1,-2
28643297493,-2,-15,-16,-10,-3,-3,-1,-1
28643297493,3,14,12,2,-1,-3,2,0
28643304184,0,0,-2,0,0,2,5,1
28643304184,-4,-6,-3,1,3,-1,-5,1
28643320819,-2,3,-2,-7,-3,-2,-4,0
28643320819,-3,-3,-6,1,1,-2,-9,-2
28643322140,-2,2,7,6,-2,2,-2,-3
28643322140,0,1,1,-2,-2,-2,-1,-2
28643334948,2,-3,-2,0,2,-1,16,4
28643334948,-5,-7,-9,-8,-3,2,4,-2
28643341813,0,-3,1,1,3,2,-2,-1
28643341813,0,-1,-1,1,-2,-1,-3,-2
28643357517,-5,2,-3,-3,-2,-2,-9,-5
28643357517,9,1,2,3,2,-1,-6,4
28643364265,0,4,4,1,-4,-2,-5,0
28643364265,4,-2,-4,-1,0,1,-1,2
28643380677,0,1,1,0,-1,-3,-4,-2
28643380677,-4,-2,-2,-2,-2,-2,-4,-4
28643382184,-5,-2,2,2,-2,1,-1,-2
28643382184,5,11,6,0,1,1,2,4
28643395094,-3,-1,-4,-3,-1,-2,-2,-1
28643395094,-1,0,4,7,5,1,1,2
28643401817,0,-1,-7,-8,-1,-3,-1,0
28643401817,-3,-6,-2,1,-2,-2,0,0
28643417615,-3,-5,-3,-2,-3,0,-1,-1
28643417615,-4,-2,1,-3,-2,1,-2,-4
28643424317,1,-2,1,3,2,0,1,0
28643424317,0,-6,-5,-4,-4,-6,2,0
28643440683,1,-4,-7,-5,-3,0,1,0
28643440683,1,5,20,12,5,4,3,0
28643442140,-3,-1,-1,-6,1,1,2,-2
28643442140,-4,-7,-13,-10,-4,0,-1,-5
28643454895,3,1,5,13,5,3,1,2
28643454895,-3,-10,-18,-5,0,0,3,-1
28643461839,6,12,13,4,-3,-3,4,1
28643461839,0,-1,3,3,1,1,5,-1
28643477489,-1,-3,-3,-4,-3,-1,5,-2
28643477489,-3,-5,-7,-3,-4,-3,0,-4
28643484298,-2,-6,-6,-4,1,2,-3,1
28643484298,-12,-5,-8,-3,-3,-2,-6,-5
28643500687,12,3,8,0,-2,-1,-7,8
28643500687,-1,1,-1,1,-1,-2,-3,0
28643502164,-1,-2,-7,-7,-9,-4,-3,-1
28643502164,-1,1,3,7,3,-2,-1,-1
28643515078,-6,1,-1,-1,1,1,-6,-5
28643515078,0,-5,-6,-5,-1,0,-1,0
28643521766,0,-1,-7,-8,-3,-2,-1,-2
28643521766,1,-2,11,8,0,1,0,2
28643537510,-8,2,-2,-5,-3,-2,-2,-4
28643537510,10,0,3,2,-1,-3,-1,6
28643544312,-3,0,0,-1,0,-2,-4,-2
28643544312,1,-3,-7,-6,-1,-1,-4,-1
28643560677,-4,2,1,1,1,1,0,-2
28643560677,-5,-4,-8,-4,6,4,0,-3
28643562193,-4,1,3,0,-2,0,-4,-2
28643562193,5,5,4,-1,-3,-4,-9,2
28643574321,-7,2,7,3,-1,-3,-7,-6
28643574321,4,-3,-5,-5,-5,-4,-3,3
28643583177,1,-1,0,2,4,5,4,0
28643583177,-2,-4,-7,-2,-1,-1,-1,-1
28643597505,-2,-8,-13,-11,-6,-4,0,-3
28643597505,0,9,9,3,0,-3,2,-2
28643604294,0,-4,-25,-1,-2,-1,5,-3
28643604294,3,2,-10,0,-2,-1,-3,0
28643620700,3,2,3,4,6,0,-2,1
28643620700,-9,-8,-3,-6,-4,-1,1,-4
28643622180,-2,-4,8,-1,-3,-4,0,0
28643622180,-4,3,12,-1,-1,1,-2,-2
28643634279,-5,-4,0,2,1,-1,-2,-3
28643634279,2,3,6,-6,-4,-5,-5,2
28643643186,-2,1,5,3,0,-2,-3,0
28643643186,0,-5,-3,-3,-1,-1,0,-2
28643657514,-1,-1,5,-2,-3,1,3,3
28643657514,0,6,10,2,1,0,-3,-4
28643664298,-3,-2,3,3,-1,-3,-5,-5
28643664298,4,6,7,1,5,1,2,3
28643681152,-1,-14,-21,-13,-5,-2,0,-1
28643681152,-2,1,3,7,4,3,2,-3
28643682601,3,1,0,2,4,8,6,4
28643682601,2,7,6,3,0,-6,-7,-3
28643694324,-1,-2,2,2,1,0,1,-1
28643694324,-7,-3,-6,-1,-3,-2,-2,-5
28643703171,1,-1,-8,-6,-5,-5,-3,0
28643703171,0,0,10,8,3,1,1,-4
28643717386,2,0,0,-1,-1,-1,-3,-11
28643717386,-8,-10,-14,-10,-2,-4,-4,-9
28643724271,4,4,9,8,6,2,1,1
28643724271,-3,-9,-21,-17,-9,-4,-3,1
28643740627,6,17,31,18,4,0,-1,9
28643740627,-3,-1,-6,-2,-4,0,-2,1
28643742153,-12,-3,-2,-3,-4,-3,-3,-3
28643742153,9,3,-2,6,2,3,3,10
28643754202,-4,-8,-6,-3,-2,-1,-1,2
28643754202,9,10,-3,-13,-6,-8,-4,2
28643763216,-4,-5,-1,-1,-2,-3,0,-3
28643763216,-13,-12,-11,-10,-7,-5,-2,-9
28643777502,2,-3,1,9,3,-2,-2,-2
28643777502,-4,-2,-2,2,0,-1,1,0
28643784284,-2,-1,-2,-7,-8,-7,0,-3
28643784284,1,6,4,-3,-4,-5,-6,-2
28643800763,-2,-6,-12,-8,-1,1,-2,0
28643800763,-6,-5,-8,-1,-2,-1,-2,-2
28643802163,-2,-3,-2,-1,0,0,0,-1
28643802163,-7,-2,6,7,4,1,0,-7
28643814191,3,-11,-11,-7,-2,-2,-2,6
28643814191,1,0,8,8,2,1,0,2
28643823179,7,10,11,5,-2,-1,0,2
28643823179,-2,2,-5,-2,4,3,0,-2
28643837476,-3,1,-5,-5,-2,-2,-2,-5
28643837476,-11,-9,-15,-9,-6,-4,-3,-6
28643844281,19,14,22,9,4,2,0,7
28643844281,0,-3,0,-1,-4,-2,1,0
28643860602,-7,-1,-2,-2,1,-3,-1,-4
28643860602,6,1,-3,1,4,3,7,6
28643862129,-11,-8,-17,-12,-5,-3,-4,-4
28643862129,1,2,6,0,-4,0,-4,1
28643874191,-6,-11,-24,-21,-11,-4,-3,-3
28643874191,1,10,24,19,5,0,-3,-3
28643883149,-6,-7,3,3,-1,0,-1,0
28643883149,-4,-2,-7,-6,-7,-5,3,-2
28643897491,2,-4,0,8,8,2,-2,2
28643897491,1,-7,-13,-9,-6,-3,-3,0
28643904341,-11,-4,1,4,4,4,2,-6
28643904341,10,-10,-7,-1,0,2,4,5
28643920649,-3,17,16,2,0,1,3,0
28643920649,7,0,6,3,4,2,-1,2
28643922163,4,-3,-6,-4,-3,-3,-1,1
28643922163,-14,-10,-11,-3,0,0,1,-6
28643942439,-3,-7,-14,-13,-10,-5,1,-2
28643942439,1,4,9,7,2,2,2,0
28643943148,-6,-2,-8,-2,0,0,-2,-5
28643943148,2,1,5,2,0,1,-1,1
28643958162,-4,-2,3,-4,-4,-4,-5,-4
28643958162,0,-7,-7,-6,-4,-3,1,0
28643964270,2,-5,-3,-1,-1,-4,-4,0
28643964270,-8,5,8,5,2,-4,-8,-4
28643979951,13,-4,-6,-4,-2,-1,1,5
28643979951,2,5,15,7,0,1,-1,1
28643980617,1,3,2,0,0,-2,-9,-6
28643980617,10,-3,-16,-15,-7,-6,-2,3
28644002560,-5,1,12,17,8,3,0,-2
28644002560,-5,-8,-14,-7,0,0,-1,-3
28644003123,0,-3,-9,-5,-1,0,2,1
28644003123,-3,5,4,0,4,2,6,-2
28644018191,1,2,-1,1,-4,-5,-2,2
28644018191,-5,0,1,-1,-2,0,1,-3
28644024310,1,-1,-5,-4,-1,-1,-2,1
28644024310,-2,-7,-5,-3,-6,-4,-6,-2
28644039195,5,10,20,11,6,4,3,2
28644039195,-5,-5,2,1,-1,-2,-2,-2
28644046776,-6,-5,-4,-4,-5,-3,-1,-3
28644046776,-2,-2,-2,0,4,-1,-2,0
28644062470,-2,-4,-12,-12,-7,-6,-5,-4
28644062470,-1,4,7,4,0,-3,-6,-2
28644063115,-1,-6,-14,-10,-5,-2,0,0
28644063115,5,14,32,22,5,2,-1,2
28644078186,-3,-6,-8,-3,0,2,4,1
28644078186,-11,1,4,2,3,2,4,-7
28644084341,9,-5,-4,-4,-5,-4,0,3
28644084341,0,-2,-2,1,-5,-2,0,-2
28644099295,-9,1,0,-2,-1,0,-2,-5
28644099295,10,-3,-8,-1,2,2,-1,4
28644106720,-3,-5,-4,-1,2,-1,-1,-1
28644106720,1,-1,-4,-7,-5,-6,-6,-2
28644122384,4,3,-1,-3,-4,-4,-5,0
28644122384,-7,-5,-12,-9,-6,-5,1,-5
28644123144,1,7,8,4,1,1,-2,0
28644123144,-3,1,0,3,2,3,2,1
28644138191,-2,0,3,1,1,0,1,-3
28644138191,-2,-3,-10,-8,-2,-4,-6,-1
28644144304,0,0,3,3,-1,-2,-1,-2
28644144304,0,1,5,3,2,3,3,0
28644159315,2,-1,2,3,3,3,-3,-1
28644159315,-8,-7,-14,-8,-6,-2,-1,-2
28644166833,-2,1,5,4,3,1,4,0
28644166833,12,3,1,-2,-3,-1,0,3
28644182472,5,6,6,2,-2,-3,-3,0
28644182472,-2,-1,0,-2,-1,-1,-4,-3
28644183150,-4,-5,-8,-5,-1,-1,-2,-1
28644183150,-9,-8,-8,-7,-3,-3,-4,-7
28644198192,0,1,-6,-11,-5,-1,1,-1
28644198192,-2,0,8,8,0,0,-1,-1
28644204361,-4,-3,-7,-8,-2,-1,-4,-3
28644204361,0,5,12,9,6,3,1,1
28644219347,-5,-6,-11,-5,0,-1,-5,-1
28644219347,-1,1,1,-5,-4,-4,0,0
28644226835,-5,-4,-6,-4,2,2,0,0
28644226835,-1,3,1,-5,-4,-3,-3,-1
28644242460,0,0,-5,0,-2,0,1,-1
28644242460,4,2,7,6,0,0,1,1
28644243090,-1,-1,-2,-1,-3,-5,0,-2
28644243090,-5,-6,-8,-2,-2,-3,-1,-4
28644258157,-4,-4,-4,-4,-1,-1,0,-3
28644258157,-4,3,1,3,2,1,0,-1
28644264296,8,-2,2,3,0,2,2,5
28644264296,-3,-1,-5,-1,1,-2,-2,-2
28644279279,-3,-12,-13,-3,-3,-4,-1,-1
28644279279,1,10,12,1,1,-1,-2,1
28644286778,3,3,0,-4,-4,-2,-5,1
28644286778,-6,0,2,0,-2,0,-1,-1
28644302450,0,4,4,3,-1,-1,-3,-1
28644302450,-2,-9,-17,-16,-7,-2,-2,-5
28644303123,-2,3,5,4,1,-2,0,-3
28644303123,3,-1,-2,0,3,2,0,-1
28644318173,-4,-4,-7,-6,-3,-2,-3,-3
28644318173,2,0,12,12,4,1,2,3
28644324340,-3,-5,-9,-4,-3,-2,-3,-4
28644324340,2,5,14,3,0,-3,-9,-1
28644339189,-12,-1,3,1,0,-1,0,-6
28644339189,17,-1,-11,-8,-4,-1,-5,6
28644346807,0,-5,3,4,1,2,-1,1
28644346807,-10,-10,-16,-11,-4,-3,2,-2
28644362555,-1,1,2,-3,-3,-1,0,-2
28644362555,-17,4,7,10,1,-2,-2,-13
28644363126,11,5,-1,-6,0,1,2,11
28644363126,5,-8,-14,-8,-4,0,0,6
28644378180,5,7,11,2,-1,-3,2,4
28644378180,-13,-18,-17,-12,-7,-3,1,-4
28644384248,-6,1,5,2,-4,-4,-3,-7
28644384248,-6,-2,1,8,9,5,3,-2
28644399292,4,-1,5,9,4,4,3,2
28644399292,-5,-1,-3,-6,-4,-4,-3,-7
28644406675,-1,-4,0,1,0,-1,0,1
28644406675,2,-1,0,2,-2,0,-3,1
28644422357,-3,-5,-7,1,4,3,2,1
28644422357,3,4,1,4,2,1,-2,0
28644423175,0,3,4,-1,-2,-3,-3,-4
28644423175,1,-1,-4,-2,1,-1,-1,-3
28644438221,-3,-3,2,4,0,-4,-6,-2
28644438221,4,-5,-7,-5,-6,-4,-3,-1
28644444273,-2,0,-9,-6,3,0,-6,-1
28644444273,3,4,0,-1,-1,-2,-1,2
28644459321,6,3,6,-1,0,0,-1,1
28644459321,-5,-10,-10,-5,-1,0,2,0
28644466829,1,6,-5,-7,-2,-1,3,-1
28644466829,-7,-1,-2,-4,-6,-3,0,-6
28644482516,3,5,3,1,-1,2,-1,1
28644482516,-1,-3,-7,-4,-4,0,-4,-5
28644483127,-9,-5,2,7,-2,-5,-6,-4
28644483127,-1,-1,1,6,11,1,2,2
28644498143,-4,-9,-9,-2,0,1,7,2
28644498143,-1,5,9,2,5,2,-3,1
28644504347,5,-2,-4,0,-1,0,2,-2
28644504347,0,1,-1,-3,-6,-3,-1,1
28644519163,-4,-7,-11,-8,-8,-9,-4,-3
28644519163,3,14,18,4,4,3,4,9
28644526780,-2,1,-1,-5,-2,-2,-4,-4
28644526780,2,3,2,0,-4,-1,-4,-1
28644542437,0,-3,-4,-3,-2,1,1,-5
28644542437,-2,-3,-2,0,-2,-2,0,2
28644543093,-5,0,0,-5,1,3,0,-1
28644543093,-4,-10,-9,-2,-2,-1,0,-3
28644558132,7,6,7,4,2,-1,-7,2
28644558132,2,3,0,-1,-1,-5,-1,-3
28644564394,-4,-11,-4,4,1,0,2,2
28644564394,-18,-15,-11,-5,-3,0,0,-7
28644579279,10,5,5,5,2,0,-1,2
28644579279,-2,-4,-3,-4,-2,-4,-3,-4
28644586803,-3,-6,-4,-4,-3,-3,0,-2
28644586803,0,1,1,-7,-10,-6,-3,1
28644602340,-2,2,2,3,1,1,-4,-2
28644602340,-1,3,1,2,2,2,-3,-2
28644603158,-1,-9,-3,3,3,0,-3,4
28644603158,0,-2,-3,-5,-1,0,-1,2
28644616806,-19,-1,-5,-3,-4,-2,-2,-5
28644616806,15,0,-4,-1,-5,-1,3,12
28644624188,2,5,5,6,3,1,-8,-5
28644624188,4,8,-1,-4,-4,-4,-5,-8
28644639253,-6,-14,-7,-7,-1,0,-3,7
28644639253,2,-3,-6,-3,1,4,2,-3
28644646854,-7,-1,10,10,-1,0,8,0
28644646854,2,1,1,-1,2,2,9,2
28644662569,-6,-1,4,1,-4,-1,10,-6
28644662569,1,-7,-5,-5,-1,-3,-3,-4
28644663135,-1,-5,-5,-7,-5,-3,12,-1
28644663135,-17,-6,-4,-4,1,1,4,-10
28644676793,12,8,12,6,5,1,13,5
28644676793,3,-6,-5,-1,-1,-1,0,2
28644684254,0,5,-4,-5,-4,-1,-10,-6
28644684254,10,-2,-4,-3,-1,1,-13,-1
28644699238,-35,-12,-4,2,0,0,-10,-16
28644699238,28,-7,-1,-1,1,0,-10,15
28644706648,-2,-11,1,-2,-4,1,-12,-4
28644706648,13,-2,7,6,3,-2,-10,2
28644722363,4,-3,-8,-6,-2,0,-4,0
28644722363,-27,3,0,0,-3,-2,2,-16
28644723118,9,9,-1,-1,-1,-2,1,9
28644723118,1,13,1,2,-1,-4,-4,2
28644736796,7,10,-3,-2,-3,-2,-5,4
28644736796,-15,-4,-9,-4,-2,-2,3,0
28644744247,8,12,12,6,4,-4,-6,-1
28644744247,-4,5,-5,-7,-3,-2,-1,-1
28644759245,10,10,10,10,6,0,2,-3
28644759245,-4,-10,-3,0,11,9,5,12
28644766797,-1,-1,-4,-2,-6,0,3,-1
28644766797,-11,-4,-1,4,0,3,7,-6
28644782331,8,5,-6,-2,-2,0,-1,-4
28644782331,6,7,4,3,-2,1,4,0
28644783043,-5,-2,-2,-3,-2,-3,-1,-1
28644783043,8,0,4,9,2,0,3,6
28644796662,3,-5,-2,-3,-2,1,3,4
28644796662,-6,1,0,-1,-3,-4,0,-6
28644804381,-5,0,-3,1,2,1,5,1
28644804381,-12,0,1,-5,-1,-1,-2,-4
28644819305,16,-14,-5,-4,-2,-2,-3,9
28644819305,-3,4,3,1,-4,-3,-1,-5
28644826649,-2,-6,2,2,1,2,2,-3
28644826649,-6,-15,-2,0,0,2,2,-1
28644842415,5,-5,-2,-5,-7,-7,-3,-6
28644842415,3,1,14,6,-2,-3,-1,-7
28644843095,-10,1,-5,-3,-1,-1,-3,-26
28644843095,22,13,4,0,1,0,0,-6
28644856717,-18,-1,2,3,2,1,-5,-1
28644856717,2,1,-9,-10,-4,-2,-1,3
28644864305,-10,0,-6,-5,0,0,0,3
28644864305,4,1,1,-1,1,1,2,6
28644879308,6,12,0,-2,0,-2,-7,0
28644879308,-14,-1,-3,-2,-2,-2,-2,-2
28644886694,31,11,1,1,0,0,0,11
28644886694,-30,-16,-9,-3,-3,-2,2,-2
28644902458,-1,2,-6,-6,-4,-6,-3,-4
28644902458,9,7,5,7,1,-1,-5,0
28644903057,0,7,16,9,4,2,3,-1
28644903057,-10,-3,-2,1,-1,-1,-3,1
28644918148,5,-6,-4,-5,-2,2,0,1
28644918148,-3,8,5,-3,0,-2,-3,-6
28644924198,-5,-6,-8,-6,-6,-6,-6,-3
28644924198,11,8,2,0,0,0,-1,2
28644939188,-16,-6,1,-1,-1,0,2,-7
28644939188,-12,-10,-6,0,-1,-6,-5,-10
28644946778,25,3,1,0,0,5,5,13
28644946778,-10,-3,-1,1,1,-7,-13,-4
28644962436,1,-8,-6,0,-1,1,6,2
28644962436,16,7,5,5,3,0,-3,0
28644963096,-14,-7,-4,-3,-3,-2,-3,-1
28644963096,-3,-5,-8,-9,-12,-5,3,-5
28644976762,5,12,8,-1,0,-1,-1,1
28644976762,-1,0,2,1,-2,-1,1,0
28644984248,-12,-7,-5,-3,2,-1,-3,-2
28644984248,10,7,-2,-3,-2,0,4,1
28644999271,-18,-5,-3,0,2,-3,-1,-5
28644999271,6,-3,-2,-1,-1,-1,0,1
28645006657,-16,-13,-8,-2,1,-5,-4,2
28645006657,-8,-7,-4,-1,2,0,-1,0
28645021705,5,3,9,7,1,-2,-1,-1
28645021705,-4,-6,0,-1,3,3,-3,-3
28645029949,15,-3,-1,-2,0,3,3,0
28645029949,-14,-7,-4,-3,-5,-4,-6,-10
28645044951,6,7,2,-5,-3,-2,0,4
28645044951,-1,-8,-6,-4,-3,0,-1,2
28645045622,-4,7,11,5,3,2,-1,-2
28645045622,5,0,0,-4,-1,-1,2,0
28645059298,4,5,-4,-1,-3,-4,-7,-2
28645059298,-16,-11,-4,-2,-1,-2,-3,-6
28645066802,3,-2,-3,-3,-5,-2,-3,-1
28645066802,19,5,7,5,2,1,0,3
28645081725,-6,-6,-2,-3,-3,0,-3,-2
28645081725,7,-1,-7,-4,-2,0,3,2
28645090033,-10,-2,4,4,3,-1,-8,-4
28645090033,2,-3,-5,-2,1,-3,-5,1
28645096667,1,-10,-6,-4,1,2,-2,-4
28645096667,-4,3,5,2,-1,-2,4,5
28645104202,-23,-6,-3,-3,-4,-1,2,-11
28645104202,1,0,0,1,2,4,7,7
28645119279,-6,-2,-2,0,-1,-1,1,-3
28645119279,-5,-10,-11,-9,-9,-4,-1,-2
28645126785,6,8,2,-2,-1,0,-3,-3
28645126785,-5,-1,1,2,3,-1,-12,-3
28645141730,4,9,9,2,2,2,5,2
28645141730,1,3,1,3,0,1,0,1
28645150049,0,-3,-9,-3,-1,-3,-5,-4
28645150049,-6,0,3,1,-2,-1,0,-1
28645164943,2,-23,-2,-3,-3,-1,-2,3
28645164943,5,8,0,-2,-1,-2,0,0
28645165648,-10,-6,-2,1,0,-3,-1,4
28645165648,-7,3,-2,-2,-4,-2,3,1
28645179323,6,5,-3,0,2,0,-1,0
28645179323,-3,-1,-1,-1,0,2,-1,1
28645186752,4,4,0,0,-3,1,1,-1
28645186752,7,-2,-8,-4,-3,0,0,-1
28645201801,-3,9,4,1,-2,-1,0,-2
28645201801,-2,1,-3,-6,-3,-1,1,-5
28645209923,1,-7,-2,-4,-2,-3,-2,3
28645209923,-2,-2,6,3,2,2,-2,-3
28645224936,-7,-9,-10,-4,0,0,2,-3
28645224936,0,-3,-1,1,1,-1,-3,0
28645225624,-1,2,-4,-8,-9,-7,-1,-3
28645225624,2,-2,-2,-1,0,-1,-4,0
28645239220,-3,-6,-9,-4,-4,-1,3,0
28645239220,-1,1,-2,2,1,0,-3,-1
28645246853,16,-22,-11,-7,-5,-3,-7,4
28645246853,7,11,9,7,3,0,0,1
28645261821,0,2,-3,-2,-1,2,1,-1
28645261821,-8,0,1,-2,-3,-1,1,-3
28645269951,14,-4,-3,-3,-2,0,8,5
28645269951,3,0,1,1,2,-2,1,2
28645284980,11,6,0,-3,0,-3,-2,-5
28645284980,-11,-6,5,7,3,0,2,-1
28645285616,-12,1,-4,-1,-2,-1,-3,-5
28645285616,2,-5,-3,-3,0,-1,-1,-1
28645299217,-3,3,1,0,1,-3,-6,-1
28645299217,2,-5,-7,-6,1,-4,2,1
28645306795,1,12,7,5,10,-3,-3,-1
28645306795,-12,-5,-5,-4,1,-1,-1,-4
28645321675,-6,-14,-6,1,4,2,-1,-2
28645321675,5,0,1,1,-8,-2,-6,-1
28645329948,-8,1,-1,0,-5,2,0,-4
28645329948,-3,-8,-5,-5,-8,0,5,5
28645344902,-8,-3,-2,0,-8,0,-1,1
28645344902,-5,-3,1,5,6,3,-4,-1
28645345594,10,8,3,2,-3,-3,-1,1
28645345594,-20,-10,-4,-6,-7,-4,-5,-4
28645359206,-3,-2,-3,4,-1,0,-4,-1
28645359206,-3,-4,-6,-5,-4,-3,-2,-3
28645366745,-10,4,8,5,4,3,-3,-7
28645366745,21,-4,-5,-2,1,-1,-7,11
28645381776,0,2,8,5,1,-3,-2,3
28645381776,0,2,-1,-3,-5,-2,-2,-1
28645389870,-6,-9,-7,-5,-6,-2,1,-2
28645389870,-2,2,1,4,1,3,5,-3
28645404905,-13,3,-2,-7,-4,-6,-2,-6
28645404905,13,5,8,7,3,-2,0,6
28645405613,1,6,5,1,3,1,3,-1
28645405613,-5,-1,-1,2,2,-1,3,-5
28645419240,-2,3,0,-1,-3,-1,-2,-1
28645419240,-1,-3,-5,-2,-2,-1,2,-4
28645426749,-1,-2,-3,0,1,-1,1,1
28645426749,-6,0,-3,0,-2,-2,0,-6
28645441679,9,1,-3,-1,0,0,0,-2
28645441679,-2,-4,-1,2,2,-5,-7,-1
28645449885,-4,-5,-4,-3,-1,2,-2,-1
28645449885,7,4,2,-3,0,-1,-5,-1
28645464961,-3,-3,0,-2,-3,-4,-2,1
28645464961,-4,-8,-10,-8,-4,-2,1,0
28645465623,0,5,7,5,5,3,0,0
28645465623,-5,-5,-4,-4,-3,-1,-2,-3
28645479278,-1,-1,-1,-4,-2,-2,1,1
28645479278,-1,1,2,2,-3,-4,-2,-3
28645486784,-5,-3,-4,-4,1,-3,-1,-10
28645486784,10,-3,-4,-2,0,-3,-3,-1
28645501866,-1,3,2,1,1,0,-1,-3
28645501866,-3,-3,-3,-1,-2,2,1,-3
28645509962,2,-3,-2,0,-4,0,0,2
28645509962,11,5,-1,-4,-3,-1,0,-1
28645524974,-24,-14,-6,-1,2,0,-6,2
28645524974,4,5,5,2,2,4,-1,2
28645525674,-2,-2,-5,-5,-2,-5,-2,4
28645525674,-4,2,2,0,-1,0,1,1
28645539218,10,-3,-3,-1,1,-2,0,1
28645539218,-6,1,-1,-3,-1,0,0,-4
28645546770,-2,-4,-4,-3,-2,0,-1,0
28645546770,-2,0,0,-3,-3,-3,-2,-2
28645561722,3,5,10,7,2,-3,-8,-3
28645561722,-1,-5,-4,-2,-2,-1,-1,2
28645570056,-2,-1,1,-2,-3,0,6,-1
28645570056,22,6,2,1,-3,-3,-4,3
28645584920,-20,-10,-3,-1,2,2,4,0
28645584920,-2,-3,-9,-5,-4,-5,-3,-2
28645585646,-3,1,-1,4,1,-1,-2,2
28645585646,-4,2,1,-2,1,-1,0,-2
28645599216,2,1,-2,-2,1,2,-1,-2
28645599216,7,3,4,0,-3,-1,-3,0
28645606640,-8,-2,-3,-5,-3,-1,-1,-3
28645606640,-10,-4,-4,0,4,1,-3,-3
28645621847,9,5,-2,-1,-2,-3,2,-1
28645621847,-8,-5,-3,-1,0,1,4,0
28645629972,0,-1,1,4,1,0,0,-4
28645629972,-5,-5,2,-1,-3,-3,-1,1
28645644875,3,-4,-6,-5,-1,-3,-4,2
28645644875,-2,-5,-5,-3,0,-1,1,-1
28645645568,4,9,11,3,1,0,-1,1
28645645568,-4,2,1,-2,2,0,-2,-1
28645659248,-12,-3,1,-1,-1,0,1,-7
28645659248,-6,-1,-4,-5,-1,-4,-7,-5
28645666746,18,5,-3,2,2,2,1,12
28645666746,-1,4,-3,1,-2,3,1,-1
28645681810,2,5,4,2,-1,0,-2,-3
28645681810,3,1,1,-2,1,0,2,-4
28645689896,-4,-8,-6,-5,-5,-5,-3,-4
28645689896,-7,-10,-3,-5,-5,-5,-1,-2
28645704966,9,6,4,1,-2,-1,0,4
28645704966,-3,0,2,2,6,4,2,2
28645705595,10,4,4,1,-2,2,-2,1
28645705595,-8,-9,-7,-1,3,4,5,0
28645719247,0,-4,-2,-2,-2,-3,0,-1
28645719247,1,3,6,2,-1,-1,2,0
28645726723,-9,-12,-6,-6,-1,-2,-3,-1
28645726723,-1,2,5,3,-5,-3,2,-4
28645741688,2,2,4,0,-1,2,4,4
28645741688,-2,-5,-8,-7,-5,-3,-5,-4
28645749890,-2,-1,-2,1,0,1,3,-2
28645749890,3,8,8,4,2,-1,-2,0
28645764927,1,-1,-5,-1,-1,-3,-2,-1
28645764927,3,-1,-3,-1,-2,-3,-3,-2
28645765591,-9,-6,-10,-6,-3,-2,-3,-4
28645765591,-5,-4,-6,1,0,0,-2,-1
28645779283,0,2,1,-2,1,1,-1,-1
28645779283,1,-5,-1,-2,-1,-2,0,0
28645786880,-4,1,2,0,-2,0,-2,-2
28645786880,-6,-5,-7,-4,-4,-2,0,-2
28645801779,2,-1,3,6,4,3,-1,1
28645801779,2,2,1,2,2,1,-3,0
28645809890,-7,-1,-1,-1,-3,-3,-3,-3
28645809890,0,2,1,-3,-2,-1,-3,-1
28645824977,-4,-7,-10,-8,-6,-1,1,-4
28645824977,-2,1,-1,-2,-3,-4,-7,-1
28645825618,10,7,9,9,9,3,0,-1
28645825618,-2,-5,-5,-4,-2,0,0,0
28645839197,0,-4,-4,-1,-2,-2,-1,0
28645839197,3,1,0,-3,-2,1,2,2
28645846801,-6,-6,-12,-11,-4,-2,0,-3
28645846801,2,2,13,15,4,2,-1,1
28645861771,-1,-3,2,-3,-3,0,2,0
28645861771,-3,-5,3,1,0,-1,-1,0
28645869945,-4,-5,-2,-4,-3,-4,-1,1
28645869945,-6,-7,-12,-8,-1,-2,3,-2
28645884281,2,8,5,2,1,-2,-1,-1
28645884281,2,0,-4,0,1,0,-1,1
28645892444,4,8,11,3,-1,0,-1,-1
28645892444,0,-3,-1,-1,-1,-1,0,0
28645899239,-3,-3,-6,-2,-4,-1,-1,-4
28645899239,-3,-4,-7,1,0,-1,-2,-3
28645906659,-5,-5,-5,-4,-4,-1,-3,-2
28645906659,-2,4,4,2,2,4,0,0
28645921972,-4,-3,-5,0,0,-3,-3,-3
28645921972,0,-1,3,1,-2,0,-3,0
28645929956,0,-4,-2,-2,-5,-2,-1,1
28645929956,-2,-1,-6,-3,-3,-7,-9,-3
28645944256,2,-2,2,2,1,-1,-1,1
28645944256,-1,-1,-1,-1,2,0,2,-2
28645952466,-5,-6,-11,-4,-3,-3,-1,-4
28645952466,0,1,-3,-11,-7,-4,1,-2
28645959242,3,4,10,7,-1,1,4,3
28645959242,3,6,5,1,7,3,3,-1
28645966751,-1,-4,-2,-1,1,-2,0,0
28645966751,-3,-7,-6,-2,0,-2,0,-3
28645981747,0,-5,-13,-10,-3,-1,-1,0
28645981747,3,1,9,10,2,1,0,1
28645989933,-1,-2,5,4,-1,0,-2,-1
28645989933,1,1,2,2,2,-1,-1,-3
28646004273,-3,-3,1,-4,-6,-6,-4,-4
28646004273,-3,-5,-5,-4,0,-3,-1,-2
28646012520,0,-2,-4,2,3,-1,-2,-4
28646012520,0,-3,-2,-1,-3,-2,-2,-1
28646019285,-1,-6,-5,-8,-4,-1,0,1
28646019285,4,8,7,3,-5,-2,0,4
28646026749,-2,1,-2,0,6,3,1,1
28646026749,3,9,10,3,3,3,-1,0
28646041779,-6,-8,-17,-6,2,2,-1,-3
28646041779,4,9,17,13,-2,-1,1,1
28646049919,-1,-8,-2,0,-2,-3,-2,-1
28646049919,-1,-6,2,-2,-3,-2,0,2
28646064284,-4,-10,-24,-18,-8,-5,-5,-3
28646064284,-3,0,11,0,-3,-2,-2,-2
28646072331,6,5,9,10,12,4,2,1
28646072331,-2,-13,-7,-5,-3,-2,1,-2
28646079270,-2,-8,5,6,-2,-4,-3,-3
28646079270,-6,-13,-14,-13,-7,-6,-4,-3
28646086750,3,9,6,-2,-4,-3,0,0
28646086750,-3,6,-1,0,3,4,-1,-1
28646101754,0,15,4,3,2,2,-1,-1
28646101754,-3,11,-7,-2,-1,0,-3,-2
28646109858,-6,4,-9,-6,-5,-3,-4,-5
28646109858,-9,3,-3,0,-4,-3,-4,-7
28646124220,11,9,-4,-6,4,2,4,8
28646124220,-1,-2,1,3,-3,-3,-2,-1
28646132429,-1,-1,5,-1,0,-2,-1,0
28646132429,0,3,7,3,3,3,3,-1
28646147462,-5,-3,9,5,0,-4,-6,-4
28646147462,-1,-8,-13,-6,-2,0,0,-1
28646148092,3,-1,1,2,-6,-2,0,1
28646148092,1,-3,-4,-3,-5,-4,-4,-1
28646161756,0,-2,6,2,0,1,1,-2
28646161756,-3,-9,-21,-19,-4,1,1,-3
28646169957,-1,4,16,13,0,-1,-3,-1
28646169957,-4,-6,-5,-7,-3,-1,0,-1
28646184355,2,-1,8,6,2,3,-1,2
28646184355,-4,-3,1,-3,-2,-2,-6,-3
28646192434,-2,-5,-10,-10,-4,-2,-1,-3
28646192434,2,-2,-2,-1,-1,-2,0,-1
28646207360,-6,-5,-9,-6,-8,-6,-5,-6
28646207360,1,2,6,4,6,4,0,-2
28646208203,-1,-3,-5,-4,-5,-1,-1,-1
28646208203,4,3,3,2,1,-2,0,3
28646221749,-5,-1,-1,-4,-2,-2,-5,0
28646221749,-3,-6,-7,-4,-2,-4,-1,0
28646229933,-4,-4,-3,-1,-1,0,-1,-1
28646229933,1,3,-2,-4,0,0,2,-1
28646244255,2,8,11,7,2,2,6,-3
28646244255,-1,-3,0,1,0,1,3,0
28646252497,-1,-5,-7,-2,-2,0,2,-1
28646252497,-2,-4,-5,1,-2,-1,-2,-1
28646267348,4,3,2,3,3,5,1,3
28646267348,2,-1,0,0,1,-1,-1,1
28646268159,-4,-2,-6,-9,-3,-4,-3,-3
28646268159,-1,-1,-2,-3,0,-2,-8,0
28646281793,-2,-5,-3,-4,-5,-2,-2,1
28646281793,-2,0,1,2,-5,-2,2,-1
28646289947,-2,-4,-8,-3,-1,-2,2,-1
28646289947,1,2,4,3,2,0,6,2
28646304254,-3,-5,-7,-2,0,-3,3,-4
28646304254,2,5,10,9,1,-1,3,-1
28646312445,-1,2,5,-4,-7,-2,2,-1
28646312445,2,2,3,3,0,0,-2,-2
28646327409,0,-2,-5,-4,-2,-1,0,-3
28646327409,-3,-1,-4,-3,-1,0,-1,-1
28646328093,-4,-1,-4,-2,-2,-2,-2,-3
28646328093,-3,-5,-7,-7,-2,1,0,-1
28646341642,0,3,11,8,3,1,0,1
28646341642,1,-1,1,-4,-4,-2,-2,0
28646349928,1,-2,1,-1,3,2,0,3
28646349928,-1,-4,-4,-2,-2,-3,-3,-2
28646364259,-3,-3,-2,0,1,0,-2,1
28646364259,-2,-1,-4,-1,-1,-1,-1,-1
28646373188,-2,-3,-2,2,-2,-1,1,-1
28646373188,0,-3,-2,3,2,0,-1,-1
28646386874,-1,-5,-7,0,-4,-4,-1,-3
28646386874,-2,-2,-7,-3,-4,-2,-2,1
28646395637,-3,0,3,-1,-2,-4,-5,-2
28646395637,-3,0,-10,-11,1,1,0,-1
28646401787,0,3,11,5,5,1,0,1
28646401787,-3,-5,-8,-8,-1,-2,-4,-3
28646410554,4,2,7,6,4,5,0,0
28646410554,-3,-2,-1,1,-1,0,-2,-2
28646424129,-4,-5,-7,-5,-2,-1,-3,-4
28646424129,0,1,0,0,-3,0,-1,0
28646433142,-1,2,-5,-5,-3,-3,-4,-1
28646433142,1,0,1,3,-2,-1,-2,-1
28646446724,1,0,-3,0,2,0,0,0
28646446724,3,4,3,-1,-2,-3,-7,-2
28646455643,2,2,7,0,0,0,0,1
28646455643,-3,-2,0,-2,-4,-1,1,1
28646461697,-2,2,2,1,-2,0,-1,-1
28646461697,-3,-7,-2,0,2,1,1,-2
28646470641,-1,0,1,1,2,2,-3,-1
28646470641,1,3,9,3,-1,-1,-1,1
28646484236,-1,0,-3,-9,-5,1,4,1
28646484236,-2,-8,-6,-4,0,1,1,-1
28646493132,0,-3,-8,-3,-1,-1,1,-1
28646493132,0,6,3,4,1,-2,-2,-1
28646506688,0,4,2,4,2,-4,-3,-1
28646506688,-1,1,0,0,-1,-3,-1,-2
28646515652,-1,-3,-2,-2,-3,-2,-3,-1
28646515652,-1,-6,-1,-1,-2,-1,1,-2
28646521675,3,-2,-1,0,-1,-3,-4,-1
28646521675,-2,-1,-1,-3,1,-3,0,-2
28646530633,-1,2,4,3,1,0,0,-1
28646530633,-4,-4,-2,-3,-2,-2,-1,0
28646544310,2,7,6,2,0,1,2,2
28646544310,-3,-2,-3,-1,0,-2,-2,0
28646553142,-1,0,-3,-1,-1,-1,-1,-1
28646553142,-2,0,-2,3,-2,-2,-2,-1
28646566745,-3,-7,-8,-3,-1,-2,2,-2
28646566745,1,1,0,2,3,1,1,-1
28646575614,-1,-4,-5,-1,-1,-1,-1,0
28646575614,0,-3,-2,-4,-3,-2,1,0
28646581728,-3,-3,2,2,0,2,-2,-2
28646581728,1,-1,-1,0,-2,0,0,0
28646590628,-3,-5,-8,-5,1,0,-2,-3
28646590628,0,-1,7,7,3,0,-2,-1
28646604273,-3,-2,-1,-4,-2,-2,-1,-1
28646604273,-3,-4,-4,-4,-3,-1,-2,-2
28646613070,0,0,8,4,2,2,1,0
28646613070,-2,-3,-7,-5,-2,-2,-3,-1
28646626745,-2,0,-9,-6,-3,0,-2,-3
28646626745,-1,2,9,9,1,-2,-3,-1
28646635612,-1,1,5,1,1,1,1,2
28646635612,3,5,5,-1,1,-1,-3,-1
28646641656,-3,-4,0,-2,-4,-2,-2,-3
28646641656,-3,-6,-8,-4,1,3,1,-1
28646650650,-3,-5,-8,-5,-5,-3,0,-1
28646650650,2,0,8,5,-2,-3,-1,0
28646664153,-1,-4,-6,-3,0,-1,-5,-1
28646664153,0,3,3,3,-1,-3,-2,0
28646673113,1,-2,0,1,0,-1,-9,0
28646673113,-3,-5,-8,-5,0,1,-7,-2
28646686851,-2,0,0,-5,1,0,-3,-2
28646686851,0,1,-2,-2,-6,-1,-1,0
28646695653,-7,-9,-10,-4,-4,-3,-27,-4
28646695653,4,7,6,2,3,3,-3,2
28646701762,2,7,10,5,2,1,8,2
28646701762,0,4,4,0,-1,-3,12,1
28646710574,-1,1,-3,1,0,0,11,-2
28646710574,-1,-3,-6,-6,-4,-4,-31,-1
28646724164,-3,-1,-4,-4,-1,-1,-22,-2
28646724164,-2,-3,-6,-7,2,3,-7,-1
28646733142,2,4,4,1,-2,-5,1,-1
28646733142,-6,-7,-2,0,-4,-1,23,-3
28646746822,-5,-6,-2,2,-1,0,13,-1
28646746822,1,-4,-16,-11,-8,-4,-8,1
28646755668,4,9,24,18,4,2,2,3
28646755668,-3,-4,-6,-1,2,-1,5,-2
28646761751,2,6,10,1,0,-2,13,1
28646761751,-6,-4,-4,-3,-3,-3,9,-3
28646770639,-4,-5,-11,-9,-2,-2,-31,-4
28646770639,1,3,2,0,-1,-4,-3,-2
28646784271,-3,-8,-8,0,-2,-2,-2,-3
28646784271,2,4,7,0,-4,-1,15,1
28646793149,2,1,2,-5,-5,-6,3,-2
28646793149,-3,-4,-1,2,2,1,-1,1
28646806657,-5,-10,-7,-1,0,2,-19,-1
28646806657,2,2,3,-2,0,-2,-14,-1
28646815641,-2,-2,2,-1,0,2,8,-2
28646815641,0,-2,-6,-4,-2,-1,11,-1
28646821736,-3,1,-1,-2,-4,-4,29,0
28646821736,0,1,0,2,-1,0,27,2
28646830657,-5,-5,-8,-5,-1,-2,18,-1
28646830657,-2,-4,-2,-4,-1,-1,-6,-5
28646844160,2,0,3,4,-2,-1,-8,-1
28646844160,-4,-10,-6,-3,3,2,-7,-1
28646853144,-1,6,-4,-6,-4,-4,-1,-2
28646853144,1,5,3,2,0,0,-2,-3
28646866719,5,7,6,1,6,3,-10,0
28646866719,-7,-5,-3,1,5,4,-17,-5
28646875654,2,2,-3,2,3,3,6,2
28646875654,-1,4,4,1,-3,-1,2,2
28646881772,-5,-3,-5,-1,-1,-2,0,-3
28646881772,0,-1,-4,-3,0,-2,-2,-1
28646890654,-1,-4,-1,-1,-3,1,5,1
28646890654,-8,-11,-8,-5,0,0,-24,-1
28646904321,3,0,2,0,-3,-4,1,1
28646904321,2,1,2,-4,-7,-2,0,1
28646913113,-4,-4,-8,-9,-4,0,2,-4
28646913113,0,4,1,2,-2,1,3,2
28646927422,-2,-8,-8,-3,2,1,-4,-2
28646927422,-3,-4,-7,-8,-7,-9,-9,-2
28646934161,3,-4,10,12,9,5,25,1
28646934161,-1,-12,-5,-4,-2,-3,11,-1
28646941774,-1,-1,0,-5,-2,-3,-4,-1
28646941774,-2,2,-5,-2,-4,-3,-8,-3
28646950664,0,6,-2,0,-1,-1,-14,0
28646950664,4,9,-3,-2,-3,-3,-11,-2
28646964154,-5,-2,-1,-1,0,2,2,0
28646964154,6,14,11,2,-1,-6,-3,-1
28646973140,-7,-6,-13,-11,-6,-5,-3,-4
28646973140,0,6,11,9,5,2,10,0
28646987484,4,11,3,-1,0,-2,4,0
28646987484,-4,-4,-1,3,3,1,2,-1
28646994193,-1,-1,3,2,-1,-3,-5,0
28646994193,0,-3,-9,-8,-2,-2,-1,-2
28647001751,-3,-10,-9,-8,-4,-2,-2,-2
28647001751,3,5,17,7,-2,1,-1,-1
28647010616,-1,-3,-10,-7,-9,-6,-2,-1
28647010616,3,1,0,0,1,2,3,-4
28647024217,-3,-4,-2,3,-1,-1,-1,-3
28647024217,-8,-12,-14,-5,2,1,-1,-4
28647033120,9,13,20,15,1,-1,-1,3
28647033120,-3,-4,-15,-13,-8,-4,0,1
28647047400,-1,3,7,3,0,0,0,0
28647047400,0,-4,-5,-2,-1,-4,-8,0
28647054258,-5,0,-2,-5,0,0,-2,-7
28647054258,3,-2,14,21,8,5,6,9
28647070693,5,2,4,-2,-4,-3,-2,0
28647070693,-7,-4,0,-3,-2,-3,-1,-5
28647072112,-9,-12,-25,-8,3,-3,-3,-6
28647072112,1,9,16,2,-3,-1,1,0
28647084378,-2,-2,-7,1,2,1,-1,0
28647084378,1,3,-16,-6,0,5,3,3
28647093180,1,3,19,12,4,2,-1,1
28647093180,0,-5,-12,-13,-10,-4,-2,-2
28647107386,4,1,-6,-3,1,3,2,5
28647107386,-3,-5,-2,2,-4,-5,-1,-1
28647114261,7,2,3,3,5,4,2,3
28647114261,-7,-4,-1,1,2,-2,3,-4
28647130529,-7,-10,-20,-17,-9,-10,-9,-6
28647130529,2,2,7,10,4,2,4,1
28647132092,-12,-2,4,-1,0,-3,-8,-8
28647132092,1,5,10,4,1,0,3,-3
28647144193,9,2,2,2,-1,1,1,12
28647144193,3,0,6,6,3,3,2,0
28647153145,-1,-2,-1,-1,-2,-1,-4,1
28647153145,-11,-9,-22,-15,-3,-2,-5,-11
28647167450,-7,2,16,13,5,1,0,-4
28647167450,-1,-9,-10,-5,-3,0,-3,1
28647174144,-1,-3,-8,-3,-4,-5,-3,1
28647174144,-1,-4,3,2,-2,-3,-4,0
28647190492,1,1,-4,-3,1,1,-6,-3
28647190492,0,-1,2,4,4,1,0,-32
28647192078,1,1,4,-1,-2,2,5,-19
28647192078,0,-6,-10,-7,-7,-4,2,-4
28647204173,-6,-7,-6,-5,-2,-1,-4,4
28647204173,-12,-5,-16,-14,-7,-1,5,17
28647213081,13,3,-6,-2,-6,-3,-1,16
28647213081,-3,10,8,2,5,-2,-8,-6
28647227532,4,5,23,12,-1,-1,5,9
28647227532,5,3,2,-3,1,-2,-2,8
28647234254,-3,-6,-16,-11,-4,0,1,2
28647234254,-14,-22,-29,-20,-9,-5,-2,-1
28647250509,-5,-4,-4,-4,-2,-4,-6,-8
28647250509,1,12,18,8,0,-6,-5,-3
28647252087,4,-5,-3,5,7,1,-5,8
28647252087,-3,-9,-18,-6,-2,1,5,1
28647264207,-3,2,10,2,-2,-2,0,-7
28647264207,-9,-14,-32,-20,-12,-2,3,-2
28647273128,-2,7,15,9,6,2,-7,-2
28647273128,-2,-4,-1,-15,-13,-10,-8,-5
28647287421,4,-2,1,18,10,7,6,3
28647287421,-1,-11,-18,-7,-4,-3,-2,-4
28647294197,-13,-9,-12,-12,-2,-1,3,-11
28647294197,3,16,28,18,9,5,1,-4
28647310430,-2,-4,-12,-12,-6,-5,2,-2
28647310430,10,13,25,12,7,2,-4,3
28647312064,-11,-13,-26,-25,-14,-6,3,1
28647312064,2,3,4,14,8,6,12,3
28647324228,-4,-2,-2,-9,-7,-1,-1,-4
28647324228,3,4,-11,-5,-2,-2,-11,2
28647333092,-17,-29,-44,-20,-7,-3,3,-5
28647333092,5,2,1,-2,-17,-15,-12,4
28647347455,14,23,30,28,19,8,-5,7
28647347455,-12,5,28,6,0,-1,-1,-6
28647354244,14,8,0,-3,-1,1,1,3
28647354244,-3,-9,-9,-9,-3,-7,-21,-4
28647370603,1,-3,-6,0,0,1,3,-2
28647370603,-1,10,-2,0,5,2,1,-3
28647372111,3,16,29,12,1,0,9,2
28647372111,1,-9,-16,-3,10,13,6,3
28647384224,-3,-5,-23,-20,-16,-11,-11,-7
28647384224,-1,-5,2,-3,-2,-3,-8,-3
28647393137,3,-1,1,0,3,0,-6,-4
28647393137,1,-4,-19,-17,-9,-8,-5,0
28647407106,-7,6,3,-13,-6,0,-1,-10
28647407106,4,-1,-11,1,0,2,7,10
28647415621,10,9,1,0,4,4,1,7
28647415621,-14,-11,14,20,2,0,1,-5
28647430627,4,10,9,0,-4,-3,-3,2
28647430627,-5,-5,-18,-14,-8,-6,-5,-5
28647432075,-8,-10,4,11,-6,-11,-8,-7
28647432075,0,-6,-9,-10,1,3,6,2
28647444294,-4,-9,-9,3,2,7,18,0
28647444294,0,-7,-8,-3,-6,-3,3,0
28647453106,12,22,30,24,11,1,-15,5
28647453106,-2,-9,-5,-1,-4,-1,16,3
28647467365,9,13,16,7,0,-3,-4,2
28647467365,-5,-17,-26,-16,-6,0,9,0
28647474147,-4,-2,14,15,15,6,-11,0
28647474147,11,22,31,4,-2,-5,-6,0
28647490966,-14,-17,-30,-19,-10,-5,-3,-8
28647490966,13,9,18,4,12,13,5,8
28647492541,-11,-7,-11,-12,-8,0,1,-4
28647492541,9,11,40,28,19,8,3,7
28647504151,-11,-16,-8,8,0,0,6,-2
28647504151,1,2,-7,-10,-19,-13,-3,-9
28647513110,0,7,27,19,0,-16,-30,-10
28647513110,-13,-1,-19,-9,-4,3,0,-6
28647527458,16,-2,-4,1,-2,-11,-13,8
28647527458,8,7,39,35,13,1,-10,-3
28647534146,-2,-6,-4,-4,5,13,17,-1
28647534146,-11,0,-3,-2,-1,-2,-5,-5
28647550458,10,19,26,3,3,-2,-13,-5
28647550458,1,-21,-54,-33,-25,-15,-12,-2
28647552081,5,22,36,9,4,1,8,8
28647552081,11,8,-3,3,7,9,8,7
28647564293,-16,-20,-10,2,4,9,11,-1
28647564293,-2,4,-3,-8,-6,-12,-11,-9
28647573104,-6,-11,-17,-7,-4,-1,9,-5
28647573104,2,-7,-13,-5,-6,-2,13,2
28647587398,-1,0,-14,-17,-10,-11,-11,-11
28647587398,-7,-3,23,25,18,16,23,7
28647594178,2,-11,-23,-8,-7,-1,8,-1
28647594178,0,-1,-6,-10,-11,-7,-6,-7
28647610440,-4,-18,-33,-24,-13,-3,3,-3
28647610440,-8,-5,56,44,12,12,7,1
28647612102,-22,-17,-25,-16,-1,-1,-13,-10
28647612102,27,16,27,7,6,9,0,18
28647624176,-10,-5,4,13,2,-1,0,-2
28647624176,-12,-4,-4,2,3,-2,-14,-4
28647633143,20,17,8,-10,-9,-4,3,8
28647633143,-8,-1,-23,-4,6,5,14,-3
28647647476,3,4,8,-15,3,2,-4,7
28647647476,-6,8,31,28,7,7,18,0
28647654142,6,-1,-32,-20,5,15,23,10
28647654142,-16,1,6,-6,-4,-8,-10,-16
28647670631,13,2,-10,-8,0,0,2,11
28647670631,-7,-9,-8,-12,-3,-2,2,-1
28647672070,-4,-15,-7,-18,-23,-12,-8,-3
28647672070,-2,-3,7,15,8,2,-12,-5
28647684238,6,13,30,33,15,1,-4,5
28647684238,-8,7,39,40,21,11,-4,2
28647693112,7,-3,0,1,5,-1,-9,1
28647693112,-11,-22,-13,-16,-18,-7,-6,-9
28647707262,-1,22,18,-27,-27,-21,-20,2
28647707262,20,14,-29,-2,21,15,21,13
28647714209,2,20,38,23,6,-3,-15,1
28647714209,-3,-22,-70,-39,-15,-10,-1,-3
28647730604,-39,-1,37,14,-5,-4,3,-27
28647730604,38,6,-4,16,7,-7,-19,18
28647732072,10,-1,2,3,4,7,7,10
28647732072,-4,-1,3,-18,-18,-10,-5,-4
28647744201,0,-15,-21,-10,1,11,16,4
28647744201,-13,9,27,5,-4,-1,10,-10
28647753101,-3,2,16,23,4,-8,-12,-7
28647753101,15,10,-6,-26,-7,-7,3,8
28647767466,-9,-14,-4,26,15,5,2,2
28647767466,17,-16,-23,-26,-8,4,7,4
28647774153,-5,-14,-32,-25,-11,-10,-14,-1
28647774153,-11,1,13,26,11,8,-6,-9
28647790630,-7,-3,-29,-27,-17,-10,-16,-13
28647790630,-2,-2,-23,-5,-3,-7,-4,-2
28647792132,0,-7,-22,-14,-1,4,0,-1
28647792132,-35,12,41,32,9,3,2,-13
28647804053,48,-22,-70,-36,-4,-8,-15,17
28647804053,17,5,-23,-33,-5,-3,-20,2
28647813111,-22,-28,-25,-6,-1,5,15,-8
28647813111,15,1,27,31,15,-1,-13,6
28647827454,-39,-13,-36,-28,-19,-13,-13,-30
28647827454,3,1,-19,-30,-15,-4,0,5
28647834197,10,14,45,24,6,3,-14,2
28647834197,-12,8,-22,-48,-26,-17,-20,-17
28647849802,12,8,6,10,12,15,22,15
28647849802,-13,-13,-15,-6,-3,-3,-2,-8
28647856618,2,14,30,24,5,6,19,15
28647856618,-9,-30,-25,3,-9,-10,-1,-1
28647872979,-18,-31,-37,-37,-23,-6,16,-2
28647872979,0,17,54,26,0,-10,-11,0
28647874581,-6,-9,-33,-21,5,7,9,-11
28647874581,22,20,12,-4,1,5,12,13
28647887418,1,-8,-15,-6,-12,-10,-3,1
28647887418,-24,7,36,26,13,9,6,-7
28647894246,0,6,-7,-38,-23,-18,-13,-8
28647894246,18,2,-12,10,23,17,15,17
28647909818,7,24,45,24,12,7,1,4
28647909818,-17,-14,-10,-12,-17,-10,-1,-16
28647916753,10,4,-8,-24,-11,-4,2,15
28647916753,13,9,9,23,11,7,-5,7
28647924157,0,11,27,18,12,-8,-40,-11
28647924157,4,20,0,-20,-7,0,7,-3
28647933148,2,-1,4,20,9,5,-12,8
28647933148,-9,-14,-15,-12,-3,2,0,-3
28647947448,-3,-9,17,17,6,3,-1,-10
28647947448,3,9,-10,-15,-7,-4,-4,6
28647954158,-19,-41,-34,15,-5,-11,-6,-18
28647954158,-12,-5,17,8,1,-1,-5,-6
28647969894,-3,12,6,-13,-7,-9,-19,-13
28647969894,9,-16,-33,-24,-3,0,1,6
28647976766,-6,4,48,36,14,7,15,0
28647976766,-4,-10,-24,-26,-21,-13,0,-3
28647993117,26,24,48,63,42,25,26,19
28647993117,6,6,-7,-6,5,4,-5,-7
28647994581,-10,3,-9,-18,-13,-18,-21,-11
28647994581,-1,-5,-22,-29,-27,-8,2,-1
28648007376,-2,4,38,41,15,6,-2,0
28648007376,7,12,2,-7,-6,-7,-25,-5
28648014175,-3,5,-10,-7,-10,-8,1,-8
28648014175,-6,-8,-5,16,9,10,23,6
28648030017,3,11,7,-21,-4,-21,-42,-2
28648030017,2,-29,-47,6,6,0,-17,1
28648036722,3,2,3,3,-1,-1,12,3
28648036722,-5,5,27,9,-4,-11,-23,-15
28648053160,4,10,1,11,8,18,31,7
28648053160,-10,-9,-11,-20,-15,-11,1,5
28648054569,-7,-16,-27,-7,-6,-3,0,-4
28648054569,8,19,66,59,33,15,7,3
28648067421,-4,-18,-57,-45,-21,-12,-6,3
28648067421,-1,12,2,5,4,4,1,-6
28648074203,-6,-26,-5,2,0,1,12,9
28648074203,-7,-19,-47,-14,11,10,-7,-3
28648089830,-7,-17,-10,13,-5,3,23,8
28648089830,-10,-8,-11,-15,-9,-7,-11,-18
28648096735,0,28,53,30,15,9,0,-2
28648096735,11,9,-28,-4,10,7,-3,4
28648112988,-3,-17,-10,10,4,6,21,6
28648112988,-5,-5,24,14,0,1,16,3
28648114599,-18,2,-40,-45,-14,-8,-12,-15
28648114599,22,16,37,19,2,0,-8,8
28648127389,-10,-14,-19,-16,-14,-3,12,-2
28648127389,1,-7,2,26,22,-1,-21,-1
28648134170,0,-3,7,9,8,4,-26,-10
28648134170,-8,-7,-21,-32,-28,-26,-9,-7
28648149905,-6,5,26,3,-3,-6,-9,-9
28648149905,3,-15,-29,-19,-11,5,28,14
28648156606,21,9,17,37,29,24,24,16
28648156606,-4,-8,-18,-7,-6,-8,-8,-2
28648173050,-12,-14,-1,0,-10,-7,-9,-15
28648173050,-17,1,-1,-34,-34,-20,-1,-8
28648174593,7,13,30,47,23,23,26,10
28648174593,-13,-8,-16,-17,-6,-3,4,0
28648187371,5,4,-1,-13,-8,-6,-8,-7
28648187371,-2,-1,9,6,-8,-9,-14,-13
28648194245,-7,-26,-61,-52,-28,-15,10,5
28648194245,0,15,24,16,23,16,-14,-6
28648209858,2,6,4,-23,-13,-7,-9,-4
28648209858,-1,0,11,20,4,-3,-1,3
28648216768,0,7,-3,-20,-23,-21,-22,-16
28648216768,-3,-7,-10,-12,0,2,14,10
28648233139,-8,0,6,7,6,2,-8,-10
28648233139,13,13,27,26,21,20,19,11
28648234589,10,-7,-6,14,13,11,22,28
28648234589,4,5,15,-5,-8,-5,-3,3
28648247285,11,12,8,5,7,8,8,12
28648247285,-9,11,26,4,3,-4,-7,-10
28648254246,-12,-5,3,1,-5,-4,3,-5
28648254246,1,-17,-8,5,1,1,-1,-2
28648269896,5,3,-6,7,3,7,21,12
28648269896,-21,-19,-28,-15,-9,-13,-23,-18
28648276718,3,0,-28,-34,-7,1,-19,-17
28648276718,-3,6,50,21,-4,4,20,7
28648293050,-10,-9,-49,-35,-13,-4,14,-7
28648293050,9,23,20,14,11,-2,-27,2
28648294553,3,5,16,7,1,-1,2,8
28648294553,-1,2,-4,-7,-9,-8,-9,-11
28648307486,9,2,-20,-15,-1,-6,-10,7
28648307486,6,-4,-33,-25,-7,9,18,6
28648314231,-1,12,45,34,18,11,17,11
28648314231,9,19,21,17,9,-4,-10,-2
28648329875,-6,-6,8,-3,-6,-6,-3,-4
28648329875,-14,-21,-25,-7,1,9,27,-5
28648336706,-14,-18,-50,-62,-33,-19,-17,-9
28648336706,9,1,5,16,12,6,-4,3
28648353036,7,10,42,38,18,6,-20,-3
28648353036,1,1,18,7,-11,-6,4,1
28648354599,3,1,-13,-16,0,4,5,-4
28648354599,-13,-13,-13,-3,-6,-6,9,-2
28648367307,-5,-22,-32,-3,1,3,14,10
28648367307,-3,8,63,48,31,12,-11,-12
28648374107,-6,-13,-17,-10,-11,-6,16,7
28648374107,0,2,0,-3,-1,-3,-7,-2
28648389871,-3,-2,-4,2,-3,4,14,6
28648389871,3,1,-23,-29,-11,-12,-9,-2
28648396674,0,-1,26,34,15,7,-3,-7
28648396674,-5,-19,-4,3,-5,-2,8,9
28648413049,-7,-10,-13,-24,-14,-11,-25,-18
28648413049,3,-7,10,17,11,4,13,17
28648414566,-4,9,0,-2,-2,-3,-17,-16
28648414566,7,-4,-40,-32,-12,-1,5,2
28648427386,-9,17,58,42,3,-5,0,-6
28648427386,-11,-10,-16,-15,-13,-10,5,0
28648434137,31,22,30,19,8,5,-2,6
28648434137,-25,-10,-6,-6,-6,1,6,-10
28648449871,-5,-3,13,6,-1,-3,-2,-2
28648449871,0,3,0,-7,-12,-7,-1,-6
28648456667,-11,-10,-4,-7,-14,-15,-12,-7
28648456667,11,23,10,6,22,12,-7,-5
28648473037,-6,-5,1,2,-6,-7,-15,-13
28648473037,12,-5,-23,-20,5,17,15,28
28648474629,-7,-2,4,3,0,-9,-13,-8
28648474629,1,-13,-35,-17,-9,-6,-4,-9
28648486621,7,-7,-10,10,13,13,14,13
28648486621,-14,-26,-47,-36,-19,-10,-10,-3
28648495671,-5,12,24,12,4,-7,-35,-13
28648495671,-10,-17,-14,-19,-11,-12,-16,-11
28648509817,35,28,22,13,23,19,10,25
28648509817,4,-3,-17,-11,-6,1,6,3
28648516667,-1,-4,-27,-18,-5,0,13,6
28648516667,-14,1,63,57,22,3,-7,-12
28648533074,-30,-14,-43,-54,-17,-6,-11,-46
28648533074,0,-10,14,31,2,3,7,-5
28648534575,26,10,8,6,1,-3,7,44
28648534575,0,-1,-1,-24,-18,-11,-7,-4
28648546752,0,15,25,23,9,7,7,-1
28648546752,-15,-1,26,17,4,2,20,-8
28648555594,-14,-6,-19,-17,-3,-1,-2,-16
28648555594,29,29,22,23,18,22,25,29
28648569902,-2,-1,16,3,6,8,4,7
28648569902,3,12,11,8,6,-11,-44,-20
28648576748,6,6,16,17,15,9,11,-1
28648576748,6,3,-25,-31,-16,-3,6,17
28648592969,5,3,0,3,10,4,-6,-8
28648592969,5,23,26,17,7,8,9,0
28648594501,5,-2,-10,-9,-8,-11,-4,7
28648594501,-9,-17,-23,5,4,1,-9,-9
28648606582,-5,-10,-10,7,-5,-5,-5,0
28648606582,-1,-7,-27,-30,-14,-10,-2,-6
28648615627,-19,-9,-15,-5,10,12,-1,-3
28648615627,10,3,3,3,-1,-4,6,7
28648629909,-7,-21,-69,-61,-26,-14,-9,-2
28648629909,10,10,36,39,14,2,6,5
28648644195,-15,-27,-53,-42,-35,-20,-19,-17
28648644195,-1,-6,3,-1,3,7,10,-2
28648653107,5,16,16,15,14,5,10,8
28648653107,-15,-8,-8,-10,-5,0,8,-5
28648654575,7,4,-10,-9,-1,-1,-4,-3
28648654575,-4,0,11,14,19,14,5,-1
28648666714,-1,3,13,10,-8,-11,-15,-8
28648666714,-4,-13,-9,0,-5,-2,-14,-1
28648675729,9,21,19,4,-6,-12,-10,-2
28648675729,-2,6,13,2,-6,-4,5,-1
28648690047,-5,-22,-13,6,1,1,8,2
28648690047,-12,-21,-40,-34,-9,-9,-24,-4
28648696699,-6,-4,33,42,11,12,29,4
28648696699,-18,-17,-25,-15,-13,-14,-5,-14
28648713109,7,0,-8,-35,-25,-15,-13,0
28648713109,6,6,-22,-15,2,11,16,11
28648714564,-9,-9,-7,-3,-2,-5,-21,-21
28648714564,3,6,12,4,-2,3,8,-1
28648726647,5,-3,6,18,12,1,-2,19
28648726647,10,0,-12,-9,0,7,15,3
28648735563,9,17,9,-4,8,-3,-10,5
28648735563,1,-1,-7,9,8,-2,-7,0
28648749923,11,16,-17,-23,-16,-10,-3,-5
28648749923,-16,1,32,27,16,7,-12,-13
28648756672,-11,-9,-23,-14,-3,0,10,3
28648756672,13,4,27,13,-9,-14,-18,4
28648772434,3,4,-4,1,13,10,4,2
28648772434,5,-4,-12,-6,-4,-2,5,8
28648779258,-5,-7,4,-1,-5,-1,0,-7
28648779258,-12,-4,-9,-8,-1,-2,-7,-9
28648786703,-4,1,5,2,-3,-2,3,-2
28648786703,6,2,-36,-27,-15,-13,-15,-6
28648795615,5,32,87,67,28,17,13,8
28648795615,14,2,-7,-12,-9,-7,-13,0
28648810588,-7,-5,3,4,4,4,6,3
28648810588,-9,-15,2,1,-13,-14,-6,-1
28648816691,-3,-9,-24,-31,-23,-12,1,-2
28648816691,5,10,-8,-4,6,4,3,-9
28648831744,-18,9,46,37,7,2,6,10
28648831744,2,-6,-6,-1,3,3,5,-5
28648839090,0,-9,-15,-12,-8,-2,2,1
28648839090,-6,0,4,1,-1,-4,-5,-1
28648854896,-8,-26,-50,-34,-16,-10,-5,-9
28648854896,4,11,25,13,1,1,3,6
28648855600,8,7,0,0,3,-4,-11,-3
28648855600,-7,-11,-9,0,0,0,1,1
28648870539,10,7,-18,-21,-13,-7,-6,-3
28648870539,4,17,44,23,18,13,14,8
28648876569,-6,-4,-8,-6,-3,-4,-1,-5
28648876569,6,-2,-10,-16,-7,-1,-4,2
28648891651,17,7,11,15,10,5,2,13
28648891651,-4,-7,-6,-5,-4,-6,-4,-3
28648899304,-1,-4,-20,-16,-5,0,-4,-2
28648899304,-18,-7,-11,-11,-6,-4,0,-12
28648914843,-5,-4,16,14,3,3,2,-7
28648914843,10,12,-4,-11,-9,-8,-10,2
28648915500,-4,-8,2,7,7,7,8,0
28648915500,-4,-10,-16,-7,-6,-4,-1,0
28648930584,-7,0,2,2,-1,1,0,-11
28648930584,1,2,-2,2,1,-2,-4,0
28648936735,-1,-3,-1,-5,-3,0,0,-2
28648936735,12,20,23,17,9,4,10,10
28648951605,1,3,2,-4,-2,-2,5,0
28648951605,-5,-1,1,5,2,-3,-4,-4
28648959221,-5,-12,-11,-5,5,5,2,-2
28648959221,0,-5,-5,-14,-6,-4,7,-1
28648974780,-5,-4,4,2,1,-1,17,-5
28648974780,-9,-17,-15,0,-6,-3,15,-3
28648975548,7,0,-5,-4,-11,-8,-14,0
28648975548,-4,-1,1,2,1,-1,-26,1
28648990584,0,-1,5,5,1,-2,-23,0
28648990584,-1,-6,-6,-5,-7,-3,-17,-3
28648996666,-8,-8,3,1,2,2,-4,-1
28648996666,7,-3,-19,1,-3,-1,-7,4
28649011673,8,16,14,1,8,8,-3,3
28649011673,0,5,2,-2,-1,-1,-25,-1
28649019175,-11,-18,-17,-4,1,-3,-8,-4
28649019175,11,19,19,10,-1,3,11,7
28649034969,-5,-2,-5,-4,-3,-7,4,-6
28649034969,0,-3,-10,-5,2,0,21,1
28649035528,2,0,3,-6,-12,-7,13,-1
28649035528,-10,3,7,-7,-2,-5,-6,-7
28649050600,-17,-35,-30,6,8,2,-1,-8
28649050600,15,32,32,0,-8,0,-1,8
28649056696,-1,-2,2,5,9,3,-13,-1
28649056696,-4,-3,5,5,8,3,-16,-3
28649073064,-8,-18,-14,-7,-5,-4,-19,-3
28649073064,-21,-24,-10,-8,-10,-13,-26,-18
28649079199,-9,-14,-23,-10,-7,-2,-16,-4
28649079199,18,-2,-4,-2,-10,0,6,10
28649094874,12,21,17,2,3,3,5,9
28649094874,1,-10,-16,-1,3,2,-3,4
28649095549,-5,-2,-8,-8,-3,-3,11,-7
28649095549,-32,-35,-29,-17,-8,-6,9,-22
28649118751,14,27,30,7,-25,-15,5,4
28649118751,8,4,15,19,51,39,-19,9
28649119525,4,20,21,9,1,1,-26,3
28649119525,-16,-21,-16,-10,-2,1,-9,-6
28649131665,2,-5,-6,-14,-11,-2,13,0
28649131665,-6,-8,-10,-14,-20,-13,0,-7
28649139169,7,12,15,16,11,2,8,5
28649139169,-5,7,0,-7,-3,-2,33,-3
28649154875,-9,-9,-17,-1,2,-4,7,-5
28649154875,8,33,29,2,-6,-1,37,6
28649155632,8,16,7,13,13,6,50,3
28649155632,1,8,-2,4,-4,-2,13,3
28649170596,3,-1,-5,-5,2,1,-8,3
28649170596,-1,-3,-5,-2,-3,-4,-16,-2
28649176595,-5,-15,-11,-14,-17,-9,-19,-5
28649176595,5,8,19,8,6,3,-12,4
28649191732,-2,-5,-1,6,9,10,-14,-4
28649191732,-16,-20,-19,-10,-7,-6,-12,-14
28649199093,7,-13,-6,1,-5,-6,6,8
28649199093,10,19,16,-1,7,6,-4,6
28649214868,-9,-16,-18,-5,0,-4,-3,-6
28649214868,-1,16,20,9,-4,-4,15,-3
28649215548,0,-2,-7,-3,1,1,8,-1
28649215548,-3,-9,-12,-9,-9,-6,-10,-3
28649230579,-2,1,7,13,6,3,2,1
28649230579,-3,-3,0,4,7,3,17,-2
28649236735,3,5,-3,-20,-29,-15,-3,0
28649236735,-6,1,14,20,38,19,2,2
28649251725,6,9,-1,-8,-5,-6,3,2
28649251725,-4,-11,-11,0,-2,-5,4,1
28649259125,0,5,4,-2,2,5,0,1
28649259125,-2,-3,-6,-9,-20,-15,-7,-5
28649274787,-7,-4,-2,-1,-3,1,0,-6
28649274787,3,-2,-9,-4,0,-1,-1,2
28649275568,-8,-3,-2,-1,-2,-2,-5,-5
28649275568,3,-2,-4,0,-3,-5,1,0
28649290603,7,8,8,4,8,6,3,4
28649290603,5,4,5,-3,-6,-4,-1,1
28649296640,-10,6,8,2,5,-1,0,-7
28649296640,-1,-8,-4,0,-4,-2,-4,-2
28649311589,-1,-2,-1,-5,-1,1,-3,1
28649311589,1,-1,-3,-4,-7,-2,-2,1
28649319264,5,5,10,7,4,2,-8,3
28649319264,-6,2,5,4,2,4,-6,-1
28649334776,-9,-10,-8,-10,-20,-13,-10,-9
28649334776,11,8,2,9,21,18,5,11
28649335469,1,1,-3,0,5,3,18,-1
28649335469,1,-1,-5,-7,-10,-8,-2,-2
28649350571,-2,4,7,2,2,0,0,-1
28649350571,-8,-6,-8,-4,-6,-5,-3,-5
28649356753,4,2,0,-2,0,1,-5,1
28649356753,3,1,-3,-10,-5,-3,-6,0
28649371669,-2,-17,-16,-4,-1,-1,-4,-3
28649371669,4,7,7,1,-1,-3,-6,1
28649379129,-1,-8,-7,-2,0,1,-4,0
28649379129,-2,-1,0,0,-4,-4,-3,-2
28649394851,-7,-9,-8,-1,-3,-2,-2,-2
28649394851,-1,1,1,-3,-4,-7,-3,-3
28649395535,-1,-3,2,6,2,1,-6,0
28649395535,-1,0,-1,3,-1,1,0,2
28649410586,7,16,11,7,7,4,-3,4
28649410586,-4,-6,-11,-9,-10,-7,4,-4
28649416656,-3,2,2,0,0,-2,10,-5
28649416656,-4,-15,-10,0,4,6,6,-2
28649431607,3,8,10,-4,-2,-2,5,4
28649431607,-1,-7,-3,-2,-5,-5,5,-1
28649439166,-3,-4,-1,1,4,3,-2,-2
28649439166,-2,-1,2,0,-5,-6,-2,-5
28649454880,-3,-10,-14,-4,-4,0,-5,-1
28649454880,-4,-1,3,-1,-1,-1,-9,-1
28649455541,3,2,1,3,1,1,-3,2
28649455541,-3,0,1,0,-4,-2,-3,-4
28649470594,-2,-2,2,3,3,0,1,-4
28649470594,-3,-3,-2,2,3,0,-4,-3
28649476697,-3,-7,-7,-6,-8,-4,-3,2
28649476697,4,-4,-3,1,2,2,-2,0
28649491589,0,-1,6,-3,2,-2,-4,-1
28649491589,-1,-14,-8,-5,-1,-1,-1,-2
28649499212,2,3,2,-1,-4,-4,-2,-2
28649499212,1,7,-4,-2,0,-1,2,1
28649514887,-1,7,1,-2,0,-3,2,-1
28649514887,-2,4,-2,2,-1,1,5,-3
28649515550,-2,-2,-3,-5,-2,0,0,0
28649515550,-5,-2,1,-3,-5,-5,-2,-3
28649530582,0,-9,-17,-2,1,-1,-4,-2
28649530582,1,6,7,2,2,-1,-1,0
28649536679,0,3,0,0,-2,-2,-3,-1
28649536679,-4,-3,-5,1,1,0,-2,-2
28649551566,-1,8,8,1,-2,1,1,2
28649551566,1,-1,-3,-4,-6,-2,-3,-1
28649559094,1,-3,-3,0,2,4,2,3
28649559094,-3,-1,0,-3,1,1,0,0
28649574842,-4,-3,-2,-1,-2,-2,-4,-2
28649574842,0,1,-2,1,0,-1,-1,-1
28649575571,0,-4,-5,-4,0,-1,-2,-2
28649575571,4,6,5,0,-1,0,1,0
28649590645,2,2,3,-2,-3,-3,1,-3
28649590645,-2,0,-6,-5,-4,-4,-5,-1
28649596696,-7,-6,-5,3,4,-1,-3,-2
28649596696,-1,-2,-4,-2,-1,-2,0,-1
28649611697,0,6,5,-2,-1,-2,1,1
28649611697,-6,-10,-8,-3,-2,-2,1,-2
28649619224,0,3,-1,-5,-4,-2,1,-2
28649619224,2,3,4,6,5,-2,-4,0
28649634896,-6,-9,-1,5,4,0,1,-2
28649634896,-2,-3,2,2,2,-1,1,0
28649635522,-1,-2,-5,-6,-6,-4,0,-1
28649635522,-3,-5,-13,-7,-4,-1,0,-2
28649650575,2,5,13,9,4,2,2,2
28649650575,0,0,-5,-8,-6,-2,-3,-1
28649656786,-2,-3,-8,-5,-3,-3,-6,-2
28649656786,3,7,11,4,0,-1,-4,1
28649671604,-5,-9,-13,-7,-8,-1,6,1
28649671604,3,4,1,1,2,1,-3,0
28649679175,1,0,0,1,0,0,-1,0
28649679175,-8,-13,-11,-4,-1,0,-1,-2
28649694877,2,3,-6,-7,-7,-4,-6,-2
28649694877,0,4,10,8,1,1,0,0
28649695519,-4,-7,-4,-1,0,2,4,0
28649695519,-3,5,-1,-4,-4,-2,-2,-2
28649710570,-1,-3,-3,-2,1,0,1,1
28649710570,-4,-10,-8,-6,-9,-5,-2,-2
28649716706,1,0,3,7,8,4,-3,-2
28649716706,1,2,4,0,2,2,2,0
28649731846,5,6,0,2,3,-2,-6,-2
28649731846,3,5,-3,-10,-8,-5,-3,-1
28649739144,-5,-6,2,3,1,1,-1,-2
28649739144,-1,-8,-2,-1,-1,-2,-2,-3
28649754172,5,8,11,0,-3,1,5,4
28649754172,-3,-1,1,6,7,1,-1,-1
28649761704,1,2,-5,-4,-3,-2,0,0
28649761704,-3,-5,4,3,-1,1,2,1
28649770619,-2,-5,-6,0,-3,-2,-3,0
28649770619,-6,-3,2,4,0,0,2,-5
28649776677,6,6,6,0,1,-2,-4,0
28649776677,-1,-4,-5,-2,-1,0,0,-2
28649791638,-6,-8,-11,-7,-3,0,4,-1
28649791638,4,10,4,1,-1,-2,-6,-2
28649799259,-2,0,-6,-1,-3,-3,-6,-5
28649799259,-1,5,-1,-3,-3,-2,1,0
28649814183,-3,-4,-1,0,-1,-4,-3,-4
28649814183,0,-5,-12,-12,-5,-5,-3,-2
28649821715,2,2,15,8,1,0,2,0
28649821715,-3,-10,-3,1,1,2,0,0
28649830585,-2,4,7,-3,-9,-4,-3,-1
28649830585,-2,-5,0,3,5,4,3,1
28649836757,-1,0,5,3,0,3,0,0
28649836757,2,4,-1,-1,-6,-3,-3,-1
28649851689,-3,-6,-6,-4,2,1,-4,-3
28649851689,1,-1,-1,2,-3,-3,1,3
28649859095,0,5,5,-3,-3,-2,2,0
28649859095,0,-3,-12,-5,-4,-5,-4,-3
28649874118,5,8,12,11,5,0,-3,-3
28649874118,-2,3,3,0,0,-3,0,-1
28649881689,-7,-11,-25,-16,-6,-6,1,-2
28649881689,6,18,38,22,8,1,3,4
28649890543,4,2,-5,0,5,1,1,1
28649890543,-2,-3,-2,-2,-1,-3,0,-1
28649896615,-4,-8,-7,-4,-3,-1,-4,-3
28649896615,-3,0,-6,-12,-9,-2,-1,-3
28649911559,-2,0,-4,-2,0,1,-3,-1
28649911559,-1,-5,-1,4,4,6,1,0
28649919222,0,-3,-3,1,0,-1,-2,0
28649919222,1,4,-1,-3,-2,-2,0,-1
28649934140,-7,-9,-3,1,0,-1,4,-2
28649934140,2,6,0,-3,-2,-2,-4,0
28649941628,-2,1,13,0,0,-2,-1,-3
28649941628,-3,-6,-6,-5,0,0,0,-1
28649957271,-3,-4,1,-2,-5,-3,-2,-2
28649957271,-4,-7,4,6,1,3,6,0
28649958015,0,-5,-8,-3,-4,-2,-3,0
28649958015,0,-1,-1,2,3,1,-2,0
28649971577,-3,-3,-11,-5,-3,-3,-5,-3
28649971577,-2,-2,-2,-1,-2,-1,-1,2
28649979171,-3,3,6,4,1,2,2,0
28649979171,-3,-5,-13,-9,-2,-3,-3,-2
28649994376,-4,-9,-2,3,-1,0,0,0
28649994376,5,12,7,-3,-6,-6,-6,-2
28650001696,1,0,-3,-2,1,0,-1,-2
28650001696,4,3,5,2,-2,-2,-3,1
28650017275,-2,-5,-3,-4,1,-3,-1,-2
28650017275,-3,-6,-7,-7,-4,-3,-4,-2
28650017990,-4,-5,-3,0,-3,-1,-1,-3
28650017990,1,-1,-1,0,-6,-6,-4,-3
28650031601,0,-1,-2,0,4,1,0,0
28650031601,-3,-2,-5,-3,-4,-1,0,-3
28650039139,-2,-5,-4,0,-2,0,1,1
28650039139,-1,-2,0,3,1,-1,0,-2
28650054067,-3,1,1,1,-3,0,-4,-2
28650054067,6,-5,-13,-8,0,1,1,4
28650062395,1,5,9,4,3,0,-3,0
28650062395,-1,-1,-2,-4,-1,-2,-1,0
28650077240,-4,-5,-10,-9,-6,-5,0,-1
28650077240,-5,-6,-4,7,3,1,0,-2
28650078016,5,13,8,4,3,2,0,1
28650078016,-2,-3,1,1,1,2,2,1
28650091547,-3,-2,-1,-2,-1,-1,-1,-1
28650091547,1,1,2,3,1,1,-2,-1
28650099181,-1,-4,-5,-1,-3,-3,-1,-2
28650099181,-3,-3,-6,-5,-3,1,-1,-2
28650114139,1,3,-2,-6,-2,-1,-1,-2
28650114139,-3,-5,-3,-3,-5,-5,-2,-3
28650122397,-2,-1,1,1,-1,0,1,1
28650122397,-2,-5,-6,-3,1,-2,-1,-2
28650137240,2,0,1,2,-2,-3,-2,0
28650137240,-3,-9,-9,-3,0,-2,0,-2
28650138023,0,-2,8,6,2,2,2,1
28650138023,1,5,6,-2,-5,1,1,2
28650151581,1,-1,-5,-3,-1,-1,-1,-2
28650151581,-3,-1,3,5,4,3,2,0
28650159028,0,-1,-3,0,1,-1,-1,-2
28650159028,1,-2,-3,-3,-2,-3,-2,-1
28650174106,-2,0,1,3,0,1,-1,0
28650174106,-2,0,-5,-5,0,-1,-1,1
28650182181,-5,-3,-5,-2,-4,-3,-6,-6
28650182181,0,-1,0,0,-1,-2,0,0
28650197278,-2,-3,8,6,1,1,4,1
28650197278,2,4,2,-7,-4,-2,2,2
28650198007,-1,-6,-14,-12,-8,-3,4,2
28650198007,-3,-6,-5,-2,2,1,-2,-3
28650211529,2,3,8,7,2,1,1,0
28650211529,-2,0,7,4,2,1,-4,-1
28650219183,0,3,-8,-12,-1,-2,-6,-4
28650219183,-2,-3,3,7,-1,1,0,1
28650234161,0,-4,-8,-11,-5,-2,-1,-2
28650234161,0,-8,1,9,1,-1,-2,-1
28650242305,3,16,16,2,3,1,-2,0
28650242305,-4,-1,-1,0,1,1,2,-1
28650257244,0,7,8,4,1,-1,-6,0
28650257244,-9,-7,-9,-8,-7,-3,3,-3
28650257988,4,-5,-6,0,0,0,-3,0
28650257988,-3,1,4,3,0,-4,-4,-3
28650271553,5,-2,-9,-6,-4,-3,3,1
28650271553,-2,-1,-9,-6,-2,1,3,-2
28650279147,-3,1,20,14,3,1,-1,0
28650279147,2,0,-3,-3,0,0,1,0
28650294167,-1,-1,-6,-4,-1,-2,-6,-4
28650294167,0,-2,-3,-5,-2,-2,-4,0
28650302403,-5,-11,-12,-5,-2,1,2,-2
28650302403,1,-3,-8,-5,0,-1,-1,-1
28650317199,-1,0,-2,-2,-4,-5,-1,0
28650317199,4,6,2,3,2,1,-1,-2
28650318006,-3,-6,-7,-5,-4,-1,1,-1
28650318006,-2,2,3,0,0,1,-2,0
28650331544,-6,-10,-12,-5,-1,1,3,-1
28650331544,-1,2,2,-5,-3,-5,-6,-4
28650339199,-1,-5,-6,4,0,-1,-2,-1
28650339199,-2,5,22,16,5,1,2,-1
28650354175,3,5,6,1,-1,0,-3,1
28650354175,-1,-2,-1,0,2,1,0,-3
28650362324,-3,-3,-5,-5,-5,-4,2,-2
28650362324,3,-1,-9,-8,-3,-2,-3,-1
28650377247,-2,-5,-9,-10,-3,-3,-4,-3
28650377247,2,6,20,19,6,3,2,3
28650378015,-2,-4,-12,-11,-5,-3,4,-2
28650378015,0,0,-3,-3,-3,-2,1,0
28650391567,0,3,-1,-3,6,1,-4,-2
28650391567,-1,-1,-3,-3,-1,-6,-6,-1
28650399312,-4,-4,-5,-7,-5,-4,-4,-3
28650399312,6,5,0,0,0,0,1,2
28650414224,0,2,5,7,2,2,-2,3
28650414224,0,2,-2,-3,-2,-1,-4,0
28650422348,-2,3,3,1,-3,-2,-5,0
28650422348,-4,-10,-16,-9,-7,-5,-3,-2
28650437254,2,4,8,0,-6,-2,-8,-2
28650437254,-3,-3,-3,-4,-2,-3,3,-3
28650438015,-2,-4,-2,3,1,1,10,1
28650438015,-2,-2,-4,-3,2,-1,5,-1
28650451666,-2,-4,4,5,3,0,5,-1
28650451666,-2,-4,1,1,-1,-3,2,-1
28650467441,5,-4,3,-1,0,0,-3,0
28650467441,1,-1,-6,-7,-6,-4,-1,0
28650474102,-1,2,-2,-2,-1,-1,-4,-3
28650474102,2,3,4,2,-2,1,-1,2
28650482380,2,9,3,2,2,2,5,3
28650482380,-7,7,4,4,2,0,6,-3
28650497231,6,2,-1,0,-2,-3,-1,3
28650497231,-6,-9,-17,-13,-8,-3,-6,-2
28650498201,-4,-4,1,-1,-2,-4,-9,-2
28650498201,0,-1,1,-4,0,-1,-8,-1
28650511671,0,-3,0,3,1,2,0,-1
28650511671,2,3,2,2,0,1,-3,-2
28650519195,2,2,2,0,1,-1,-5,-2
28650519195,-5,-7,-3,-4,-4,-4,5,-1
28650542942,-5,-6,-2,-3,-3,-1,5,0
28650542942,0,0,-4,1,1,0,-1,0
28650543786,0,6,9,8,2,1,-5,-1
28650543786,-2,-7,-13,-11,-3,-3,-6,-4
28650565535,0,4,12,10,1,1,2,0
28650565535,-2,-3,2,-2,-3,-3,-3,-3
28650566219,4,1,1,-2,1,0,-3,1
28650566219,2,0,-1,2,1,3,-6,-2
28650571676,1,-1,-3,-8,-2,-1,-2,0
28650571676,-5,-12,-11,-5,-1,-3,1,-3
28650579135,0,6,-2,-4,-2,-3,2,0
28650579135,9,12,24,23,10,6,3,4
28650594169,-5,-3,-9,-2,-4,0,0,-3
28650594169,2,7,7,10,3,-1,0,-1
28650602301,-7,-11,-14,-7,-3,0,3,1
28650602301,-8,-7,-8,-13,-3,-3,-2,-3
28650617296,-3,-2,4,4,2,-1,0,0
28650617296,6,6,2,-3,1,-1,-8,-1
28650617957,1,-1,3,0,-1,-4,-5,-1
28650617957,-3,-4,-7,0,-4,-4,-2,-1
28650631680,-4,-7,-9,-6,0,0,-1,0
28650631680,-3,2,18,14,-1,2,7,1
28650639198,-3,0,-1,2,-2,-2,3,-1
28650639198,2,4,9,9,6,2,-4,0
28650654288,0,-1,-4,-2,-3,-6,-7,-4
28650654288,-3,-4,-13,-10,-6,-5,-4,-2
28650669824,-2,-5,-7,-5,-3,-1,-4,-4
28650669824,0,1,8,4,-2,-3,2,0
28650676521,1,4,4,4,2,1,0,2
28650676521,0,-3,-5,-6,3,4,2,3
28650684934,3,6,0,-5,-4,-7,-8,-5
28650684934,-1,-3,-12,-8,-5,-1,-2,-2
28650691579,-3,-2,-4,-3,-1,0,-1,-2
28650691579,-2,-1,0,-1,-1,0,-1,-2
28650699203,-1,-3,0,5,2,5,1,0
28650699203,-2,-4,-13,-10,-6,-4,-3,-2
28650714179,0,2,9,5,-7,-4,0,-1
28650714179,-4,-5,-6,-8,-5,-2,-2,-2
28650722372,0,2,3,5,7,3,0,-2
28650722372,-1,-1,-2,-3,-1,-1,0,-1
28650736609,-1,-1,-1,0,2,3,7,-1
28650736609,-1,-3,-7,-3,-1,2,6,0
28650744763,-5,-7,-6,-5,-8,-4,2,-3
28650744763,-4,-3,2,4,0,1,-3,-2
28650751662,-1,-3,-10,-10,-1,0,-3,3
28650751662,-2,-3,-6,-6,-5,-3,-4,-2
28650759097,2,3,6,3,1,-1,2,0
28650759097,-10,-7,0,4,-2,-4,17,-4
28650774285,2,-4,-17,-18,-6,-5,11,0
28650774285,7,8,20,21,9,4,5,6
28650782254,-7,-7,-4,-5,-6,-3,-6,0
28650782254,1,0,-1,-6,-4,-2,-12,2
28650796734,-8,-5,-3,-2,-1,-3,-13,-1
28650796734,5,4,0,-4,3,-1,-7,0
28650804868,1,3,1,2,0,-2,-7,-3
28650804868,-1,-1,1,3,-1,-1,-5,-3
28650811614,-5,-3,-4,-2,-4,0,-1,-8
28650811614,-4,-6,-9,-7,-4,-1,-2,1
28650819163,1,-3,-7,-7,-7,-6,-4,2
28650819163,4,7,9,7,7,2,0,4
28650834154,1,3,5,5,1,-1,1,2
28650834154,-3,-2,-1,0,-1,1,0,-4
28650842230,-2,-1,-2,1,-1,0,-2,-2
28650842230,-2,-7,-16,-13,-3,-2,-3,-2
28650856622,-2,1,2,-1,-3,-3,-7,-5
28650856622,-13,-1,1,2,-3,-3,2,-8
28650864846,13,1,-2,-3,-5,-3,1,6
28650864846,3,2,5,1,1,1,-1,0
28650879746,-4,-2,1,5,4,3,4,0
28650879746,1,0,-4,-4,-5,-5,0,-2
28650880537,-8,-7,-14,-17,-5,-4,-1,-3
28650880537,2,6,15,12,3,3,-10,0
28650894089,6,10,0,-4,-5,-2,-11,2
28650894089,-1,1,1,2,2,-2,-14,1
28650902238,-2,0,4,7,4,2,0,2
28650902238,-1,-11,-8,-7,-5,-4,12,1
28650916673,-6,-8,-2,-1,0,-1,-4,-4
28650916673,-1,-4,-7,-7,-3,-2,-14,-1
28650924770,0,2,6,1,2,-2,-8,-5
28650924770,-1,-2,-8,-7,0,0,-2,-3
28650939848,1,0,3,1,-6,-3,8,0
28650939848,2,0,-3,0,-1,0,0,1
28650940543,-2,0,2,3,-3,0,2,-2
28650940543,-14,-4,-3,-2,0,-2,-15,-8
28650954138,6,-5,-11,-10,-5,-2,-1,4
28650954138,0,3,14,10,4,1,5,0
28650962216,2,0,-5,1,1,3,7,4
28650962216,-1,-2,-8,-5,-3,-1,11,-3
28650976616,-8,-6,-7,-5,-2,-2,8,-4
28650976616,3,5,0,-6,0,-2,7,-1
28650984830,-2,1,10,12,7,2,10,-3
28650984830,-1,-1,-11,-9,-1,3,7,0
28650999862,0,1,5,8,5,2,-3,-2
28650999862,-2,-6,-8,-8,-7,-1,14,2
28651000543,-6,-3,-4,-4,-2,0,-1,-3
28651000543,5,5,8,4,3,-2,-8,3
28651014110,1,0,7,3,1,-2,2,1
28651014110,0,-4,-4,-4,-5,-3,2,-3
28651022212,0,1,0,-2,-1,0,2,0
28651022212,-3,-1,1,1,-5,0,0,-1
28651036675,-8,0,3,7,2,1,0,-6
28651036675,10,-5,-11,-8,-3,-4,-7,3
28651044889,-3,-7,1,2,-2,-2,-5,0
28651044889,2,-2,-3,3,4,0,-1,2
28651059730,1,6,9,0,0,-2,-2,-1
28651059730,-4,-4,1,2,2,3,-2,-2
28651060521,0,1,0,-5,-3,-1,-4,-4
28651060521,-2,0,-2,-1,-5,-1,3,0
28651074246,7,3,0,0,2,-3,-7,-2
28651074246,-6,0,-2,-2,-7,-6,-8,-6
28651082225,2,0,2,9,13,8,2,1
28651082225,-6,-4,-2,-5,-4,-3,-5,-1
28651096713,9,0,-5,-6,-1,2,5,8
28651096713,-1,0,3,7,1,-2,-5,0
28651104809,-12,-2,-6,-6,-3,-2,-6,-9
28651104809,17,5,-2,-6,-3,-1,-2,6
28651119806,-6,-5,-9,-5,0,0,-3,-2
28651119806,-10,-7,-9,-8,-2,0,4,-3
28651120548,1,3,6,4,0,-3,-3,0
28651120548,0,-1,0,1,-2,-2,-2,-1
28651134177,-1,-5,-7,-7,-5,-1,-18,-2
28651134177,1,0,1,3,1,0,-6,1
28651142246,-2,-6,-9,-4,-3,-4,-6,0
28651142246,-1,-1,-1,1,0,-3,1,0
28651156754,-1,2,4,4,1,0,11,-2
28651156754,-6,-4,-3,-1,-2,-3,7,-3
28651164879,1,1,1,-7,-4,-6,1,0
28651164879,3,0,-3,-2,0,-1,3,-2
28651179829,-8,4,5,8,9,6,5,1
28651179829,1,5,3,3,3,0,-6,-2
28651180501,17,-3,-8,-5,-9,-6,5,13
28651180501,-1,-3,1,-2,-1,1,-1,3
28651194188,-2,-4,2,4,0,1,2,2
28651194188,-3,1,6,3,1,1,-2,-1
28651202376,-11,-3,1,3,-1,1,0,-6
28651202376,-1,-7,-2,2,2,0,0,-3
28651216513,-2,-8,-9,-5,-2,-3,-5,-3
28651216513,12,15,17,4,0,1,3,4
28651224746,-2,2,-2,0,-1,1,-2,-2
28651224746,-6,1,0,-4,-2,-2,-5,-1
28651239116,-1,1,4,2,-2,-2,-3,-1
28651239116,0,-8,-9,-5,-3,-2,-2,-1
28651248063,-9,-4,-2,0,2,3,2,-3
28651248063,2,3,0,0,-3,-3,-1,1
28651254152,2,-6,-7,-4,-4,-2,0,-1
28651254152,-2,-6,-4,1,-1,2,1,-1
28651263058,3,3,5,3,4,4,0,0
28651263058,-6,-4,1,3,2,4,4,-2
28651276529,-8,-5,-8,-8,-6,-3,-3,-3
28651276529,-2,0,-7,-5,0,-5,-9,-3
28651285570,-24,-9,-6,0,2,-3,-2,-15
28651285570,11,12,24,13,6,2,-7,9
28651299121,4,6,4,-1,-2,-4,-2,2
28651299121,-5,-1,4,0,0,0,0,-2
28651308160,7,-3,-8,-8,-6,-4,-3,0
28651308160,-3,-8,-7,-3,-4,1,-5,-6
28651314129,1,3,3,0,-5,-1,-3,-1
28651314129,-7,-8,-3,0,-1,2,3,1
28651323068,3,2,-4,-9,-1,-4,-9,0
28651323068,-4,0,4,2,2,0,1,-3
28651336709,-4,-2,-3,0,1,-1,1,-2
28651336709,4,0,-3,1,-1,-1,4,0
28651345550,-1,-4,-2,1,-2,0,7,-1
28651345550,2,2,-1,1,3,-1,-6,-3
28651359076,-20,-3,-4,-3,-3,-5,-2,-12
28651359076,37,9,15,8,9,7,8,21
28651368075,5,2,1,-1,1,-2,-2,1
28651368075,-7,-8,-10,-9,-7,-5,7,-4
28651374137,-1,-4,-3,-2,1,2,4,1
28651374137,-11,-2,-5,-4,-3,-1,-6,-7
28651383073,1,-5,-3,1,-3,0,4,2
28651383073,0,18,11,1,-3,-1,-2,-5
28651396721,5,-8,-15,-13,-20,-13,-7,0
28651396721,-9,1,3,-10,-5,3,6,3
28651405551,-10,11,17,24,28,14,3,-7
28651405551,4,-10,0,1,-2,0,3,14
28651419212,9,9,7,-2,9,5,-6,-2
28651419212,-4,-8,-8,-5,-3,-4,-5,-3
28651428030,4,-1,3,-3,-9,-9,-10,0
28651428030,-4,-1,-5,-3,-1,-1,-3,-7
28651434192,7,-2,-1,6,-2,-1,0,3
28651434192,-8,-1,-5,0,3,0,-2,-4
28651443062,-3,0,-4,-11,-6,1,1,-1
28651443062,-3,0,-6,-6,-3,-2,1,-8
28651456695,-4,-6,1,-2,-7,0,1,1
28651456695,-25,2,-4,-2,-6,-4,-14,-23
28651465532,28,1,-2,-3,-1,0,1,19
28651465532,-2,-5,-12,-4,4,-3,-3,-6
28651479037,-10,-8,-6,-5,0,-5,3,5
28651479037,2,1,2,7,4,-3,5,4
28651487999,-2,3,-1,-1,0,-3,1,-4
28651487999,-8,-8,-6,-3,-2,-4,-3,-5
28651494084,-1,-4,-2,8,8,4,0,0
28651494084,14,3,7,0,-5,-6,-1,8
28651503042,-4,-4,-6,-9,-2,1,-2,-2
28651503042,-1,1,3,3,2,2,5,1
28651516726,0,2,1,-4,-5,-3,4,-5
28651516726,-3,-6,-10,-5,-5,-1,-3,-2
28651525558,-3,-1,2,4,-5,-4,1,2
28651525558,-8,-7,-9,-8,-9,-4,-3,-2
28651539099,1,0,1,6,9,4,-1,-1
28651539099,-1,-2,-8,-6,-5,-4,-4,-2
28651548009,-12,-5,-4,-1,-3,-5,-8,-4
28651548009,3,-2,3,-1,-5,1,-1,0
28651554211,3,3,0,-2,1,0,-4,-2
28651554211,-4,-3,-4,0,-4,-4,-1,-7
28651563028,5,-3,2,1,1,2,4,4
28651563028,-9,-7,-3,2,0,4,3,-1
28651576587,-4,0,1,-3,-1,-2,-1,-1
28651576587,20,-3,1,-1,-2,0,7,7
28651585516,7,2,1,0,0,2,3,1
28651585516,4,10,15,11,6,2,-1,0
28651599098,17,-3,-10,-7,-4,-3,-1,1
28651599098,-24,5,17,4,4,2,4,-1
28651608426,-3,-3,-7,-6,-3,0,3,-2
28651608426,9,-8,-6,-6,-4,-5,0,9
28651614055,0,5,1,1,1,-1,-7,-6
28651614055,0,1,-2,-3,-7,-1,-4,-3
28651622993,-6,3,1,2,3,-3,-6,-3
28651622993,19,8,-1,-3,-5,-3,-3,6
28651636699,-5,-2,2,7,1,-1,2,1
28651636699,-1,-7,-6,0,1,1,2,-2
28651645563,-8,-7,-1,-4,1,0,1,0
28651645563,-3,-2,-8,-4,2,-1,-10,-9
28651659765,3,10,15,1,-6,-1,7,5
28651659765,4,-4,-1,4,4,1,6,2
28651666678,7,12,5,7,4,-3,-11,-6
28651666678,4,8,6,6,5,2,1,-2
28651674121,-14,-17,-11,-10,-3,-1,1,0
28651674121,-3,-1,-5,-8,-4,-6,-3,-3
28651683062,-7,-12,-15,-9,-9,-5,-1,-3
28651683062,-13,-13,-10,-3,-6,-5,-2,-3
28651696599,26,22,17,6,-1,-2,-4,6
28651696599,0,4,1,2,1,-1,3,-1
28651705599,-2,-2,-3,1,0,4,1,1
28651705599,-3,-1,0,-3,-5,-5,-9,2
28651719907,-17,-1,-6,-2,-1,-3,-8,-13
28651719907,2,-10,-6,-3,0,0,3,6
28651726724,4,1,5,0,-1,0,-2,-1
28651726724,-12,-5,-5,-5,-1,0,2,-7
28651734015,-2,1,6,4,6,3,3,0
28651734015,-12,-3,-4,-2,-5,-1,-6,-3
28651743092,-16,-6,-13,-11,-5,-4,-4,-8
28651743092,57,17,15,6,-5,-1,2,22
28651756646,-36,-18,-7,2,5,5,-6,-9
28651756646,4,-6,-6,1,1,0,-4,-2
28651765560,-7,-1,5,1,-2,-3,0,3
28651765560,-5,6,4,-1,1,-2,2,-6
28651779751,9,2,-2,-3,-1,-2,1,4
28651779751,-5,-7,-5,-2,1,-1,-2,-3
28651786649,1,1,0,-5,-6,-3,-3,-6
28651786649,-13,-6,-5,-4,-1,1,3,-5
28651803083,-2,-6,-9,-2,-4,-3,2,-3
28651803083,-2,4,2,-2,2,1,1,-2
28651804505,8,2,0,0,0,0,3,1
28651804505,-12,0,-1,-3,2,1,3,-3
28651816641,-2,-8,-8,-8,-5,-5,-4,-5
28651816641,10,14,10,-1,-8,-5,-4,2
28651825627,10,-2,0,-1,0,0,1,8
28651825627,-11,-6,-2,3,5,-2,-9,-8
28651839823,14,12,4,2,1,-1,-5,-2
28651839823,-22,-15,-7,-2,0,3,2,0
28651846640,-2,-2,1,3,0,-2,-4,-4
28651846640,-7,-4,-5,-2,-2,4,5,-1
28651862859,4,-4,-9,-6,-4,-5,-8,-1
28651862859,12,19,22,12,6,2,-5,2
28651864464,-5,-2,-6,-3,-3,0,1,-2
28651864464,-9,1,0,-3,-6,-5,-3,-3
28651876574,9,4,4,4,-1,-2,-1,4
28651876574,0,-8,-11,-6,-5,-8,-4,0
28651885570,7,2,1,2,2,-4,-2,0
28651885570,11,6,1,-2,2,-1,1,-3
28651899851,-22,-9,-3,-2,1,4,0,-8
28651899851,-3,-11,-12,-9,-6,-1,2,0
28651906616,2,4,6,0,-2,-1,-2,-1
28651906616,-5,-6,-9,-4,-4,-1,-2,-1
28651922715,-1,-1,-3,-6,-12,-4,7,0
28651922715,4,2,-1,6,14,5,-4,-1
28651929108,-3,0,1,-2,-3,-1,-2,-5
28651929108,-14,-5,1,3,0,1,1,1
28651936619,7,-2,-3,2,0,-1,0,4
28651936619,2,2,0,-2,-7,-1,4,-1
28651945558,-5,-6,-13,-8,0,1,3,1
28651945558,-1,-4,2,8,2,4,6,1
28651959775,2,-1,4,1,-1,-1,1,1
28651959775,17,0,-8,-4,-4,-8,-7,0
28651966648,1,0,-1,-1,-1,-2,-1,-6
28651966648,0,2,10,-1,-1,-2,-1,1
28651983082,-3,-1,-2,-1,1,2,1,0
28651983082,-4,-1,-3,-5,-4,0,-6,-6
28651984524,-12,2,4,3,-2,-2,-6,-8
28651984524,8,-8,-6,-3,-6,-9,-16,7
28651996582,4,5,11,8,5,0,-5,-1
28651996582,-5,3,-2,-6,-6,-5,0,-5
28652005478,2,2,4,3,4,3,0,4
28652005478,-3,-5,-13,-6,-5,-7,-5,-6
28652019691,-1,2,3,2,0,1,0,1
28652019691,-4,-8,0,4,3,3,5,2
28652026530,-1,-5,-5,-6,-9,-3,2,0
28652026530,0,3,7,6,10,8,2,-3
28652042958,-4,-3,-7,-4,-3,-2,1,0
28652042958,16,12,2,2,1,-1,1,1
28652044528,-11,-14,-14,-7,-3,-6,0,0
28652044528,-5,5,7,3,-2,-2,9,-1
28652056643,4,-1,-3,-2,-1,-3,-4,-3
28652056643,-15,-9,0,0,-3,2,3,-3
28652065552,0,-2,-5,-4,-2,-3,-7,0
28652065552,-1,-5,-1,1,0,-1,-1,-1
28652079766,3,-3,-2,-5,-3,-2,5,0
28652079766,-3,-2,-2,-1,3,6,3,-2
28652086684,3,7,9,6,-2,-1,-3,0
28652086684,-3,-4,-1,1,1,0,1,-1
28652103045,-1,8,7,-2,2,3,3,-1
28652103045,-6,-6,0,3,-2,-1,2,-2
28652104513,-2,-6,-5,2,1,4,3,1
28652104513,-1,0,-1,-5,-5,-5,-5,-2
28652116564,1,1,-3,-2,-3,-1,-5,0
28652116564,-2,-2,-1,-3,2,1,-12,-1
28652125500,1,0,3,3,4,3,-2,-1
28652125500,0,2,0,-4,-5,-5,-5,-2
28652139843,3,-8,-10,-7,-6,1,0,2
28652139843,-1,0,1,2,5,2,2,0
28652146726,-8,-3,-5,-5,-7,-3,2,-5
28652146726,-6,-16,-13,0,1,0,-2,-1
28652162977,3,8,9,7,4,2,2,2
28652162977,-2,6,0,0,-5,-4,-2,0
28652164480,4,-1,-3,-2,-1,1,4,5
28652164480,-2,2,0,-3,-2,2,2,-5
28652176561,-5,-5,-6,-5,-3,-5,-4,-3
28652176561,-5,-9,-3,3,3,1,-5,-3
28652185562,-1,8,3,-2,2,1,-2,0
28652185562,1,-1,-4,-2,-1,-2,-1,0
28652199883,-1,3,9,6,5,1,-1,0
28652199883,3,2,2,-1,2,-3,0,2
28652206653,-7,2,-3,-5,-6,-6,-9,-7
28652206653,2,1,-1,-3,-1,2,0,0
28652223050,-1,-4,-6,-3,-1,0,0,-1
28652223050,-2,0,4,-3,-4,-4,-1,-1
28652224501,-2,-7,1,-1,-1,-1,2,-5
28652224501,-1,2,2,1,-3,-2,1,-1
28652236695,-1,-1,-1,4,6,3,0,1
28652236695,-1,-2,-11,-7,-5,-3,-1,-2
28652245525,0,1,0,4,1,-2,-4,0
28652245525,0,0,-1,2,1,0,-1,1
28652259715,-4,-10,-9,-6,-5,-4,-2,-4
28652259715,-2,-4,-3,-2,-3,-1,1,-3
28652266637,1,-4,-3,0,-2,-1,-5,0
28652266637,0,-2,-2,2,1,2,-2,-1
28652282887,-4,-2,2,-3,-1,1,-2,-4
28652282887,-1,-2,-3,-3,-2,1,-1,0
28652284513,0,-2,1,0,-1,0,2,1
28652284513,-2,-1,-4,-5,-3,-2,-1,-3
28652296678,-2,-2,-2,-2,-4,-2,-2,0
28652296678,-1,0,-2,-3,-5,-3,0,-2
28652305572,0,1,6,1,4,6,8,4
28652305572,0,2,-1,0,7,2,-2,-1
28652319865,2,-2,1,3,1,-2,-1,-1
28652319865,-2,-5,-4,-3,-3,-3,-2,-2
28652326567,-3,-2,-5,-4,-10,-6,0,-3
28652326567,-3,-3,-3,-4,-2,2,1,-1
28652343022,-1,0,-4,2,0,-1,-3,0
28652343022,0,2,0,-1,-1,2,-2,1
28652344507,-3,-2,-3,-1,1,-1,-2,-1
28652344507,-4,-4,-2,-3,-3,-3,-3,-1
28652356647,-3,-2,-2,-1,-1,-2,-2,-2
28652356647,2,4,4,0,0,0,-1,-1
28652365531,3,3,4,0,1,0,1,0
28652365531,1,0,3,1,2,-1,0,0
28652379686,2,0,-2,-1,-5,-3,-1,-1
28652379686,-5,-4,-3,-3,-2,-3,-5,-3
28652386481,0,1,1,0,0,1,0,1
28652386481,0,-1,-5,-2,-5,-1,-1,0
28652403094,-1,-2,-3,-6,-4,-3,-1,-3
28652403094,3,-1,-1,4,2,-2,-1,-1
28652404475,-1,-3,3,2,4,1,0,0
28652404475,-2,-5,-3,-4,-3,-2,-1,1
28652416548,-1,-2,-4,-2,-2,-1,0,1
28652416548,-2,0,-1,1,-1,-1,-1,0
28652425520,-3,-5,-4,0,0,-1,-1,0
28652425520,3,7,7,1,-2,-3,-2,-1
28652439784,-1,4,4,0,2,3,1,0
28652439784,-2,-4,-5,-6,-3,-1,0,-3
28652446597,-2,-5,-6,4,4,0,-3,-3
28652446597,2,3,1,-1,2,2,1,2
28652463056,1,0,1,3,3,1,1,0
28652463056,0,2,2,-1,1,-1,-2,-2
28652464522,-1,-2,-2,-6,-6,-3,1,-2
28652464522,-3,-5,-1,3,-2,-2,0,-3
28652476540,2,-2,-4,-4,-5,-1,-2,0
28652476540,0,4,8,4,4,1,-1,1
28652485571,0,0,-2,0,-3,-2,-1,-1
28652485571,-4,-1,-3,-2,0,-1,-3,-2
28652499755,-5,-3,-2,-1,-6,-5,-2,-3
28652499755,-1,-2,-3,1,1,-2,2,0
28652506464,-1,-1,-2,0,4,3,-3,0
28652506464,1,1,3,-2,-5,1,-1,1
28652523046,-3,-2,2,4,9,4,0,-2
28652523046,-2,-7,-6,-3,-5,1,-2,-1
28652524479,-3,-5,-8,-9,-5,-4,-3,-3
28652524479,3,6,3,1,3,3,1,1
28652536676,1,0,-3,-4,0,0,-2,0
28652536676,-1,0,-3,-2,0,-2,-1,0
28652545508,-4,-7,-6,-2,-6,-7,-3,-3
28652545508,-2,-3,-1,-1,-2,-1,0,-2
28652559727,0,-2,-4,-8,-4,-1,1,0
28652559727,1,2,6,6,8,6,2,-1
28652566650,-3,-1,-1,-1,1,-4,-3,-5
28652566650,2,-2,0,2,-3,0,3,3
28652582479,-3,0,-1,2,2,2,0,0
28652582479,1,2,1,-2,-2,-1,-3,1
28652589110,1,-1,1,1,0,2,0,2
28652589110,-2,-1,0,-4,-5,-5,-3,-3
28652596629,0,-1,1,0,5,4,1,2
28652596629,-5,-6,-5,-2,-5,-5,-1,-4
28652605510,0,5,1,2,4,3,-1,0
28652605510,-3,-5,-9,-2,-1,-3,-6,-3
28652619903,-2,-4,1,1,-4,-3,-2,-1
28652619903,-2,-2,-10,-15,-11,-4,-1,-1
28652626591,5,9,17,7,1,0,4,2
28652626591,-3,-7,-4,3,5,2,-3,-1
28652642226,-1,-4,-4,-2,0,0,-3,-1
28652642226,0,1,5,0,1,2,-1,2
28652649188,3,1,-4,-1,0,3,4,2
28652649188,-3,3,-5,-9,-12,-6,7,-1
28652656660,2,7,11,9,0,0,9,-1
28652656660,-1,-4,0,-1,4,4,8,1
28652665567,-2,-4,1,0,-1,-4,0,-1
28652665567,-5,-6,-1,-1,1,-2,-2,-5
28652680263,-3,-4,-7,-6,-4,-3,-6,-3
28652680263,-1,-1,-1,-1,-5,-2,-6,-2
28652688053,-3,-1,-1,-4,-3,-1,-6,-2
28652688053,2,-2,-6,-2,1,1,-5,0
28652702346,-2,1,3,-2,-3,-3,-6,0
28652702346,0,3,1,7,5,3,-2,1
28652709054,-2,1,-1,-1,3,2,-2,-1
28652709054,-4,-5,-4,0,-1,-3,-2,-2
28652716672,-3,-5,-2,-4,-4,-3,1,-1
28652716672,-3,0,-4,-6,-7,-5,-1,-1
28652725546,-1,1,-2,-2,-3,-3,0,0
28652725546,-1,-1,1,2,5,2,0,1
28652739848,0,0,-1,-2,1,-1,-2,-1
28652739848,-1,-4,-7,-1,0,-3,-3,-3
28652746670,0,-4,-4,-2,-4,0,0,-2
28652746670,2,3,3,1,0,1,-1,0
28652762220,-1,-1,-10,-5,-5,-3,-2,-1
28652762220,1,3,13,10,1,0,0,2
28652769003,-3,-4,-10,-6,-2,-2,-1,-1
28652769003,1,3,8,9,0,1,1,0
28652785496,-2,0,-2,-2,0,0,-1,-1
28652785496,-1,-6,-6,-4,-2,-3,-2,-1
28652786984,0,-2,-2,-2,-1,-2,-3,-1
28652786984,-4,-8,-6,-4,-3,0,-2,-3
28652799829,2,2,2,1,2,0,-2,0
28652799829,-1,-1,-4,-1,-1,0,-2,-3
28652806627,1,5,4,-2,-4,-2,-1,0
28652806627,0,0,-5,-5,4,1,-2,-1
28652822332,-3,3,3,-1,-3,-3,0,0
28652822332,0,-3,-4,0,1,-2,0,0
28652829196,-1,-2,2,-2,-5,-2,-3,-2
28652829196,-2,2,1,-1,3,1,-1,0
28652845520,-1,-4,-6,0,-2,-1,-3,-3
28652845520,-1,1,1,0,2,-1,-2,-2
28652847008,-5,-6,-2,0,1,0,0,-2
28652847008,-2,-2,-4,-4,-7,-3,-3,-1
28652859769,0,-5,-3,4,2,0,0,1
28652859769,1,-1,-1,-2,-4,-2,-2,-2
28652866639,-2,0,-3,-3,-2,-4,-2,-1
28652866639,-2,-6,-4,-3,1,1,0,-2
28652882457,-3,-2,0,-5,-4,-4,-2,-1
28652882457,-1,2,6,4,1,-2,-2,0
28652888974,-2,-5,-7,-3,-3,0,-2,0
28652888974,-1,1,6,4,-3,-4,-1,-2
28652905435,-1,-5,-6,-2,-2,0,0,2
28652905435,-1,1,2,-1,4,0,1,-2
28652907017,-1,0,0,-2,0,-3,-2,-2
28652907017,-2,-3,-8,-5,-4,-1,-2,-1
28652919725,4,7,10,5,3,3,3,-1
28652919725,-2,-1,-3,-5,-7,-3,-3,-3
28652926495,3,4,9,8,2,1,1,2
28652926495,2,4,-4,1,3,4,5,0
28652942253,-1,-2,-1,2,-1,0,-3,-4
28652942253,-1,0,-1,-2,-2,-1,-1,1
28652949155,-2,-4,-3,0,0,-2,-2,-1
28652949155,-4,-6,-2,-1,-8,-5,-2,-1
28652965947,-5,-8,-9,-5,-1,-1,-1,-2
28652965947,2,9,10,2,-2,1,0,0
28652967430,1,-1,-2,-2,-3,1,0,1
28652967430,-1,0,3,-1,-2,-4,-3,-1
28652979865,-3,-4,-3,-5,-4,-4,-1,-2
28652979865,0,-8,-3,5,6,3,0,0
28652986644,0,-1,2,2,-1,-2,-1,-3
28652986644,-1,-4,-7,-6,-4,-2,-2,-2
28653002345,1,2,7,9,2,0,-2,0
28653002345,-2,2,-3,-4,-1,-2,0,1
28653009051,-2,0,-1,-2,-3,-2,-1,-1
28653009051,-1,-2,-2,1,0,-1,0,0
28653025356,2,3,5,-1,-1,-2,0,0
28653025356,-2,-9,1,1,-2,-1,-1,-1
28653027091,-1,-8,-2,0,0,1,0,1
28653027091,-2,-5,-4,-7,-2,-1,-2,-2
28653039181,-2,1,0,5,7,1,-2,2
28653039181,-5,-6,-9,-6,-3,-3,-5,-1
28653048005,1,13,13,3,3,-1,-3,1
28653048005,2,8,4,0,-2,-3,-3,1
28653062289,0,2,-1,-4,-7,-1,3,-1
28653062289,-1,-1,-10,-3,2,1,4,-2
28653069104,-2,-1,0,0,-2,-3,-1,-3
28653069104,-2,1,0,2,-2,1,-4,0
28653085377,-3,-5,-4,-7,-5,1,-4,-1
28653085377,2,-3,-2,-1,-3,-4,-3,-1
28653086989,3,8,5,1,7,2,2,1
28653086989,-1,-2,2,2,7,-1,-2,-4
28653099072,-1,-2,2,-1,-2,-1,-2,-4
28653099072,-1,1,-2,-5,-10,-3,-7,0
28653108044,-1,0,-7,-4,-2,-2,-4,-1
28653108044,-1,2,4,0,-3,-1,-2,0
28653122270,-1,-4,-5,2,2,0,-3,-1
28653122270,0,-1,-4,-7,-5,-2,-1,-2
28653129128,-4,-5,-4,1,-1,0,-2,-2
28653129128,-2,-3,-2,0,1,1,4,0
28653145369,-1,-5,-4,-5,-4,-4,1,-2
28653145369,-1,-2,1,4,2,0,3,0
28653146981,2,4,6,-3,-7,-4,0,1
28653146981,0,-6,-8,-2,3,1,-1,2
28653159101,-4,3,6,2,-4,-5,-10,-3
28653159101,1,0,-2,-1,5,1,-5,1
28653168063,-5,-9,-4,-2,-3,-1,-6,-3
28653168063,7,14,19,9,2,2,5,3
28653182324,0,-5,-3,-8,-7,-3,5,0
28653182324,1,-4,5,3,-1,0,2,1
28653189144,-7,-15,-13,-2,4,-1,-1,-4
28653189144,2,2,-3,0,3,1,-2,1
28653205473,0,3,-4,-2,-3,2,-6,2
28653205473,-1,4,4,-1,-1,-1,0,-2
28653206960,-1,-3,-6,0,-1,-2,-11,-1
28653206960,-3,1,-1,-4,-8,-4,1,1
28653219121,0,8,1,7,10,2,5,-1
28653219121,-1,-1,-7,-4,-4,-3,8,-4
28653228040,3,3,7,2,2,2,46,1
28653228040,-5,-12,-15,-9,-5,-5,9,-7
28653242278,0,2,7,-4,-5,-6,0,-3
28653242278,0,2,-2,-1,3,2,-9,3
28653249247,-2,-7,-17,-11,-14,-8,-25,-3
28653249247,0,0,12,4,6,2,-12,-1
28653265394,-4,-5,-8,-7,-7,-2,-6,-3
28653265394,-7,-1,0,0,9,4,-6,-3
28653267010,7,3,0,0,-1,-4,-7,2
28653267010,1,-1,-11,-9,-12,-3,2,0
28653278995,-3,1,-4,-2,-2,-2,-3,-2
28653278995,-5,2,-2,-6,-4,-4,1,-2
28653287996,-2,6,23,32,11,2,-1,-2
28653287996,-6,-7,-7,-3,16,8,-3,-5
28653302338,-1,-5,-7,1,10,4,2,0
28653302338,-1,1,8,0,-10,-8,0,-3
28653309057,0,3,7,5,3,3,6,1
28653309057,4,3,4,0,-15,-11,-2,0
28653325529,-3,-14,-18,-27,-34,-17,-3,-5
28653325529,5,-6,1,6,40,23,14,6
28653327069,-6,-6,-9,-23,-26,-13,-9,-7
28653327069,-3,0,11,24,27,14,5,2
28653339157,-8,4,-8,-11,-14,-6,2,-8
28653339157,4,-1,-23,-27,-29,-15,-8,3
28653347984,10,11,38,50,45,24,11,12
28653347984,16,-1,-11,-6,-11,-8,-2,4
28653362289,5,-4,3,-4,1,3,6,5
28653362289,-9,-3,2,12,13,5,-1,-7
28653369180,-9,-6,-20,-23,-18,-11,-5,-6
28653369180,-7,1,7,-1,-8,-5,-6,-3
28653385519,-5,-6,-6,10,35,12,-2,-2
28653385519,-5,-9,-10,-2,-28,-21,-11,-9
28653386998,1,2,0,-14,-13,0,0,2
28653386998,0,0,-5,-30,-20,-6,2,-1
28653398994,1,4,30,65,63,22,7,4
28653398994,-5,-3,-6,-11,-6,-1,0,-3
28653408011,-2,-12,-20,-20,-20,-10,-5,-3
28653408011,2,7,2,-6,8,9,7,4
28653422219,0,5,-4,-20,-17,-7,-2,0
28653422219,-2,3,5,-4,-14,-9,-3,-2
28653428994,3,-12,-18,-11,-8,-1,-1,1
28653428994,3,6,19,22,16,12,6,5
28653445503,1,6,2,-10,-25,-12,-5,-2
28653445503,1,4,8,18,12,3,-4,-3
28653446980,2,3,-14,-35,-13,8,6,3
28653446980,-12,-12,-1,25,19,3,-3,-8
28653459104,-1,-3,-3,-17,-27,-10,-3,0
28653459104,4,4,2,14,38,21,11,5
28653467993,-18,-9,-8,-11,-16,-18,-15,-17
28653467993,9,2,0,-1,3,4,3,8
28653482260,-1,2,-4,-7,11,12,2,1
28653482260,-1,-10,-7,-10,-20,-7,-1,-2
28653489155,2,14,29,15,16,5,3,-2
28653489155,-2,-9,-24,-17,24,19,10,1
28653505548,-2,-7,5,3,13,10,4,2
28653505548,-5,4,-8,-23,-27,-10,-7,-5
28653507020,13,7,15,42,60,31,12,14
28653507020,-8,-4,-4,-5,-35,-27,-14,-12
28653519623,-2,6,11,16,7,3,3,-5
28653519623,-7,-17,-11,-13,-21,-16,-7,-1
28653528041,3,-5,-25,-17,9,10,3,5
28653528041,-2,-4,4,-5,-17,-8,-5,1
28653542190,-10,-5,-6,-20,-29,-16,-11,-7
28653542190,0,9,21,54,42,14,6,1
28653549193,-4,7,3,21,10,-4,-4,-3
28653549193,1,-8,-32,-39,-39,-21,-20,-6
28653564844,8,15,39,-7,-23,-8,-2,2
28653564844,9,7,-12,-16,15,17,11,7
28653571671,-2,-5,6,15,17,10,8,4
28653571671,-9,-6,-25,-27,-16,-6,-4,-8
28653579095,15,9,9,21,77,54,21,18
28653579095,-6,-14,-29,-46,-34,-21,-8,-7
28653588016,2,10,18,15,-8,-2,0,2
28653588016,-15,-4,17,37,29,14,9,-3
28653602365,23,4,-4,21,20,15,8,13
28653602365,-6,-12,-20,8,-13,-18,-10,-7
28653609080,2,7,0,-44,-25,-4,-1,-3
28653609080,-4,-4,3,-10,-14,-12,-3,1
28653624879,-18,-15,-23,-5,-41,-33,-6,-13
28653624879,17,10,19,16,43,33,-1,5
28653631584,-9,-28,-58,-53,-51,-31,-13,-7
28653631584,4,9,18,19,31,22,5,3
28653639101,-16,-9,8,-19,-69,-51,-20,-20
28653639101,1,8,4,-14,14,21,16,4
28653648010,11,10,26,24,-42,-29,-10,5
28653648010,0,-3,-5,0,22,19,16,6
28653662181,11,21,4,-2,9,4,0,6
28653662181,-8,-9,-5,-3,-33,-26,-14,-13
28653668951,-5,-13,11,40,42,17,3,1
28653668951,-4,8,0,-17,-28,-17,0,-11
28653684765,15,8,-24,-50,-15,4,6,14
28653684765,-11,-4,7,21,-9,-10,-3,-5
28653691638,7,10,-6,-3,32,22,5,7
28653691638,-4,-17,7,9,-15,-16,-13,-4
28653707288,-27,-37,-60,-44,6,8,-6,-14
28653707288,14,36,82,43,0,-4,7,10
28653707963,8,8,2,-7,12,5,-3,-4
28653707963,-2,-5,-14,20,20,7,3,1
28653723001,6,4,17,13,7,-5,-13,-6
28653723001,-18,-21,-23,-6,-28,-18,-1,-5
28653729088,-10,-2,14,21,15,6,-5,-11
28653729088,10,3,0,15,14,9,6,11
28653744153,4,-6,-10,-25,-66,-41,-13,1
28653744153,15,12,26,5,9,12,7,18
28653751691,-5,-1,-6,0,26,19,2,-2
28653751691,-5,4,-12,-17,-10,-7,-11,-13
28653767272,-8,3,6,17,12,7,2,-5
28653767272,-7,-12,-18,-40,-26,-14,-12,-4
28653768008,-6,-14,-22,-15,-44,-31,-6,-2
28653768008,10,16,31,33,57,43,17,12
28653783010,5,5,20,24,32,21,12,1
28653783010,-2,2,-6,-6,10,4,5,-2
28653789209,-11,-16,-28,-29,-32,-19,0,-6
28653789209,-1,0,-16,-27,-29,-26,-37,-12
28653804155,2,-5,12,32,22,8,-25,2
28653804155,3,-3,0,44,30,4,-6,7
28653811573,7,14,28,5,15,16,-6,3
28653811573,4,3,-8,18,20,8,26,8
28653827318,-24,-13,0,10,-17,-21,1,-21
28653827318,11,10,-3,-5,7,5,-3,1
28653827965,-1,-26,-67,-66,-43,-28,-3,-3
28653827965,-10,16,72,47,-8,-2,-8,2
28653843009,3,1,-18,-33,-24,-18,-8,2
28653843009,-10,-18,-53,-66,-50,-14,-2,-11
28653849122,9,16,36,49,55,46,27,9
28653849122,-4,-2,16,9,-24,-20,-18,-11
28653864156,-6,-11,-17,-7,5,3,15,-1
28653864156,6,17,8,7,12,7,1,-8
28653871632,-19,-34,-57,-50,15,12,2,4
28653871632,-6,-10,-11,-33,-43,-28,-7,-6
28653887302,14,15,-3,17,86,58,36,24
28653887302,-30,-50,-67,-74,-56,-33,-21,-24
28653887996,31,72,124,108,79,46,28,15
28653887996,-15,-21,-46,-61,-41,-26,-22,-29
28653903047,-9,-13,-34,-58,-67,-34,-14,-14
28653903047,7,9,30,22,11,7,11,5
28653909068,-9,-20,-46,-55,-72,-37,-11,4
28653909068,11,16,20,69,78,42,26,23
28653924136,5,10,10,10,-8,-7,-1,-2
28653924136,-3,3,24,8,0,-6,-7,-2
28653931625,-4,-11,-24,-15,-26,-17,5,8
28653931625,6,14,9,-14,12,16,9,3
28653947298,-11,-12,16,85,45,5,-16,-14
28653947298,6,14,28,30,22,15,7,6
28653947950,4,19,34,21,8,0,5,1
28653947950,-13,-25,-61,-70,-52,-32,-17,-12
28653962976,-10,-11,-8,-20,-23,-10,5,-5
28653962976,1,-17,-55,-43,-21,-6,4,4
28653969145,7,14,16,-30,-6,9,-1,-8
28653969145,12,13,25,44,26,14,6,3
28653984124,-3,13,44,29,23,19,-8,0
28653984124,10,2,-7,-28,-19,-5,0,14
28653991634,-32,-20,-27,1,-49,-44,-32,-31
28653991634,35,-2,0,-5,8,13,4,21
28654007318,-1,-2,-32,-29,-1,2,7,4
28654007318,0,3,24,13,4,4,14,13
28654007949,6,24,27,21,-33,-24,-14,1
28654007949,-14,-3,0,-23,-63,-41,-16,-14
28654023022,-2,-6,11,27,10,-3,-3,-2
28654023022,1,1,1,31,26,18,11,2
28654029097,3,-3,-22,-14,1,0,0,-3
28654029097,-8,-5,-1,0,-35,-27,-9,-3
28654044010,9,-7,-31,-41,0,7,13,13
28654044010,-14,4,29,3,-55,-38,-35,-22
28654051586,-14,-10,-4,36,50,19,-7,-10
28654051586,7,2,-15,-31,-34,-12,0,9
28654067294,-17,-16,-18,-23,-64,-36,3,-10
28654067294,11,-1,-6,-14,-8,8,5,5
28654067989,1,1,9,-19,-10,-6,-2,5
28654067989,-2,0,-19,25,78,39,-7,-3
28654083003,-9,-19,-22,-6,-15,-12,-24,-5
28654083003,-3,0,1,-10,-2,-5,-8,-2
28654089123,-2,20,31,-26,-71,-38,-11,-15
28654089123,24,13,32,98,104,102,64,43
28654104160,-7,-18,-36,-56,-35,-9,-14,-12
28654104160,6,7,14,49,55,38,26,14
28654111525,-15,-31,-18,-7,-27,-24,-17,-15
28654111525,-18,-7,-17,-38,-64,-54,-27,-23
28654127171,-3,0,-3,19,49,31,6,-2
28654127171,-3,6,19,8,-4,-8,-12,-8
28654128097,-17,-37,-44,-47,-33,-21,-16,-15
28654128097,-23,-38,-89,-78,-79,-62,-33,-13
28654149766,33,51,100,89,89,54,30,25
28654149766,-13,-22,-48,-77,-55,-37,-19,-8
28654150466,28,35,26,54,64,38,27,26
28654150466,0,12,13,12,46,40,21,-1
28654164142,-31,-48,-72,-56,-80,-41,-22,-19
28654164142,8,32,80,104,-8,-27,-9,-14
28654171599,-25,-37,-43,-6,-3,-5,-3,-2
28654171599,-11,-10,-2,-12,-20,-13,0,-4
28654187311,17,19,-28,-17,-2,-5,0,8
28654187311,3,17,33,26,7,3,1,0
28654187995,-22,-34,-59,-73,-46,-19,-9,-16
28654187995,0,10,-13,-28,-12,-9,2,-7
28654203066,-14,-6,46,24,1,-8,-3,-1
28654203066,2,11,22,-11,-34,-21,-19,-9
28654209145,29,21,68,116,110,88,32,25
28654209145,4,0,-8,-65,-55,-25,-4,4
28654224187,1,4,-21,-27,-11,7,-11,-8
28654224187,7,11,-5,-29,19,32,20,1
28654231647,-7,-1,47,73,39,8,3,0
28654231647,9,16,28,-12,-8,-3,4,3
28654247291,-4,-6,0,29,37,25,17,9
28654247291,-16,-13,11,45,81,37,10,-9
28654247943,33,39,5,-24,-21,-11,-6,11
28654247943,6,-3,37,41,57,37,13,6
28654263046,31,43,47,27,5,4,30,40
28654263046,-16,-27,-41,18,63,21,-8,-1
28654269178,-6,-15,-39,-60,-28,-15,-3,-9
28654269178,11,19,81,63,10,-4,2,16
28654284209,0,6,25,3,-63,-38,-22,-16
28654284209,-14,-25,-23,53,73,37,12,5
28654291575,13,25,18,-20,-24,-13,1,9
28654291575,-17,-21,-32,16,-17,-30,-19,-16
28654307241,-17,-13,24,-35,-92,-53,-38,-30
28654307241,30,29,5,23,44,29,36,32
28654307941,5,12,53,84,39,13,-8,-6
28654307941,2,-6,-30,-44,-62,-19,-1,13
28654322992,-37,-33,-33,-8,-13,-38,-28,-37
28654322992,-14,-21,-83,-125,-83,-30,-28,-23
28654337243,35,32,53,47,13,9,21,28
28654337243,-9,0,12,-17,-4,6,-2,-13
28654344057,22,20,25,63,-6,-10,5,17
28654344057,-13,-18,0,11,-42,-26,-19,-19
28654351650,-26,-32,-64,-71,-12,0,-3,-14
28654351650,-16,-34,-78,-72,-58,-38,-24,-24
28654367278,31,48,83,90,118,67,34,35
28654367278,-29,-29,-51,-54,-78,-63,-33,-24
28654367965,-8,-8,-22,-23,-22,-7,-4,-18
28654367965,7,-8,-6,-27,-33,-8,1,5
28654383152,-9,-21,-52,-57,-4,6,-1,-10
28654383152,18,24,39,18,2,15,13,19
28654389106,-8,7,32,26,5,0,-11,-7
28654389106,5,1,-17,1,59,29,12,11
28654412180,2,4,34,23,19,11,8,5
28654412180,6,6,-4,-26,-18,-6,-6,1
28654412961,-23,-40,-49,5,-20,-18,-16,-16
28654412961,10,32,82,107,92,42,-2,-3
28654427141,10,9,9,13,12,11,9,11
28654427141,1,2,14,29,27,21,23,7
28654427934,1,6,37,-16,-24,-8,-9,6
28654427934,-1,12,0,-4,1,2,4,-3
28654442959,6,-18,-55,-41,4,14,7,10
28654442959,15,16,9,-24,-12,-5,-1,2
28654449172,-14,-17,-27,-24,-17,-25,-7,-9
28654449172,-15,-21,-23,3,18,9,-1,-9
28654464111,6,16,17,-8,-7,-4,-6,0
28654464111,-1,-6,-3,-9,31,17,9,6
28654471680,9,4,13,-17,-21,-3,0,7
28654471680,-18,-10,-3,-41,-53,-25,-9,-9
28654486592,13,19,39,62,63,43,13,6
28654486592,-9,-16,-13,15,-1,-5,-7,-5
28654493997,-6,-12,-41,-40,-23,-14,-6,-6
28654493997,12,17,10,-37,-61,-31,-12,0
28654502984,-25,-17,-11,21,42,15,3,-20
28654502984,13,-1,-17,-47,-45,-7,15,18
28654509116,21,16,-13,9,14,21,4,17
28654509116,4,13,37,28,38,22,15,-2
28654524282,-14,-41,-80,-115,-116,-67,-23,-11
28654524282,15,41,85,80,58,27,12,5
28654531531,-7,-2,-27,-48,-13,-8,3,-2
28654531531,-11,-33,-56,-6,5,7,-1,0
28654554814,0,20,64,24,-14,-4,-5,-5
28654554814,-12,-15,-29,-62,-68,-42,-21,-13
28654555442,12,18,26,34,39,30,22,14
28654555442,-4,-10,-13,12,-4,-9,-19,-4
28654563026,-11,-16,-33,-44,-28,-16,-9,-9
28654563026,-5,-21,-70,-89,-62,-27,-4,3
28654569111,9,29,98,109,120,68,15,6
28654569111,11,13,-6,-27,9,7,21,15
28654584094,-17,-18,-20,-16,-54,-27,-22,-18
28654584094,2,-17,-34,-11,-13,-1,4,2
28654591622,-2,8,19,1,-51,-33,-16,-9
28654591622,-28,-39,-66,-81,-64,-28,-10,-18
28654606694,17,36,59,79,66,28,7,9
28654606694,-3,2,3,7,33,12,4,-1
28654614041,-1,-13,-43,-54,-28,-10,-3,-3
28654614041,-18,-30,-57,-49,-81,-47,-23,-14
28654622997,19,27,-5,-38,7,16,17,18
28654622997,-7,-3,31,47,21,10,-6,-10
28654628975,-19,-28,-50,-79,-56,-33,-14,-8
28654628975,14,21,22,12,31,16,4,9
28654644020,-6,-24,-46,-47,-29,-18,-3,-1
28654644020,-9,-18,-35,-51,-41,-19,-1,0
28654651720,-3,1,5,-16,-3,-1,-14,-12
28654651720,7,6,15,71,89,54,6,4
28654666559,17,8,8,-2,10,8,1,11
28654666559,-3,0,-4,2,11,7,9,0
28654674077,-9,-7,4,25,27,9,-1,-3
28654674077,-6,-14,-25,-50,-55,-31,5,-3
28654689823,17,33,45,-5,-22,-3,1,13
28654689823,23,26,66,97,101,76,21,14
28654690485,-9,-25,-50,-68,-82,-41,-17,-8
28654690485,-2,6,6,16,47,33,20,3
28654704091,-26,-43,-75,-85,-88,-51,-28,-22
28654704091,9,15,2,-37,-29,-17,-14,-3
28654711544,3,-1,8,31,-13,-9,5,2
28654711544,12,17,46,72,66,25,12,10
28654726504,-2,-8,1,0,5,2,13,3
28654726504,-28,-34,-38,-1,30,-12,-16,-16
28654734715,-2,3,-21,3,29,17,-6,-9
28654734715,-4,12,18,-54,-70,-31,-12,-8
28654749771,-11,-10,-19,-1,-7,-10,-14,-9
28654749771,18,11,7,-15,-46,-21,-17,-2
28654750466,22,17,41,49,18,4,11,14
28654750466,-17,-9,16,41,17,11,-1,-4
28654765509,-21,-18,-17,15,24,13,5,-10
28654765509,-26,-34,-62,-79,-86,-49,-20,-19
28654771626,-15,-8,9,22,7,2,-12,-18
28654771626,0,-3,-29,-59,-47,-29,-24,-7
28654786620,20,14,19,21,-15,-3,17,15
28654786620,9,19,69,108,67,32,20,20
28654794689,-2,-8,-23,-56,-24,-1,5,-1
28654794689,2,25,67,69,59,25,8,0
28654809754,-16,-30,-48,2,62,12,-3,-7
28654809754,-3,-25,-67,-58,15,13,14,4
28654810471,-2,11,44,53,9,-16,-11,-1
28654810471,2,4,16,16,0,-1,-5,-2
28654824130,1,-7,-29,-66,-67,-22,-5,2
28654824130,17,33,55,88,75,40,-3,8
28654831645,-25,-27,-59,-52,-14,-5,1,-11
28654831645,13,31,76,78,68,38,12,5
28654846476,20,15,-5,-24,-4,2,-3,9
28654846476,-7,-6,-3,8,-21,-13,6,2
28654854802,4,-2,-27,-46,-33,-5,9,6
28654854802,13,32,88,77,11,-1,2,7
28654869793,6,14,31,45,39,23,15,8
28654869793,-13,-26,-33,12,30,9,4,1
28654870422,-16,-16,8,-19,-53,-38,-16,-16
28654870422,-4,-5,-45,-15,7,2,-29,-25
28654884148,-25,-28,-18,-10,-12,-18,-24,-18
28654884148,6,11,11,-17,-27,-11,-1,-4
28654891716,-9,-19,-31,-9,-2,-3,6,5
28654891716,7,-2,-35,-59,-39,-19,1,6
28654906639,-8,-6,14,-2,-23,-7,-6,-12
28654906639,15,48,73,35,34,24,9,8
28654914875,6,-7,-58,-82,-37,-16,-2,0
28654914875,-12,-25,-23,-54,-72,-36,-3,1
28654929634,0,12,19,54,54,16,-4,-10
28654929634,13,13,27,-14,-33,-11,5,16
28654930465,15,10,26,34,87,54,29,21
28654930465,5,-15,-56,-27,18,14,0,2
28654944061,6,18,74,91,47,23,22,10
28654944061,-15,-12,-2,16,49,25,-8,-17
28654951504,11,16,20,16,-6,-5,0,8
28654951504,-2,-12,-41,-24,-12,-1,7,3
28654966645,-23,-27,-42,-39,-36,-20,-5,-14
28654966645,4,3,10,-49,-66,-31,-10,0
28654974526,2,24,69,74,35,8,-10,-10
28654974526,-4,-21,-38,18,41,23,12,3
28654989778,3,11,4,-13,-33,-17,-1,3
28654989778,-12,-25,-85,-38,-5,-7,-17,-15
28654990466,1,6,43,31,7,2,4,7
28654990466,4,-1,1,-9,-37,-21,-9,-3
28655004137,2,4,-30,-70,-19,4,-7,-4
28655004137,-24,-19,-25,8,8,-4,-2,-14
28655011532,12,-2,-13,-5,17,16,5,12
28655011532,7,22,66,84,61,43,23,9
28655026588,13,15,26,2,38,36,20,16
28655026588,-3,-9,-27,-19,-12,-14,4,3
28655034854,-18,-6,6,0,-3,-2,-10,-20
28655034854,25,22,19,35,39,21,37,36
28655049843,-5,14,33,-19,-6,8,-27,-17
28655049843,0,-8,16,7,7,3,-4,-6
28655050481,0,-2,-32,-28,-30,-27,-17,-7
28655050481,-15,-21,-15,-22,-22,-20,-1,-5
28655064121,13,17,2,12,7,3,-10,-1
28655064121,-10,-13,-49,-72,-62,-26,-3,-3
28655071569,-7,-9,-12,-27,35,27,11,-6
28655071569,15,23,15,-25,9,1,0,11
28655086603,2,-8,-23,8,20,11,17,8
28655086603,-8,-2,28,16,-4,-2,9,-3
28655094821,-6,-13,-31,-40,-43,-26,-9,-6
28655094821,-19,-24,-43,-71,-57,-31,-39,-28
28655109655,1,-14,-36,-21,43,24,24,16
28655109655,1,21,51,44,32,28,-25,-14
28655110450,-1,-3,-24,-7,15,9,11,7
28655110450,2,10,46,43,-3,-14,-4,-3
28655124071,3,8,18,39,-3,-3,8,8
28655124071,-16,-27,-72,-84,-99,-54,-21,-12
28655131608,-5,-1,23,24,13,1,1,0
28655131608,-31,-27,-6,-6,-28,-23,-39,-37
28655146596,17,15,4,2,-22,-16,3,11
28655146596,8,-4,9,75,81,35,15,14
28655154824,9,-3,-2,36,-2,-3,-2,6
28655154824,3,48,91,76,12,1,3,-6
28655169745,-3,-19,-18,7,-6,-15,-10,-7
28655169745,10,-2,-11,-59,-28,-11,8,18
28655170443,-5,-14,-50,-64,-39,-14,-21,-14
28655170443,13,27,73,94,80,41,22,11
28655184134,-22,-24,-45,-29,-27,-22,-17,-23
28655184134,0,6,8,-13,-24,-16,-2,-3
28655191615,-7,-16,-21,7,2,-2,6,0
28655191615,-6,-21,-47,-79,-49,-17,-4,-7
28655206620,-6,-5,-9,-5,-69,-46,-18,-5
28655206620,1,0,0,-4,14,9,17,9
28655214782,15,37,72,89,67,38,17,5
28655214782,-2,-23,-55,-55,-35,-13,1,6
28655229792,-6,-2,5,-14,7,-1,0,-3
28655229792,-6,-8,-16,-8,-20,-18,-4,-7
28655230441,8,17,32,31,16,16,9,8
28655230441,5,0,-14,-42,-41,-19,-8,2
28655244081,-1,-12,-21,10,80,57,23,8
28655244081,1,17,26,46,40,16,10,3
28655251629,26,21,8,-31,-23,-12,-7,7
28655251629,-15,-35,-71,-78,-56,-23,-8,-9
28655266623,6,5,-9,-3,31,14,3,4
28655266623,-10,-23,-41,4,-4,-3,-9,-9
28655274783,-11,3,6,-59,-40,-16,-11,-12
28655274783,13,13,26,56,33,14,20,20
28655289741,-12,-10,-6,-18,5,3,-28,-23
28655289741,17,18,-3,-37,-19,4,10,16
28655290462,29,37,59,75,81,60,27,29
28655290462,-8,-6,-6,33,44,7,-9,-8
28655304122,-9,5,43,44,-3,-5,10,-1
28655304122,-7,-6,-1,-6,-32,-23,-20,-17
28655311575,9,1,-5,0,13,13,22,12
28655311575,-3,-1,-1,-20,-3,0,5,7
28655326513,11,11,12,10,23,16,11,11
28655326513,-16,-6,9,27,3,-7,-8,-13
28655334838,-13,-21,-41,-18,-14,-17,-12,-7
28655334838,-1,-9,-32,-49,-38,-20,-12,-11
28655349790,-5,3,17,22,-7,-9,0,-9
28655349790,11,8,-11,-11,14,16,7,13
28655350445,-16,-2,25,12,-20,-18,-10,-13
28655350445,-4,-19,-44,-40,-14,-2,4,4
28655364051,-12,-6,-11,-24,-51,-34,-29,-18
28655364051,4,4,-24,-94,-74,-31,-21,-11
28655371577,0,-20,-67,-41,51,43,10,10
28655371577,5,25,61,84,68,30,15,7
28655386597,-1,-23,-18,-37,-52,-28,-4,2
28655386597,2,5,5,-18,-28,-9,13,0
28655394720,-20,-20,-29,-29,-28,-21,-26,-27
28655394720,2,-2,-17,-33,-28,-8,2,3
28655408966,1,-5,-26,-18,18,13,10,5
28655408966,19,40,83,73,36,20,17,14
28655417301,-14,-22,-33,-40,-38,-25,-8,-11
28655417301,7,18,41,40,8,5,0,0
28655424107,-8,-12,-19,-51,-76,-32,-9,-6
28655424107,-10,-20,-29,-17,13,-5,-12,-9
28655431611,-3,-3,1,-26,-50,-26,-15,-9
28655431611,-4,3,12,28,45,27,3,-3
28655446642,9,12,-11,-34,-9,-4,2,8
28655446642,-10,-12,-15,-28,-29,-17,-10,-9
28655454644,2,3,2,16,12,0,3,2
28655454644,-14,-19,-32,-61,-52,-28,-8,-12
28655469134,10,13,37,48,41,23,7,5
28655469134,-3,-9,-23,-24,12,10,0,-3
28655477241,3,4,18,5,-20,-8,6,6
28655477241,-5,8,21,38,26,10,-17,-15
28655484102,22,8,6,34,38,18,13,17
28655484102,-2,-4,11,26,15,5,-1,0
28655491640,-12,-9,-20,-32,-22,-16,-8,-7
28655491640,-7,-10,-12,-5,-20,-15,-9,-7
28655506660,1,-4,-9,-9,8,10,5,3
28655506660,4,11,26,34,26,14,4,1
28655514825,-3,-7,6,7,-16,-14,-5,0
28655514825,1,-9,-21,-12,6,2,2,4
28655529081,-7,10,31,42,27,10,-1,-3
28655529081,4,3,9,8,-3,1,0,3
28655537306,2,8,17,31,17,5,2,1
28655537306,-5,-9,-17,-22,-14,-9,-8,-2
28655544078,-7,-9,-12,-19,-8,-3,-33,-5
28655544078,0,-2,10,-1,-5,-3,-7,-1
28655551752,4,12,25,37,17,7,12,7
28655551752,1,-4,-12,4,19,11,24,5
28655566573,-12,-5,-5,-16,-29,-20,10,-12
28655566573,3,3,-1,9,13,10,11,0
28655574768,-4,-8,-20,-17,-8,-5,12,-3
28655574768,4,0,-3,-12,-10,-5,3,0
28655589096,-3,2,7,1,0,-1,4,-2
28655589096,-2,3,2,7,2,-5,-8,-1
28655597290,-4,-3,-8,-1,1,-2,-4,-4
28655597290,-1,-3,1,-5,-11,-7,-9,-1
28655612153,-4,-6,-8,-12,-8,-2,-3,-1
28655612153,1,0,5,12,8,5,-14,2
28655612950,4,6,9,5,4,1,-31,2
28655612950,3,4,-6,-9,-4,-1,-15,2
28655626546,1,-1,4,8,6,5,18,0
28655626546,0,3,6,5,4,0,15,-1
28655634803,0,0,-8,-2,0,1,3,-2
28655634803,-2,0,-3,-3,-4,-4,-4,-2
28655649099,-1,1,3,2,3,2,-2,0
28655649099,0,1,0,7,4,2,-9,1
28655657274,-5,-10,-7,0,-2,-3,-6,-4
28655657274,-1,-9,-1,-4,-6,-3,2,-2
28655672241,-2,-7,-2,-3,-9,-7,-9,-3
28655672241,0,-7,2,1,6,2,-7,-2
28655672948,0,1,-7,-6,-1,-1,0,0
28655672948,1,4,1,1,-2,1,10,2
28655686637,1,0,0,-2,-7,-3,7,0
28655686637,-5,-7,-1,-5,-8,-2,4,-2
28655694765,-2,-3,-2,-4,0,-1,7,-1
28655694765,-2,5,3,-2,-3,-5,5,-1
28655709106,-16,-5,-12,-4,1,-1,-7,-8
28655709106,8,-1,-10,3,3,0,6,2
28655717262,12,13,13,6,5,4,3,6
28655717262,0,5,0,-5,-4,-2,-20,-2
28655732256,4,6,4,5,4,3,-8,2
28655732256,-19,-2,-4,-4,-1,-3,-4,-14
28655732939,8,-8,-6,-3,-6,-2,7,7
28655732939,4,-3,-4,1,1,-1,0,2
28655746630,-1,-3,0,1,6,1,4,0
28655746630,-4,3,3,0,-1,-2,-5,-4
28655754640,-6,-6,-7,-6,-4,-1,-5,-6
28655754640,-2,2,3,-1,-3,2,-1,1
28655769099,2,-2,-2,6,2,3,1,0
28655769099,2,6,6,3,-1,1,7,1
28655777214,-3,-2,-2,2,1,-4,3,-3
28655777214,4,4,4,0,1,0,4,1
28655792263,-8,-2,-1,-3,0,-1,-1,-3
28655792263,7,6,4,2,4,3,4,6
28655792912,-7,-6,-4,-6,-6,-4,-4,-4
28655792912,-9,-24,-18,-7,-4,-4,-20,-6
28655806572,14,19,23,6,4,3,-2,7
28655806572,2,1,6,3,0,1,-1,1
28655814876,-2,0,-3,-1,-3,-2,-3,-3
28655814876,-6,-11,-4,-1,-2,-2,7,-5
28655828994,1,2,4,0,1,1,4,0
28655828994,1,-5,-2,-1,0,0,0,1
28655837294,-2,1,0,-2,-4,0,1,-2
28655837294,-3,-2,-4,-3,-5,-1,2,0
28655852237,-1,-8,-6,-2,-1,0,9,0
28655852237,-1,0,0,-3,-3,-4,4,-1
28655852919,-5,-3,-6,-4,1,-3,0,-3
28655852919,0,-2,-7,-3,0,-4,-4,-1
28655866602,4,9,7,0,1,-1,-2,2
28655866602,-1,-8,-5,1,1,-1,2,0
28655874836,-4,-4,2,-5,-2,1,-1,-3
28655874836,-2,-10,-16,-3,-1,-3,2,0
28655888972,4,15,17,5,-1,1,0,1
28655888972,1,-2,-2,0,0,-1,-1,0
28655897337,-3,0,1,-2,-3,-3,-4,-3
28655897337,1,7,6,5,1,1,6,2
28655912124,-5,-12,-14,-6,-5,-2,0,-4
28655912124,-2,-2,-1,0,-2,-1,-3,-3
28655912963,-2,-3,-3,-1,2,-1,2,-2
28655912963,4,7,2,1,2,-1,5,2
28655926571,1,3,-3,1,-3,0,3,3
28655926571,-4,0,0,2,-4,0,-2,-2
28655934834,-1,-2,-2,0,-4,0,-1,-2
28655934834,-4,-5,1,0,-2,0,-3,-3
28655949123,-5,-8,-4,-2,0,-1,-3,-4
28655949123,-4,-5,-2,-4,0,-3,-2,-2
28655957249,1,2,-8,-4,-5,-3,-4,1
28655957249,1,5,8,2,0,0,-3,-1
28655972196,-5,-10,-8,-1,-1,-2,-4,-2
28655972196,-4,-4,-10,-6,-3,-3,-3,-2
28655972918,-1,-1,0,-1,1,0,0,-2
28655972918,-1,1,3,0,0,0,-1,0
28655986545,1,1,-1,0,3,0,0,-2
28655986545,0,-5,-8,-3,-1,-1,0,0
28655994713,-1,1,3,-1,0,-1,-1,0
28655994713,0,1,-2,-2,1,0,1,0
28656009040,-3,-10,-7,-2,0,-4,-3,-4
28656009040,1,4,4,-1,-4,-1,4,-1
28656017319,-2,-1,1,-2,-2,-2,-2,0
28656017319,-3,3,3,2,2,2,1,-2
28656032276,-6,-8,-8,-4,-4,-4,-7,-3
28656032276,7,-1,-9,4,0,3,3,6
28656032950,3,8,8,2,-1,-2,2,0
28656032950,-4,-7,-5,-7,-2,-2,-1,-2
28656046474,-4,-8,-3,-5,-3,-1,-1,-1
28656046474,-2,-7,-4,2,0,0,-4,-3
28656054723,1,2,2,0,-6,-4,-4,0
28656054723,2,5,-2,-2,3,4,0,1
28656069158,-1,-5,-8,-3,1,-2,-4,1
28656069158,0,13,17,1,0,-1,-4,0
28656077205,-1,-6,-3,4,0,0,-2,0
28656077205,-1,3,2,1,0,1,-4,-1
28656092312,4,-2,-7,0,0,0,-3,3
28656092312,0,1,1,-1,0,-2,-4,-1
28656092941,0,-4,-5,-4,2,0,-1,-1
28656092941,-2,0,2,-1,-7,-3,0,-2
28656106638,-6,-4,1,-1,-1,1,-2,-5
28656106638,4,10,11,1,1,-3,1,1
28656114767,-2,-5,-6,-2,-1,-2,-3,-4
28656114767,3,-1,-2,-1,0,1,0,0
28656129009,0,3,0,-3,-2,-2,-1,-2
28656129009,-3,3,6,1,-1,0,1,-3
28656137966,2,-7,-9,-3,-1,4,2,2
28656137966,-2,-3,-4,-4,-2,-3,-3,-1
28656151758,-2,0,2,1,1,1,-1,0
28656151758,-4,-8,-10,-7,-8,-2,-4,-3
28656160470,6,13,12,8,6,3,2,5
28656160470,-4,-3,-5,-1,-3,-4,-1,-3
28656166606,0,0,2,0,-5,-5,-1,-2
28656166606,-1,-7,-14,-5,-1,-1,-3,-2
28656175481,-3,-2,-4,-2,0,-1,2,-2
28656175481,0,1,0,0,1,-2,-1,0
28656189102,0,1,1,1,0,1,1,2
28656189102,-5,-4,-3,-3,-3,-2,-2,-3
28656197927,-1,-5,-5,-3,-3,1,-2,-3
28656197927,-1,-1,1,1,-1,1,2,1
28656211485,2,2,-2,-2,-1,-2,-2,-1
28656211485,-6,-10,-3,-3,1,-1,-3,-2
28656220485,6,16,13,5,3,-1,-1,2
28656220485,-1,-4,-1,-7,-7,-5,-1,-3
28656226599,-1,-4,-1,-3,0,2,1,1
28656226599,-5,-9,-5,0,4,2,1,-3
28656235432,-1,7,7,-4,-3,-3,-1,-3
28656235432,2,5,1,-1,0,-2,-1,1
28656249134,1,-4,-2,3,-2,-3,-2,-1
28656249134,2,7,3,0,0,-1,-1,2
28656257995,-10,-24,-18,-5,-1,-1,-4,-2
28656257995,4,11,6,1,-1,-1,-2,0
28656271544,-1,1,7,6,2,2,1,-3
28656271544,-4,-3,4,1,1,2,-2,-3
28656280473,9,11,13,7,3,1,2,2
28656280473,-4,-4,-3,-5,0,0,-2,-2
28656286571,-3,-1,-4,-4,-2,-1,1,1
28656286571,0,3,-2,-4,-4,-8,0,-1
28656295435,-3,0,-5,-5,-2,-2,1,0
28656295435,-6,-9,-7,2,-2,-2,-2,-4
28656309082,8,6,0,-3,-1,-1,0,3
28656309082,0,-2,-3,-1,-1,1,1,-2
28656317971,1,-5,-8,-7,-5,-2,-1,-1
28656317971,2,2,14,11,3,4,4,-1
28656331571,-2,-5,-13,-8,-4,-5,-3,-1
28656331571,3,3,8,6,6,1,-2,2
28656340498,-4,-6,-16,-11,-5,-2,-3,-1
28656340498,1,2,5,6,4,3,-1,0
28656346570,-5,-1,4,3,-2,-1,-2,-2
28656346570,-3,-10,-9,-2,-5,-2,0,0
28656355491,-5,0,2,0,1,2,-3,-2
28656355491,4,6,-5,-11,-4,-4,-1,3
28656369133,-2,0,6,0,-2,1,-1,-1
28656369133,3,7,6,8,5,1,0,0
28656378074,-7,-4,0,0,-1,-1,1,-3
28656378074,-2,-7,-9,-3,-5,-1,-1,-1
28656391518,0,-2,-4,-1,-1,-1,-1,0
28656391518,-6,-5,-3,-7,-5,-1,0,-3
28656400452,2,1,-3,1,0,1,1,0
28656400452,-3,-4,-2,-3,0,-2,-3,-2
28656406565,-4,-9,-10,-5,-2,-4,-1,-3
28656406565,3,11,13,3,1,1,2,2
28656415484,-2,-2,-3,-6,-4,-1,-1,-1
28656415484,0,-5,0,3,1,0,0,2
28656428973,0,0,-2,1,2,0,0,-1
28656428973,-1,-1,-1,-1,0,-1,-1,-1
28656437967,1,1,0,-2,-2,-3,-3,-1
28656437967,-4,-9,-5,0,1,0,0,-1
28656451572,3,10,1,-1,-1,-1,-3,-1
28656451572,-4,-2,1,0,-1,0,-3,-3
28656460471,2,-4,1,1,-3,-2,-2,2
28656460471,-5,-4,3,2,1,-1,-1,-3
28656466507,1,2,2,0,2,1,2,1
28656466507,-5,-6,-14,-10,-3,-5,-1,-3
28656475469,1,2,9,11,2,1,0,0
28656475469,-1,2,1,0,-2,-3,-2,-3
28656489017,-4,-3,-3,-5,-3,1,0,-2
28656489017,-1,-1,0,-2,-1,2,1,-1
28656497957,-4,-3,-8,-10,-4,-2,-2,-4
28656497957,1,-5,-7,-1,0,-2,0,2
28656511522,1,8,10,4,0,0,2,-2
28656511522,-1,-1,2,-1,-1,0,1,0
28656520492,-2,-6,-5,-3,-1,-2,0,1
28656520492,-1,-1,2,0,1,0,-1,-1
28656526522,0,-9,-10,-6,-3,-3,0,-2
28656526522,3,1,3,3,0,-2,-4,1
28656535454,0,3,1,1,-3,-3,0,-3
28656535454,-4,-3,-5,-4,-4,0,-1,-2
28656549149,3,-1,2,0,0,3,-1,1
28656549149,3,0,2,-3,-5,-3,-1,-2
28656557964,-2,-5,0,-1,5,2,-1,-3
28656557964,-1,-1,0,-1,-2,1,-2,-3
28656572089,-5,4,7,3,2,0,-3,-3
28656572089,4,-8,-13,-5,-2,1,-1,2
28656580437,1,9,7,-1,-1,-3,-1,-2
28656580437,4,6,1,-2,-1,-2,0,1
28656595290,-3,5,2,4,0,-2,-2,-1
28656595290,-7,-3,-1,3,-1,-1,-1,-5
28656596914,-2,-8,-6,-1,-3,-2,-2,0
28656596914,2,2,-2,-2,1,0,-1,0
28656609076,2,0,2,0,-4,-4,-2,0
28656609076,0,-2,-8,-8,-3,-3,-2,0
28656617982,0,0,7,4,4,2,1,-1
28656617982,-4,-3,0,-1,-2,-1,0,-4
28656631583,-3,-6,-7,-1,1,1,1,1
28656631583,-1,1,1,-2,-3,-2,-2,1
28656646494,-3,-3,-6,-2,-1,-1,-4,-1
28656646494,0,0,0,-1,-2,-1,-1,0
28656655465,-3,-5,-4,0,0,-2,-4,-2
28656655465,0,3,3,0,-1,-3,-2,-2
28656656952,0,2,3,0,1,0,-1,-1
28656656952,-2,-9,-7,2,2,1,-1,0
28656669001,4,11,9,-1,-3,0,3,0
28656669001,-9,-9,-3,-1,-2,-2,0,-3
28656677992,-2,-7,-7,-5,-4,-4,-1,2
28656677992,-7,-3,-6,-2,1,-2,-5,-6
28656691544,10,-2,-8,-7,-1,-2,-2,5
28656691544,7,6,11,11,6,4,3,3
