29563012637,-1,-2,-4,-1,0,-1,-2,-4
29563012637,-12,4,5,3,1,0,0,-12
29563013481,0,-14,-3,2,2,5,2,9
29563013481,-8,3,1,-2,-2,-2,-3,-3
29563014847,8,3,3,3,1,0,1,4
29563014847,-9,-11,-7,-2,2,3,1,4
29563015616,1,2,0,-2,-1,-1,-2,-4
29563015616,-14,-10,-2,1,1,1,2,-5
29563023417,-6,0,3,2,-1,-3,-3,-5
29563023417,2,2,-1,-3,-2,-3,-1,0
29563029096,-13,-10,-4,-2,-6,-4,2,-10
29563029096,17,10,5,0,1,-4,-10,8
29563037817,4,11,6,2,1,0,0,-3
29563037817,-12,-2,2,2,2,-1,-1,-3
29563052804,23,8,3,3,-1,-2,-2,5
29563052804,-14,-9,-5,-2,0,0,0,-3
29563059772,-8,-10,-8,-4,-1,-1,1,0
29563059772,7,3,1,0,-1,-2,-2,1
29563082765,-6,1,-5,-6,-2,-2,0,-4
29563082765,0,5,2,3,-3,-2,-2,-9
29563084024,2,-5,-1,2,1,0,-3,12
29563084024,4,-7,-7,-4,-1,2,0,1
29563122284,0,5,4,1,-3,-4,-2,-5
29563122284,6,7,4,-2,-3,-1,1,0
29563123042,-1,-1,0,-1,-1,-4,-3,-4
29563123042,-1,-1,-1,0,1,-2,-4,-1
29563123930,-5,-6,-5,-2,1,0,0,-2
29563123930,-13,-6,-1,-4,-3,-2,-2,-5
29563126945,28,9,3,1,-3,-1,-1,4
29563126945,-28,-14,-6,-3,-2,1,3,-1
29563133743,-9,-16,-9,-1,0,2,0,0
29563133743,11,8,0,0,4,-2,-3,4
29563141931,-10,1,4,-1,0,0,-1,-2
29563141931,13,5,4,-3,-2,-3,0,-1
29563148729,-3,2,3,-4,-4,-2,1,-2
29563148729,-5,-6,-2,0,0,2,-2,-3
29563164573,-17,-13,-6,0,2,2,3,-6
29563164573,16,15,8,5,3,2,-2,7
29563171353,-7,-2,-5,-2,2,1,-3,-2
29563171353,14,0,-1,-2,-3,-1,0,3
29563186524,-2,-4,-7,-3,-1,-2,-2,0
29563186524,-20,-8,-5,-1,-1,-1,1,-11
29563195253,49,17,4,0,-2,-3,-3,8
29563195253,-19,-8,-3,2,4,-1,0,5
29563210224,-1,2,4,2,1,1,0,0
29563210224,0,-2,-2,-3,-4,-4,-1,-1
29563211720,-7,2,0,0,0,1,-1,-3
29563211720,15,4,-3,-3,-2,-1,0,4
29563232756,-2,-6,-8,-3,-3,-1,-1,1
29563232756,8,7,4,-1,-6,-1,0,-4
29563234224,-22,-12,-11,-7,1,-1,-6,-3
29563234224,8,19,20,12,6,4,6,0
29563246336,-6,-3,-1,-2,-1,-1,-2,-1
29563246336,4,-6,-1,-1,3,1,-1,-1
29563255253,-7,-5,-1,-5,-6,-4,-2,-5
29563255253,-15,-9,-11,-7,-5,-2,-3,-16
29563269574,13,6,5,-1,-2,-3,-1,5
29563269574,0,1,-3,0,1,-1,-3,-1
29563270220,2,-2,1,1,-1,-1,1,1
29563270220,-9,-8,-4,1,1,-1,-3,-2
29563292066,-2,0,-2,0,-3,-3,-2,-4
29563292066,-4,-10,-13,-5,0,-1,-3,-2
29563292719,-2,14,17,5,1,0,2,1
29563292719,1,-1,-5,-2,-3,-4,-4,-4
29563314541,-12,-1,-1,-3,-2,-5,-3,-5
29563314541,-1,-6,-5,-1,-3,0,1,2
29563315258,-2,-4,-5,1,-2,0,-1,-2
29563315258,-16,0,1,-4,-4,-4,-1,-8
29563329555,-2,-14,-10,-2,-5,0,2,6
29563329555,24,6,1,-5,-3,-6,-9,3
29563330242,6,2,2,-1,-2,-4,0,5
29563330242,-5,-4,-4,-1,-2,1,-1,2
29563352068,-4,1,-2,-2,-2,-3,-3,-5
29563352068,-7,1,1,3,0,0,1,-3
29563352694,-1,-5,-4,-1,0,0,-1,-3
29563352694,6,-7,-9,-6,-1,-2,-3,1
29563374544,9,9,6,5,1,3,2,1
29563374544,-8,-4,-1,0,1,2,2,-2
29563375191,2,4,1,2,0,-3,-4,-2
29563375191,-5,-5,-2,0,1,-1,-2,-3
29563389506,7,5,6,0,2,1,0,2
29563389506,-8,-3,1,0,-3,-1,0,-3
29563390198,-6,-5,-3,-2,-1,-1,1,-3
29563390198,13,1,-2,0,0,0,1,2
29563412044,-12,0,5,-1,-2,-2,-2,-5
29563412044,5,0,0,2,0,-3,0,3
29563412698,-1,-2,-2,1,1,1,0,-1
29563412698,5,2,1,0,-3,1,-1,2
29563434445,-3,-5,-4,-3,-1,-1,-2,-5
29563434445,-7,-1,0,-1,-3,-3,-1,-2
29563435224,-3,-1,-5,-4,-3,-2,0,-7
29563435224,-9,-3,-1,0,1,0,-2,1
29563449673,14,0,-6,-3,0,0,0,-3
29563449673,-11,-8,-3,-3,-1,-1,0,1
29563450174,-2,-5,-4,-1,-1,1,-2,-1
29563450174,3,0,3,-1,-2,-3,0,-1
29563472063,-5,-1,1,-1,-2,-2,-2,-1
29563472063,0,2,-2,-2,-1,0,-1,-2
29563472673,3,0,3,1,1,0,-2,0
29563472673,-3,0,0,-1,-2,-1,-2,-2
29563502725,1,-2,-1,0,0,-2,-1,0
29563502725,2,0,-4,-3,-2,-2,0,-2
29563503370,-6,-1,1,2,2,1,-1,1
29563503370,-1,-2,0,0,-2,0,-1,-1
29563509652,-4,3,0,-1,-1,-2,-2,-3
29563509652,24,2,-1,-2,-3,-2,-2,9
29563510196,-2,-8,-5,-2,1,-1,0,2
29563510196,0,2,1,1,1,0,0,1
29563532066,-8,-4,-4,0,-1,0,-1,-3
29563532066,7,7,3,-1,1,-2,-3,-5
29563532723,-3,-2,0,-1,-3,-2,-2,-4
29563532723,-4,-10,-7,-6,-7,-5,0,-1
29563554636,-6,-4,-1,-1,2,0,0,1
29563554636,-3,1,0,1,0,0,-2,-6
29563555174,5,3,1,1,-1,-1,-1,1
29563555174,-5,-6,-3,-3,-3,-3,-2,-4
29563569511,2,-1,-3,-4,-3,-3,-3,0
29563569511,-6,1,3,1,2,1,0,-2
29563570215,-4,-6,-6,-2,-1,-1,0,-1
29563570215,-8,1,3,2,1,0,0,-3
29563592048,4,-5,-6,-3,-2,-1,0,4
29563592048,-12,-1,1,-2,-1,0,-2,-4
29563592722,16,2,0,-1,1,-1,-1,10
29563592722,6,-1,-4,-2,2,0,-2,1
29563614560,-1,-2,-2,-1,-5,-2,-2,-2
29563614560,-2,3,2,1,2,2,2,2
29563615193,-9,-3,-1,-2,-2,-1,-1,-4
29563615193,0,2,2,-2,-2,1,-2,0
29563629429,-4,-2,-3,-1,2,2,-2,0
29563629429,-8,-6,-3,1,-2,0,-1,-3
29563630181,-2,5,1,-1,-2,-2,-3,-3
29563630181,-1,-1,0,0,-2,-1,-1,0
29563652017,-6,-3,0,0,-1,0,0,-3
29563652017,-5,-6,-3,-1,-1,-1,0,-3
29563652675,-2,1,2,0,-4,-1,0,-3
29563652675,0,-3,-4,-3,-2,-2,0,-1
29563674528,2,4,6,1,3,1,-1,0
29563674528,2,1,-2,-2,1,-4,-1,0
29563675190,1,1,0,1,1,2,2,3
29563675190,2,1,1,0,-1,-2,0,-1
29563689428,0,-3,-2,-1,-3,-1,-1,0
29563689428,0,-2,-1,-1,-1,-1,-1,1
29563690173,-5,0,-2,-1,-2,-2,-3,-3
29563690173,0,0,-2,-1,-2,0,0,-1
29563712095,-2,-5,-3,-1,0,-1,-1,-3
29563712095,1,4,6,2,-2,0,-1,1
29563712694,1,-1,0,-3,-2,-3,0,-2
29563712694,0,0,0,0,1,-1,-1,-1
29563734503,0,1,-1,1,0,-1,-2,-2
29563734503,1,-4,-3,-1,-2,-2,-2,-2
29563735169,1,-3,-4,-1,1,0,0,-3
29563735169,0,1,2,-2,1,1,-1,0
29563748866,3,-1,-2,-3,-3,-3,-1,-1
29563748866,1,-5,-2,-2,-2,-1,-1,1
29563756493,1,1,0,-1,0,-2,-1,-3
29563756493,-1,-3,-3,-1,-2,-4,-2,-2
29563772012,-1,0,-1,0,0,-1,0,1
29563772012,-3,-1,-5,-3,0,0,-2,-1
29563772703,-1,-2,-1,-1,-3,-2,-2,-1
29563772703,-1,-2,-2,1,0,-1,-1,-1
29563794497,0,1,1,0,1,0,1,0
29563794497,-4,-4,-3,-3,-4,-3,-3,-5
29563795198,-1,-3,-5,-4,-3,0,0,0
29563795198,1,6,4,-1,0,-1,1,0
29563808847,1,2,4,2,-1,-1,-1,0
29563808847,-5,-3,0,2,3,-1,-3,-4
29563816380,-2,-1,-2,-2,-1,-2,-4,-3
29563816380,-1,0,0,-1,-5,1,2,1
29563832082,0,-2,-7,-4,-2,0,1,-2
29563832082,-1,-1,2,4,0,2,2,1
29563832722,-3,0,1,0,-1,0,-1,-2
29563832722,-4,-4,-5,-2,2,-1,-4,-3
29563854490,-4,0,-3,-1,-1,-2,-1,-1
29563854490,-1,-2,-8,-6,-3,-1,-1,1
29563855192,-1,1,-3,-1,-1,-1,1,1
29563855192,-2,-3,-1,0,-1,-2,-2,-1
29563868904,-3,-8,-8,-2,-2,-1,-1,-1
29563868904,1,8,11,2,4,0,0,0
29563876372,-4,0,1,-3,-4,-2,-3,-3
29563876372,-1,-2,4,2,-1,-2,-4,-2
29563891995,-3,0,6,2,3,-1,-2,-2
29563891995,-1,-4,-5,-4,-4,-3,-1,0
29563892774,0,1,4,3,0,0,2,2
29563892774,-6,-6,-6,-4,-3,-2,-3,-3
29563914625,3,4,3,0,-2,0,0,1
29563914625,1,2,4,3,2,1,-1,0
29563915219,-2,4,8,3,2,0,-3,0
29563915219,-1,-7,-10,-7,-6,-4,-2,2
29563928906,0,5,9,0,-1,1,-1,1
29563928906,-4,-5,-8,-4,-1,-1,-3,-1
29563936371,0,-3,-4,0,-1,-2,0,-2
29563936371,0,2,1,-1,-2,-1,-2,-2
29563952068,-3,-4,-7,-3,-2,-1,0,1
29563952068,-2,0,2,0,-2,-3,0,-1
29563952672,-2,-3,-5,0,0,1,0,-2
29563952672,-2,-3,-3,1,0,-1,-2,-1
29563974597,-4,-6,-4,-6,-5,-3,-3,-4
29563974597,3,5,3,2,3,2,3,1
29563975216,-2,-2,-5,-1,-1,-2,-2,-2
29563975216,0,3,-2,1,0,1,0,-1
29563988814,-1,-3,-6,0,1,-2,-1,-1
29563988814,-1,-2,1,-2,-2,-1,-1,-1
29563996355,1,-2,-2,-3,-3,-1,-1,-1
29563996355,-2,-1,-1,0,1,1,-1,0
29564011935,-1,1,1,1,-1,-2,-2,-2
29564011935,0,-3,-7,-3,-3,-2,-3,-1
29564012655,-5,-8,-9,-5,-5,-3,-1,-3
29564012655,2,6,8,1,0,1,1,0
29564034523,3,5,5,0,2,2,0,2
29564034523,-2,0,0,1,-1,-4,-2,-3
29564035170,0,-2,-5,-1,0,-1,-2,0
29564035170,-2,-5,-5,-2,-1,-2,0,-2
29564048808,0,-1,-3,-1,-3,-3,-1,0
29564048808,0,-1,-2,-5,-6,-2,-1,-2
29564056339,1,0,0,-4,-2,0,0,1
29564056339,-2,2,1,1,-1,-2,-3,-3
29564072015,-2,2,1,0,3,2,0,0
29564072015,-2,-2,-1,-1,-1,-1,-2,-2
29564072698,4,3,0,3,3,1,0,3
29564072698,3,3,-1,-5,-3,-1,1,-2
29564094497,1,-5,-4,-1,-1,0,3,4
29564094497,-6,-4,2,3,0,-2,-3,-4
29564095217,-3,-1,2,4,2,2,0,-1
29564095217,7,3,0,-1,0,2,0,5
29564117158,-5,-11,-15,-8,-6,-3,-4,-5
29564117158,8,21,27,5,0,1,5,5
29564117695,-4,-2,0,-2,0,-1,-2,-5
29564117695,-2,-4,-2,2,1,-2,0,-3
29564140067,0,-2,-2,-1,1,1,-1,-2
29564140067,-2,-10,-15,-6,-3,-1,0,-2
29564140890,-6,1,-1,-6,-9,-7,-6,-6
29564140890,-8,-12,-7,3,0,-3,-3,-4
29564154526,7,9,9,2,10,6,2,4
29564154526,-4,-3,-3,5,7,1,0,-2
29564155240,7,5,1,-2,0,1,0,4
29564155240,-2,-5,-5,-1,-5,-3,-1,-1
29564177043,-1,2,3,-2,-6,-5,-3,-2
29564177043,-4,-4,-7,-3,-3,-2,-3,-3
29564177720,-5,-5,-2,-3,-3,-2,0,-6
29564177720,6,4,1,-1,4,1,3,8
29564200244,-3,-6,-5,-2,-6,-4,-4,-4
29564200244,3,-3,-1,-1,-2,-3,-3,0
29564200904,2,11,15,5,3,2,2,0
29564200904,-8,-4,-3,-2,-2,-3,-1,-7
29564214478,-2,-2,-5,-2,1,-3,-1,-1
29564214478,-10,-11,-9,-8,-8,-6,-5,-9
29564215220,6,2,1,5,4,3,0,6
29564215220,6,5,5,-1,-2,1,3,2
29564237053,-6,-2,0,-2,-2,-1,0,-2
29564237053,1,-10,-12,-4,-4,-5,0,5
29564237696,-6,-4,-1,2,3,2,-2,-3
29564237696,5,0,-5,-5,0,0,0,2
29564260240,-3,0,-2,-1,0,0,-2,-2
29564260240,6,7,5,2,-3,-1,-1,2
29564260941,-6,-7,-5,-1,-1,-2,-1,-3
29564260941,-3,-1,1,0,-1,-1,-4,1
29564274470,-17,-13,-7,-7,-8,-6,-5,-12
29564274470,8,9,-6,1,6,3,2,4
29564275223,6,10,13,4,0,-1,0,0
29564275223,-2,0,0,2,3,2,-2,-5
29564297099,6,1,-2,1,-2,-2,1,5
29564297099,-9,-7,-2,-2,-3,-1,-1,-4
29564297733,-12,-12,-9,-6,-6,-2,-2,-6
29564297733,7,4,-2,-4,1,2,4,6
29564320086,18,17,5,3,2,0,-3,-10
29564320086,-26,-26,-7,-5,-6,-4,-1,1
29564320954,0,-4,-6,0,4,4,0,1
29564320954,-5,0,4,0,-4,-2,-4,-8
29564334528,-7,-4,-4,-5,-3,-1,1,0
29564334528,14,13,11,6,2,3,1,2
29564335149,2,3,4,-4,-6,-5,-1,-1
29564335149,-11,-9,-4,5,3,0,-3,-4
29564356983,-2,-6,-8,-3,-4,-1,-2,0
29564356983,0,3,1,-10,-6,-3,-3,-4
29564357724,-1,-4,-4,2,1,-1,3,4
29564357724,3,1,-1,-4,-3,-5,-3,-1
29564380365,-15,-9,-10,-7,-4,-2,0,-5
29564380365,14,1,10,8,2,2,0,9
29564380914,-3,3,1,-1,-8,-6,-6,-7
29564380914,-1,-9,-1,3,7,3,2,4
29564393824,15,11,10,3,1,-2,-1,6
29564393824,-7,-5,-13,-11,-4,-4,-4,-2
29564401982,1,-3,-5,-5,-10,-9,-2,0
29564401982,-3,-4,-15,-15,-9,-4,-5,-12
29564417044,-11,-4,17,18,13,9,8,9
29564417044,4,5,0,1,-2,-3,-2,-7
29564417754,-1,-2,7,3,7,3,-2,-1
29564417754,-2,-1,-12,-13,-15,-8,-2,1
29564440228,3,10,7,-4,-6,0,3,0
29564440228,-8,-7,-3,6,5,2,-1,-9
29564440920,11,8,-2,3,5,1,4,10
29564440920,-1,-1,0,6,3,-1,0,0
29564453867,9,3,0,-9,-9,-4,-2,4
29564453867,-7,-7,-3,-2,-2,-5,-3,-6
29564461997,-10,-5,-5,-2,0,-2,-6,-9
29564461997,-1,-2,-5,-6,-7,-2,-1,2
29564477480,7,8,8,11,6,2,2,3
29564477480,-8,-5,-11,-5,-4,-5,-6,-10
29564478233,6,-6,-11,-8,-2,0,0,5
29564478233,-7,1,16,4,-1,0,-2,-6
29564500143,2,-10,-13,1,1,-2,-6,9
29564500143,0,7,8,0,3,6,4,3
29564500926,0,-7,-11,2,3,0,1,3
29564500926,-8,-8,0,-8,-14,-5,-1,-7
29564513842,5,0,-3,-3,-10,-10,-3,-3
29564513842,-11,-6,1,7,17,8,0,-3
29564522061,-7,-11,-12,-4,-9,-7,6,4
29564522061,7,7,-3,-3,4,-1,-3,-4
29564537070,-9,-3,-5,-10,-18,-7,-3,-7
29564537070,5,1,-10,-8,-18,-10,-1,-5
29564537665,2,12,32,18,24,13,1,3
29564537665,-2,-2,-7,-13,-13,-13,-12,-5
29564560205,2,9,13,18,15,4,2,-1
29564560205,0,-8,-27,-16,-7,-2,2,3
29564560916,1,-4,-5,-11,-21,-10,-1,-6
29564560916,-4,-11,-22,6,18,11,7,3
29564573868,14,24,53,25,8,6,8,14
29564573868,-7,6,11,2,4,2,-5,-1
29564582031,7,-3,0,-6,0,1,1,2
29564582031,1,-4,-16,-15,-21,-11,-1,4
29564597136,-19,-30,-36,-25,-32,-19,-8,-13
29564597136,-3,-10,-3,26,18,12,4,-3
29564597697,5,14,3,5,13,5,-6,-2
29564597697,1,17,23,6,2,0,-1,-5
29564620350,-9,-12,-15,-10,3,-2,-2,-5
29564620350,4,2,6,-3,-11,-8,6,-1
29564620894,-35,-35,-50,-54,-37,-23,-14,-22
29564620894,47,35,46,50,32,18,13,26
29564642556,-10,4,13,22,16,4,-15,-15
29564642556,-1,-10,7,5,17,15,17,12
29564643336,5,10,-5,-11,-9,-6,-3,-4
29564643336,-13,-15,-5,-8,-15,-8,-3,-5
29564657059,-5,1,-3,19,22,10,6,-1
29564657059,7,3,2,-8,-22,-17,-11,-3
29564657692,-7,-14,-22,21,47,26,-1,-6
29564657692,0,3,15,-7,-7,0,3,4
29564680140,3,3,-9,-27,-7,4,2,4
29564680140,-10,-32,-47,-19,-25,-20,-4,-8
29564680895,3,19,48,10,-22,-12,8,2
29564680895,-37,-23,-8,23,35,13,4,-16
29564693878,45,51,41,0,3,6,10,22
29564693878,-1,3,3,20,19,6,0,4
29564702079,0,-9,-18,-28,-28,-14,-8,-4
29564702079,-14,-14,-19,-16,-14,-12,-12,-11
29564717072,-33,-36,-24,-18,-46,-29,-14,-22
29564717072,-5,-10,-3,-18,6,0,-25,-17
29564717676,5,20,27,27,4,4,-2,-3
29564717676,14,21,18,44,34,17,1,6
29564740344,-18,-13,-4,-12,-10,-5,0,-5
29564740344,16,11,-6,-33,-14,-1,-2,5
29564740915,-13,-13,-5,16,21,0,-4,-4
29564740915,-17,-30,-46,-12,0,6,0,-6
29564762664,40,60,61,40,18,17,20,24
29564762664,5,7,15,19,27,17,-1,7
29564763366,16,4,-9,-17,-4,-2,1,15
29564763366,-7,5,4,-3,-27,-18,-9,-7
29564777060,6,-7,2,1,-2,-6,-10,-4
29564777060,-2,2,0,-13,-20,-12,-3,5
29564777695,-2,2,4,-18,-38,-15,4,1
29564777695,9,-1,-20,-12,30,22,6,6
29564800233,-11,-13,-18,12,19,5,-4,-6
29564800233,16,0,-38,-21,-5,-6,3,10
29564800909,-16,0,40,24,-1,-1,-15,-11
29564800909,-3,-2,0,-18,-11,-6,3,7
29564823143,-17,-12,-20,-48,-32,-15,-10,-21
29564823143,-6,-1,-10,11,14,8,-1,-8
29564830326,5,-14,3,34,37,14,12,15
29564830326,18,26,25,-2,-8,-3,5,2
29564837017,0,-16,-26,-1,3,-1,-1,2
29564837017,-24,-5,-11,-63,-71,-34,-14,-26
29564837692,3,8,13,54,66,29,8,3
29564837692,2,7,36,20,-7,-8,-5,-3
29564860226,-18,-37,-51,-49,-7,1,-1,2
29564860226,32,36,45,31,30,14,8,15
29564861677,-11,-11,-3,-21,-26,-11,-3,3
29564861677,-13,-29,-51,-25,-9,-9,-4,-5
29564882475,7,11,25,-3,-12,-5,2,3
29564882475,-28,-13,0,5,13,4,-4,-10
29564888890,5,-5,-17,11,17,10,9,-4
29564888890,18,13,-5,-32,-22,-11,1,16
29564896377,0,-4,-8,-4,0,3,-4,0
29564896377,10,8,23,27,20,11,11,14
29564905208,12,16,15,0,11,3,-3,3
29564905208,-14,-9,1,-36,-38,-22,-15,-23
29564920245,-16,-16,-25,1,45,23,-6,-10
29564920245,9,2,11,36,18,4,8,10
29564921707,-1,1,-15,2,5,2,0,-6
29564921707,6,-6,-20,-3,11,6,1,9
29564942692,3,7,15,-4,0,3,9,9
29564942692,-10,-3,22,34,-23,-23,-15,-19
29564944172,-17,-18,-25,-39,-17,0,8,10
29564944172,-14,-40,-11,11,-5,-12,-10,-7
29564956340,16,34,43,29,9,4,8,6
29564956340,-15,-21,-25,-65,-63,-27,-8,-10
29564965210,-4,6,-16,-11,-1,3,2,-10
29564965210,-8,-6,13,28,14,3,-8,-6
29564980119,-5,-23,-30,-12,-16,-9,-3,-10
29564980119,-9,11,-9,-64,-67,-36,-9,-11
29564981655,12,-14,-15,46,65,28,-6,-4
29564981655,13,41,32,21,1,-4,-2,2
29565002713,0,6,21,23,19,11,4,11
29565002713,11,1,16,20,-12,-3,11,5
29565004201,-11,-8,-5,-20,-15,-10,-12,-11
29565004201,-19,-39,-33,-42,-18,-6,-7,-14
29565016324,19,44,21,8,23,11,3,10
29565016324,2,12,22,36,34,22,8,9
29565025238,0,-7,-25,-39,-45,-28,-6,-4
29565025238,24,25,46,70,69,46,22,20
29565040194,-30,-7,12,-32,-49,-33,-18,-30
29565040194,12,-35,-35,5,39,22,9,10
29565041691,36,57,24,25,17,7,9,19
29565041691,7,14,-6,0,4,7,8,8
29565062694,-22,-28,-46,-52,-62,-33,-17,-32
29565062694,4,3,-8,60,100,48,8,22
29565064205,-6,-13,-4,-11,-29,-13,0,-5
29565064205,17,15,0,-21,14,13,3,6
29565076320,-23,-36,-10,-14,-18,-6,-10,-8
29565076320,20,44,49,3,9,13,18,8
29565085237,38,60,59,8,-41,-16,9,12
29565085237,-36,-7,17,46,65,38,13,3
29565100344,22,-4,-17,-8,16,3,3,4
29565100344,-11,-16,-25,-53,-44,-17,-11,-11
29565101704,-4,-15,-10,16,-1,1,4,4
29565101704,-5,8,20,-17,-52,-35,-19,-17
29565122643,-10,-6,-16,33,24,7,1,1
29565122643,7,16,-19,-39,-31,-10,-3,2
29565124159,-20,-29,-10,1,14,2,-12,-12
29565124159,0,7,10,11,-30,-20,-2,-2
29565136252,-2,-15,-23,6,27,19,7,6
29565136252,-28,-16,-11,5,-7,-22,-26,-27
29565145245,9,-6,-3,0,10,20,15,14
29565145245,-10,-3,-12,-32,-12,-9,1,-7
29565160283,15,26,11,6,-16,-9,-3,2
29565160283,-13,-24,-47,-47,-17,-2,3,5
29565161711,-15,-15,26,19,3,-1,-2,1
29565161711,5,-18,-36,-30,15,16,-5,9
29565182662,-2,10,31,53,33,8,-2,-8
29565182662,-7,-11,-27,-40,-29,-14,-5,-7
29565184222,-18,-25,-20,17,28,15,-3,-18
29565184222,40,60,5,-12,4,4,26,38
29565197032,-3,5,37,17,-1,6,10,1
29565197032,5,10,9,70,51,10,11,-1
29565203869,13,13,5,-15,-14,-5,8,8
29565203869,-7,-5,4,-17,-39,-30,-17,-26
29565220127,2,-32,-75,-41,-4,2,-3,4
29565220127,10,33,63,67,39,20,9,13
29565221676,-9,-10,-3,-10,-30,-17,4,-5
29565221676,-30,-29,-14,-3,-36,-20,18,-23
29565242729,3,5,8,-16,-5,0,15,-3
29565242729,-3,-25,-32,-41,-20,-4,3,7
29565244185,-4,0,-5,-16,-25,-17,-21,-9
29565244185,-14,-1,13,21,5,-1,-28,-21
29565256370,-4,-9,-13,22,6,-2,-20,5
29565256370,-12,-16,2,17,5,1,-19,-4
29565265210,10,18,6,-30,-9,1,-11,1
29565265210,-18,-32,-32,-35,-19,-11,-21,-10
29565280168,26,34,39,58,59,31,6,31
29565280168,-6,-6,-6,11,17,5,-3,-5
29565281656,12,12,-21,-73,-58,-24,-5,13
29565281656,-10,-14,-7,21,19,10,-11,-25
29565302698,7,15,40,67,67,35,11,11
29565302698,-6,-19,-10,-39,-27,-13,-8,1
29565304205,10,8,-40,-21,-9,-4,13,-11
29565304205,12,-17,-32,-63,-21,-3,16,29
29565316325,24,19,46,69,51,19,1,21
29565316325,19,45,39,-1,-6,7,6,-9
29565325232,-22,-6,16,45,38,12,-2,-15
29565325232,-12,-37,-32,13,5,-8,-7,-3
29565340193,-21,-18,-38,-73,-62,-36,-7,-17
29565340193,4,1,-2,-10,-8,-5,-3,0
29565341688,-13,-3,-5,5,4,-4,-5,-8
29565341688,10,30,49,17,-13,2,3,3
29565362753,-8,-27,-23,17,34,16,7,4
29565362753,4,13,12,-2,-25,-19,-7,-6
29565364206,-22,-30,-25,-44,-33,-21,-18,-14
29565364206,1,6,-13,14,11,5,8,7
29565376326,-7,-38,-61,-69,-52,-24,-23,-19
29565376326,10,33,61,77,65,38,28,21
29565385235,18,-6,-21,6,8,5,7,21
29565385235,-7,-19,-48,-21,-4,-7,-6,-9
29565400167,-18,46,60,22,7,4,12,-1
29565400167,57,25,-4,34,36,15,2,24
29565401690,-2,-11,-14,-44,-28,-7,3,2
29565401690,-12,0,33,53,25,2,-3,-1
29565422679,2,9,-37,-41,-46,-26,1,-4
29565422679,-9,-11,42,29,9,3,5,-20
29565424157,0,10,-7,-13,9,8,2,5
29565424157,9,5,35,42,13,7,10,-3
29565436358,0,-13,-16,-47,-43,-24,-10,-3
29565436358,-20,-11,-29,-34,-21,-15,-12,-12
29565445184,-9,-21,-19,-15,-29,-16,2,-6
29565445184,2,14,36,-6,-16,-3,-5,8
29565460234,-34,-42,-43,-16,10,4,-5,-21
29565460234,31,45,7,-13,-22,-5,-1,12
29565461769,-5,-5,15,13,23,15,0,9
29565461769,26,25,1,-9,-22,-9,3,20
29565482671,-17,-5,25,40,25,9,0,-7
29565482671,-22,-43,-78,-99,-55,-27,-18,-16
29565484178,4,5,38,99,81,38,9,8
29565484178,-8,-10,-54,-66,-32,-11,-3,-19
29565496353,-1,-26,-18,-28,-24,-10,5,5
29565496353,-16,14,67,68,18,-1,-15,-13
29565505207,7,21,25,9,4,1,4,4
29565505207,-3,7,2,-16,-16,-9,7,2
29565520125,9,-14,-59,-40,-17,-3,2,-3
29565520125,-22,-27,-6,-28,-36,-21,9,-8
29565521659,4,3,23,23,30,19,5,2
29565521659,11,17,9,-9,2,3,8,2
29565542750,14,14,12,1,3,7,5,11
29565542750,1,3,12,9,15,9,0,6
29565544181,-25,-31,-25,-23,-49,-38,-25,-18
29565544181,-18,-43,-57,-42,-7,0,-15,-8
29565556365,1,26,52,61,32,9,-7,1
29565556365,59,33,40,85,72,40,13,43
29565565208,-12,-4,-43,-44,-30,-14,-16,-23
29565565208,-10,-8,34,36,13,2,-13,-11
29565580229,26,36,47,8,-1,9,-1,19
29565580229,-39,-74,-75,-17,-2,-10,-10,-16
29565581679,-33,-5,4,-13,-45,-37,-19,-29
29565581679,17,-3,9,16,24,21,8,18
29565602698,10,12,-16,-28,-30,-14,2,1
29565602698,-32,-27,-26,-43,-25,-15,-1,-21
29565604203,3,-4,7,-12,-5,-3,-1,-5
29565604203,-9,1,-12,-15,-15,-10,-1,-4
29565616323,-18,-21,7,-6,-24,-23,-8,-10
29565616323,1,-15,-67,-83,-47,-9,5,-2
29565625232,0,-10,41,94,97,41,4,9
29565625232,18,35,34,30,25,13,5,8
29565640235,-6,-9,-22,-38,-30,-11,2,-12
29565640235,4,27,3,-11,-9,-7,-6,-4
29565641696,17,-25,-47,-70,-64,-30,-2,14
29565641696,0,5,39,80,67,25,-6,-2
29565662539,-20,-27,-27,-9,-15,-7,-5,-13
29565662539,-7,2,9,12,-7,-7,-5,-12
29565664137,17,20,-6,6,14,13,17,21
29565664137,26,19,-14,-43,-24,-11,3,18
29565685121,-34,-38,-3,21,19,-1,-12,-24
29565685121,14,24,6,-30,-27,-10,3,4
29565686667,-39,-11,5,24,21,3,5,-19
29565686667,18,-7,-26,-18,-10,-3,13,16
29565700152,-14,4,4,19,29,12,-9,-11
29565700152,17,10,18,47,19,16,7,18
29565701683,13,12,7,-27,-17,-3,2,7
29565701683,-24,-27,-22,-30,-25,-16,11,-16
29565722703,0,-5,11,12,-5,-3,1,-1
29565722703,2,7,8,-12,3,-1,-7,10
29565724200,25,47,29,16,5,5,-13,7
29565724200,-45,-44,-41,35,34,4,-26,-30
29565745202,19,14,12,-41,-32,-1,12,20
29565745202,-12,-9,10,26,34,9,-6,-14
29565746679,8,2,17,5,0,3,19,14
29565746679,-17,-15,-20,-23,-48,-29,-14,-13
29565760166,13,31,14,-5,-5,-4,-2,3
29565760166,-17,-43,-44,-4,13,5,2,-4
29565761652,2,17,24,15,6,-1,-8,-7
29565761652,10,17,-4,-17,-11,5,13,12
29565782671,-2,-15,-6,-10,-11,-2,9,6
29565782671,-9,-2,-6,-7,-4,-3,4,-18
29565784207,-11,-17,-16,-32,-21,-8,-2,0
29565784207,25,24,50,47,29,19,0,14
29565805177,10,17,8,33,34,16,4,0
29565805177,-7,-7,0,-11,-11,-9,1,12
29565806696,5,10,-11,-43,-41,-13,-9,-9
29565806696,-6,-2,28,37,44,15,1,7
29565820079,19,6,-28,-4,14,7,7,16
29565820079,1,38,78,50,-2,-5,1,-1
29565821670,2,-28,-62,-8,15,4,-6,1
29565821670,6,12,28,8,-1,4,2,3
29565842728,-6,-19,-54,-43,-34,-19,-10,-6
29565842728,13,11,-26,-81,-58,-22,-8,-4
29565844173,-20,0,17,28,55,22,7,-6
29565844173,14,4,-14,5,0,5,5,7
29565865273,11,21,42,57,38,11,4,10
29565865273,-11,-23,-37,-23,-10,2,2,-4
29565866653,1,4,10,-1,-14,-8,-7,-11
29565866653,-22,-47,-47,-38,-27,-12,6,-5
29565879554,11,10,1,-26,-23,-10,-11,-1
29565879554,-17,-35,-41,-27,-12,-7,-5,-7
29565886423,33,52,61,45,16,7,4,12
29565886423,10,7,-6,21,51,26,13,16
29565902692,-3,2,24,2,-8,-4,-1,2
29565902692,-11,-11,3,16,8,-5,-8,-5
29565904210,-22,-33,-32,-24,-21,-2,6,-7
29565904210,8,30,26,-6,-27,-14,-5,-4
29565925146,-2,9,9,-6,-4,-5,-3,2
29565925146,-3,-9,2,34,13,6,7,-2
29565926698,6,6,8,8,3,-1,-2,9
29565926698,-10,0,14,-7,-17,-15,-21,-14
29565939532,2,-8,-3,15,13,13,11,-4
29565939532,-30,-28,-14,-6,0,-3,-6,-3
29565946273,26,9,-25,-49,-46,-17,11,13
29565946273,-2,7,39,52,33,11,-2,-4
29565962648,0,-1,-17,-23,-11,-9,-6,-1
29565962648,0,3,28,46,28,18,3,-6
29565964202,-2,-7,-12,1,15,4,-5,-1
29565964202,12,14,-2,-19,-9,-1,4,8
29565985188,-15,-16,-25,-19,-17,-16,-13,-14
29565985188,4,8,10,-2,-3,-1,6,7
29565986676,-17,-13,6,3,4,0,-11,-16
29565986676,10,28,30,14,-2,-1,0,0
29565999527,-6,-17,-4,-2,4,7,15,10
29565999527,6,9,1,-17,-5,0,-2,1
29566006363,-25,-31,-13,-15,-18,-13,-9,-10
29566006363,-6,-15,-20,18,14,5,-3,-8
29566022713,-6,1,17,25,18,6,-10,-7
29566022713,16,17,8,-18,-7,-3,2,6
29566024161,-4,0,5,22,20,10,2,4
29566024161,-25,-47,-70,-69,-47,-25,-9,-19
29566045235,4,-1,-12,-18,-15,-8,1,4
29566045235,22,46,60,46,27,12,0,4
29566046705,-12,-4,5,-3,-7,-8,-10,-8
29566046705,5,-6,-19,-2,5,0,3,3
29566059509,-4,-1,-15,-16,-11,-6,-3,-5
29566059509,-3,-11,-22,-17,-7,-4,0,4
29566066431,-11,-6,9,-7,-18,-9,5,0
29566066431,-2,-12,-5,-9,4,2,-2,-3
29566082660,-1,-3,12,66,35,6,-11,-5
29566082660,-5,-1,-8,0,3,2,0,0
29566084182,15,-2,1,22,20,11,0,2
29566084182,4,6,5,-11,-6,0,12,12
29566105146,-8,-7,-11,-30,-27,-13,-4,-8
29566105146,-10,-16,-20,-21,-16,-11,-7,-8
29566106582,-12,-18,-22,0,12,3,-1,-5
29566106582,-7,-9,-21,-68,-58,-27,-15,3
29566119521,5,11,16,38,45,22,11,-12
29566119521,13,25,48,64,35,20,6,8
29566126351,20,25,2,1,18,16,7,11
29566126351,0,-2,-9,-3,4,0,-3,1
29566142704,0,-2,10,-14,-20,-5,2,9
29566142704,-12,-19,-20,-22,-16,-11,-5,-7
29566144175,-4,-7,-10,-11,-12,-10,-3,-6
29566144175,2,2,0,8,3,1,-3,-7
29566165086,3,10,1,-15,-10,-1,2,5
29566165086,5,-4,-7,-25,-21,-7,2,1
29566166709,2,9,26,47,31,10,-4,-4
29566166709,10,18,6,3,5,4,3,-1
29566179471,-5,4,7,-6,-6,-4,-5,-6
29566179471,-2,-7,-18,-7,-1,-2,-5,1
29566186362,10,2,-8,-24,-23,-9,-4,4
29566186362,-9,-8,-1,-3,-5,-4,0,-3
29566202646,-10,-27,-26,-14,-9,-6,-2,1
29566202646,-6,0,3,1,4,-2,-7,-9
29566204168,-7,-5,-11,-5,0,-2,-6,-11
29566204168,10,25,44,44,22,10,3,-1
29566225083,-12,-5,-6,-13,-11,-3,-3,-3
29566225083,2,-7,-13,-14,-7,-4,-2,-3
29566226645,-5,-5,-4,-1,-3,-4,0,-2
29566226645,-4,-4,-3,-16,-8,-3,-3,-4
29566238765,17,9,2,6,-1,-5,-3,9
29566238765,-18,-4,-1,7,10,9,5,-9
29566247690,-4,-1,-6,1,0,-1,2,-1
29566247690,-8,0,15,2,-3,-3,-3,-8
29566262720,13,4,-20,-1,5,2,4,4
29566262720,2,5,11,15,9,1,-2,2
29566264188,9,3,-1,-13,-16,-4,1,8
29566264188,-5,-3,-3,-1,-1,3,2,0
29566285204,-4,4,8,-8,-7,-3,-2,-4
29566285204,-3,-8,-8,-1,5,2,-6,-2
29566286693,-4,2,-2,1,5,1,-2,-1
29566286693,2,-2,2,6,1,-1,-7,-2
29566298813,0,0,1,2,3,3,4,1
29566298813,-8,-8,-13,-14,-11,-6,-7,-5
29566307717,4,-5,-1,-4,-7,-4,-1,5
29566307717,-1,-3,-9,-9,-5,-1,5,0
29566322634,-4,3,16,11,4,-2,-6,-7
29566322634,0,-5,-5,0,-1,-1,5,3
29566324185,0,5,2,0,1,1,1,0
29566324185,3,3,-2,-1,1,0,-3,1
29566345203,-3,-4,0,0,0,-1,-1,-5
29566345203,-1,-1,-2,-1,-6,-6,-6,-1
29566346716,-2,0,2,-2,-4,-2,1,-1
29566346716,-2,-4,-3,-1,-1,1,-1,-1
29566358791,-5,-4,0,2,2,0,-2,-3
29566358791,0,-1,-1,2,2,-1,-2,-2
29566367716,-2,-3,-5,-6,-5,-3,-1,0
29566367716,2,3,-2,0,-4,-1,3,3
29566382640,-4,-2,-3,1,2,-1,0,-2
29566382640,4,-2,-6,-3,-4,-2,-2,0
29566384182,-3,-2,-4,-4,-4,0,-2,-2
29566384182,-4,-5,11,4,7,-1,-5,-4
29566405181,4,8,17,2,-3,1,4,3
29566405181,-2,-4,-4,-2,2,-2,-2,-3
29566406579,0,1,-2,-6,-8,-5,4,0
29566406579,0,-1,11,-1,0,0,2,1
29566428976,-2,-3,-1,-1,0,-1,-4,-1
29566428976,1,2,1,-2,-3,-2,-5,1
29566430602,-3,0,-8,-2,0,0,-5,-2
29566430602,-1,-3,-14,-1,0,-2,-4,-2
29566442689,-2,-4,-6,0,0,1,-2,-1
29566442689,-1,-1,-4,-1,0,-2,-1,-1
29566444186,-1,-2,-3,1,1,1,3,-1
29566444186,-1,-1,-6,1,-2,-1,-1,-3
29566465081,0,-1,-8,-2,-1,0,-2,-1
29566465081,0,3,-5,2,-1,1,1,1
29566466583,0,0,-11,-2,0,-1,1,0
29566466583,-1,2,-16,-1,-2,-2,0,-2
29566478854,1,-3,-9,0,-2,-3,-1,-1
29566478854,1,-3,2,-1,-3,-2,-2,0
29566487717,-1,-2,10,2,5,-2,-8,-3
29566487717,-3,-2,-5,-3,-3,-4,-3,-2
29566502596,-2,4,-6,-1,0,2,-1,0
29566502596,-1,1,-8,0,-1,0,-1,-1
29566504175,0,-1,7,-6,-6,-1,-9,-1
29566504175,-1,1,-14,0,-1,0,-15,1
29566525171,-1,1,-22,1,0,0,6,0
29566525171,-1,0,-16,0,-2,-3,16,-2
29566526653,-2,2,-12,0,-1,-1,11,-3
29566526653,-1,-3,3,-3,1,-3,1,-3
29566538861,-1,-3,0,-2,-2,-1,4,1
29566538861,1,0,-6,-2,-1,-1,-3,-2
29566553845,-2,-3,-22,0,-2,1,-3,0
29566553845,0,-3,-10,-1,-2,-1,-2,-1
29566562100,-1,-3,1,0,-1,-3,-12,-1
29566562100,1,-2,-11,-3,-1,-1,-3,-2
29566568759,0,1,16,-1,-1,-1,-3,0
29566568759,1,1,6,-1,0,0,-16,-1
29566585119,-2,-2,8,-1,-4,-2,-11,-3
29566585119,-1,0,14,-4,-2,1,-3,1
29566586576,2,7,28,4,0,-1,10,2
29566586576,-1,-1,17,1,-1,1,6,1
29566598822,0,-2,9,-2,-1,0,-10,-1
29566598822,-3,-6,0,-2,-3,-4,-17,-2
29566607658,-2,-6,-33,1,-1,-2,0,-1
29566607658,0,2,-36,0,0,-1,3,-1
29566622069,0,-2,-14,-2,-2,-1,4,-2
29566622069,-3,-2,-15,-1,-1,0,9,0
29566628901,-4,-9,14,-4,-1,1,-1,-1
29566628901,-1,1,20,-3,1,0,3,-2
29566645206,0,1,-16,-2,-2,0,82,1
29566645206,2,4,14,1,0,0,5,0
29566646685,-1,-3,7,-3,-4,-3,-18,-1
29566646685,-3,-5,-4,0,-2,-2,-14,-3
29566667654,-3,-3,-7,-1,1,0,-35,-3
29566667654,1,10,-14,0,0,0,-10,2
29566669154,0,2,28,0,1,-1,-20,0
29566669154,-2,-3,-6,-3,-3,0,-15,-2
29566682050,-3,-4,-11,-3,-1,-4,-6,-2
29566682050,-3,-8,-34,-2,-1,-2,-7,-2
29566688897,-2,-2,-21,1,1,1,-2,-1
29566688897,-1,-3,-5,0,0,-2,6,1
29566705181,-2,-1,13,-2,-2,-1,-1,0
29566705181,0,-5,1,-1,-2,-1,13,-1
29566706579,0,2,24,1,-1,-1,16,-4
29566706579,2,-1,33,-3,-4,0,20,0
29566727704,-2,0,35,-1,-2,-1,6,-3
29566727704,-3,-3,40,-3,-4,-2,0,0
29566729155,0,0,6,-1,0,-1,11,-1
29566729155,-1,1,8,1,0,0,9,-1
29566742079,-1,-2,13,0,1,0,-10,-2
29566742079,1,2,18,-1,-1,0,27,-1
29566748852,-2,-8,11,-5,-5,-3,6,-1
29566748852,-2,3,8,-2,-1,-3,-6,0
29566765148,0,1,-20,-1,1,1,-7,0
29566765148,-1,1,-18,2,2,-2,-1,-2
29566766580,0,3,-31,-3,-4,0,11,2
29566766580,-2,-3,-16,-2,-2,-2,-13,-1
29566787719,-3,0,12,0,-3,0,-43,0
29566787719,-2,-2,5,2,1,-1,-6,-3
29566789179,0,-2,7,-2,1,1,-15,-2
29566789179,4,4,7,0,1,-2,-8,-1
29566801944,-1,-2,4,-1,0,-1,-5,0
29566801944,0,-3,15,1,-2,-1,-10,0
29566808811,-2,0,-3,0,0,0,-3,-2
29566808811,-4,-4,-2,-2,-3,-1,8,-1
29566825234,3,2,7,-2,-3,-1,13,1
29566825234,-1,0,15,1,-2,1,2,0
29566826657,-1,-2,0,0,2,-2,2,0
29566826657,-4,-7,-3,-3,-3,-2,32,-3
29566847692,0,-1,1,-1,1,-1,7,-1
29566847692,-1,3,8,-1,-5,0,-11,1
29566849189,-2,-5,-11,-2,0,0,-13,-1
29566849189,5,5,0,-1,2,-2,8,0
29566861300,-2,0,-4,2,1,-1,6,-3
29566861300,2,-2,-4,-5,0,0,0,-1
29566870210,-1,1,2,-1,-1,-1,-1,-1
29566870210,-1,-4,-2,-1,-2,0,-6,1
29566885170,-1,-4,-8,0,-1,-1,-2,1
29566885170,-2,-1,-4,-1,0,0,-11,-2
29566886661,-3,-5,-12,-3,-4,-4,-14,-2
29566886661,1,4,7,3,1,2,-4,1
29566907689,-1,0,1,0,1,-1,-3,0
29566907689,3,7,7,-1,-1,-1,0,-1
29566909122,0,-1,-2,-1,-3,0,4,-1
29566909122,-2,-3,-3,-2,-2,-1,-8,-2
29566921335,-2,-1,4,0,-1,-1,-9,-3
29566921335,-5,-8,0,-2,-1,-3,1,-2
29566930204,2,-8,-8,-3,2,0,8,-2
29566930204,2,7,2,2,1,2,2,1
29566945165,-3,-1,-4,-3,-3,-2,5,-1
29566945165,-3,-2,-2,0,0,-2,-2,0
29566946682,-4,-1,-4,-1,-1,0,-1,-2
29566946682,-5,-9,-10,-4,-1,-3,-3,-3
29566967732,4,2,-9,-3,-4,-2,4,1
29566967732,0,-1,-11,-5,-1,-2,3,2
29566969158,-1,3,0,-6,0,-2,2,-1
29566969158,-2,-2,1,1,1,0,-6,-1
29566981366,2,-2,-4,2,1,-1,-4,-1
29566981366,-2,-3,-7,-2,-2,-4,0,-3
29566990183,0,0,-2,3,0,0,0,1
29566990183,-6,-10,-11,1,0,0,0,-4
29567005113,-1,2,6,2,3,2,0,0
29567005113,2,1,1,4,-1,-1,-6,-3
29567006608,2,1,-7,1,0,1,-1,1
29567006608,1,0,-6,-6,-3,-2,-6,-1
29567027755,-1,-3,-5,4,0,-2,9,-1
29567027755,2,-2,-11,-3,-1,-1,-1,1
29567029147,-1,1,-1,1,0,-1,0,-1
29567029147,-4,-1,-6,-5,-1,-2,-7,-2
29567041339,0,0,-5,-1,-2,-1,-2,0
29567041339,-3,-2,4,9,4,2,3,-1
29567050183,6,8,5,-2,-6,-6,-1,2
29567050183,-1,-1,5,5,-1,-2,1,1
29567065112,6,10,4,-7,1,-1,-6,1
29567065112,0,3,-2,-3,-2,-2,-1,-1
29567066577,-8,-10,-5,-2,1,2,0,-5
29567066577,-2,-4,1,1,-1,1,0,0
29567087655,-9,-12,-15,-6,-5,-2,-6,-2
29567087655,4,4,8,-1,2,1,-10,0
29567089186,0,2,6,2,2,2,-1,1
29567089186,-1,-5,-6,-2,-1,0,0,0
29567101287,2,5,9,2,-2,-2,-7,-1
29567101287,-5,-5,-7,-5,-1,0,-5,0
29567110211,-4,0,4,5,-2,-2,0,-2
29567110211,-3,-6,-17,-13,-6,-3,4,-3
29567125190,-2,-2,9,6,1,-3,7,-3
29567125190,3,7,5,2,1,-2,3,1
29567126658,0,-4,-4,-3,-3,-2,3,-1
29567126658,-6,-5,-1,2,-1,-2,-1,-5
29567147730,3,0,-11,-11,-5,-5,-5,1
29567147730,-5,-6,-8,-3,-6,-1,-1,-2
29567149126,-1,-2,-10,-4,-3,-1,-6,0
29567149126,6,7,7,4,1,-3,-3,3
29567161199,1,1,4,3,4,4,4,0
29567161199,1,3,-2,2,-1,0,2,1
29567170212,-1,5,7,1,-4,-4,-4,-1
29567170212,-1,-2,1,4,2,1,-4,-1
29567185159,-12,-17,-14,-11,-11,-4,1,-5
29567185159,3,3,-6,0,3,-2,0,0
29567186655,0,2,3,1,1,2,8,1
29567186655,0,1,-4,-5,-2,-4,4,-1
29567207767,3,6,2,0,-2,-4,-2,1
29567207767,-5,-8,-5,-9,-4,-2,-1,-3
29567209131,-1,-3,-7,-3,2,0,1,-3
29567209131,5,6,12,6,2,2,0,1
29567221320,0,-1,8,5,1,-1,-2,-2
29567221320,-1,-1,1,-7,0,3,3,0
29567230154,1,-1,0,0,-1,-3,-8,1
29567230154,-6,-5,14,9,3,3,2,-1
29567245193,0,0,-9,-8,1,2,2,0
29567245193,-5,-7,-11,-4,1,2,4,-3
29567246741,-1,0,7,7,-2,-1,1,-2
29567246741,2,5,-2,-5,-4,-3,-3,-1
29567267678,-3,-1,-7,-1,-2,-5,-4,-2
29567267678,2,2,3,0,-2,-2,-4,-3
29567269158,-1,-4,-16,-18,-7,-5,-4,-1
29567269158,2,2,9,8,3,2,-1,0
29567281405,1,-2,3,6,2,3,1,0
29567281405,-3,-1,5,5,0,1,-1,-2
29567290181,-4,-8,-17,-13,-7,-5,-3,-4
29567290181,1,-2,-6,-3,-3,-2,1,0
29567312727,-3,2,8,8,6,1,-2,1
29567312727,-3,-5,-13,-7,-4,-1,2,-1
29567314183,-1,-2,8,8,1,0,0,-2
29567314183,1,-1,-17,-16,-6,-5,-3,-1
29567327672,-1,0,18,21,9,7,6,-1
29567327672,1,2,8,5,1,-2,0,-1
29567329153,-3,-4,-7,-6,-4,-4,-2,-1
29567329153,-4,1,3,3,0,0,-2,-2
29567341336,1,-2,-14,-9,-4,-1,-1,2
29567341336,0,-2,6,2,-1,-1,-1,1
29567350181,-6,-15,-12,-2,-1,4,3,-2
29567350181,3,10,18,7,2,-1,-1,-1
29567365144,1,4,-1,-4,-6,-3,-3,-3
29567365144,-3,0,6,4,1,1,2,0
29567366578,3,3,-2,0,0,0,-1,1
29567366578,-6,-11,-17,-6,-1,0,-1,-3
29567387701,4,5,4,-4,0,0,-3,0
29567387701,-1,-4,-8,-3,0,-2,-4,-1
29567389181,0,5,11,5,4,1,0,-1
29567389181,0,-2,-3,0,1,2,1,2
29567401221,-8,-7,-13,-5,-5,-2,-2,-4
29567401221,-4,-9,-5,-1,-1,0,-1,-1
29567410180,1,6,14,7,3,0,0,2
29567410180,1,2,-4,-3,1,1,2,-1
29567425047,-2,-6,-9,-6,-7,-3,1,-2
29567425047,2,6,1,-1,2,-1,-5,1
29567426604,-3,0,0,2,2,1,0,-2
29567426604,-3,-6,-3,-1,-3,-2,-2,-2
29567447638,-3,-6,-6,-7,-3,-5,-1,-1
29567447638,-1,-2,-1,1,-1,-2,0,1
29567449140,1,3,-1,-2,0,-2,-3,-2
29567449140,-1,-3,-8,-12,-5,-5,-4,-2
29567461269,0,-2,-5,-1,4,3,-1,0
29567461269,2,4,18,16,3,2,0,0
29567470202,-2,-6,-10,-3,0,0,-1,-2
29567470202,1,7,10,4,-1,0,-1,2
29567485169,-4,-4,-3,-4,-3,-1,0,-2
29567485169,3,8,-4,-10,-6,-7,-8,-2
29567486658,1,1,5,4,-1,2,1,0
29567486658,0,-2,-4,-4,-2,-2,-1,-1
29567507781,-5,-3,2,2,0,1,0,-1
29567507781,-7,-11,-7,-1,-1,1,3,-3
29567509136,6,4,1,1,-1,-3,-3,2
29567509136,-3,-6,-9,-3,-1,-2,-3,-2
29567521293,0,3,6,1,-5,-3,0,1
29567521293,-2,-4,-4,-2,-1,2,1,-1
29567530151,-3,-1,-5,-7,-3,-3,-3,-2
29567530151,-3,-6,1,4,2,0,-2,-4
29567544536,-3,-8,-16,-12,-3,0,2,-3
29567544536,-1,0,1,0,0,1,0,2
29567551322,2,8,8,-1,-2,-4,-4,-1
29567551322,-1,-2,-10,-3,-2,-2,-3,-1
29567567739,-2,3,4,1,1,0,-2,-1
29567567739,0,-4,-9,-8,-5,-2,-2,2
29567569175,0,2,12,10,4,3,1,1
29567569175,0,-1,-3,-2,0,0,-1,1
29567590149,0,-6,-8,-3,0,-1,-3,-1
29567590149,0,-2,-3,0,0,-1,0,-2
29567591578,-2,0,-5,-6,-3,-2,-2,-2
29567591578,3,2,7,6,2,-1,-9,0
29567604502,1,3,10,6,3,1,2,-1
29567604502,-1,-4,-5,-4,-1,-2,-2,-1
29567611311,1,1,-1,-1,-5,-3,-1,2
29567611311,-3,-9,-13,-7,-2,0,3,-1
29567627745,0,0,-8,-12,-5,-3,-4,1
29567627745,0,3,6,5,2,-2,0,0
29567629131,2,4,2,-4,-1,-1,1,2
29567629131,-3,1,4,5,0,1,3,0
29567650239,7,3,-1,-2,-3,-4,1,0
29567650239,-1,-3,1,4,1,1,5,-1
29567651585,-2,-6,-8,-6,-2,2,6,-2
29567651585,-6,-10,-11,-13,-3,1,13,-1
29567664364,1,2,14,13,3,0,-2,0
29567664364,-1,-1,-4,-3,2,2,-9,-3
29567671133,0,-6,-4,-2,-2,0,-5,1
29567671133,2,4,1,0,-1,-1,-10,-1
29567687649,-3,-3,-3,-1,4,3,-5,1
29567687649,-2,1,-2,-4,-2,-2,-8,-3
29567689136,-2,-1,1,6,3,4,0,-2
29567689136,1,0,-7,-5,-3,-3,1,-3
29567710136,-2,1,2,5,2,0,3,-2
29567710136,2,1,2,0,-6,-6,1,4
29567711669,-4,-8,-11,-7,-1,-1,1,-1
29567711669,-1,-2,-7,-8,-4,-2,1,-2
29567724502,2,5,20,17,7,1,-1,-1
29567724502,0,-1,-3,-2,0,0,3,-1
29567731324,0,5,6,5,5,1,-2,-1
29567731324,0,0,4,5,2,0,2,-1
29567747753,-4,-8,-20,-14,-6,-3,-2,-5
29567747753,-5,-3,-9,-5,-4,-3,-1,-5
29567749147,2,4,17,15,3,-1,-1,1
29567749147,2,5,-2,-2,3,2,0,1
29567770194,-2,-1,0,-1,0,0,0,1
29567770194,-3,-3,-11,-8,-4,-3,-1,-3
29567771603,-2,-1,-8,-5,1,0,-3,-3
29567771603,1,5,16,11,3,1,1,0
29567784531,-1,-2,-7,-4,-2,-1,-1,-1
29567784531,0,1,-3,-7,-4,-1,-1,2
29567791287,-3,-8,-11,-11,-5,-3,-2,-1
29567791287,-2,0,6,11,-1,-5,-8,0
29567807677,-1,3,-3,-9,-5,-3,-6,-3
29567807677,0,-2,-4,-1,0,1,2,-1
29567809157,0,5,4,0,-2,-3,0,-1
29567809157,4,6,9,1,0,1,0,1
29567830149,-1,-1,0,-3,1,0,2,1
29567830149,-2,-4,-5,-1,-1,0,0,-2
29567831627,-4,-8,-3,-2,-4,-2,4,-1
29567831627,-5,-3,-3,-1,1,0,-2,-2
29567843768,-3,-6,-7,-4,-1,0,-3,-2
29567843768,1,1,11,12,2,-1,0,1
29567852660,-4,-1,1,2,-3,-3,-4,0
29567852660,-4,-6,-8,-6,-3,1,-3,-2
29567867761,0,1,1,2,1,-1,0,0
29567867761,0,3,4,-3,1,1,0,1
29567869174,-5,-5,-9,-5,0,-1,2,-2
29567869174,-1,-4,-10,-7,-6,-1,0,-2
29567890179,7,10,20,16,6,2,3,6
29567890179,1,0,-1,-1,-1,0,-3,0
29567891587,-5,-5,-9,-4,2,4,3,-3
29567891587,1,1,3,-3,-8,-10,-3,-5
29567904506,-1,-1,-4,-10,-6,-1,-2,-2
29567904506,-1,6,9,7,0,-2,-2,-4
29567911279,-2,-11,-10,-9,-2,2,-2,1
29567911279,-6,-3,-10,-2,1,-2,-3,-2
29567927656,3,-2,-6,-1,-3,-3,-1,1
29567927656,-1,-3,-9,-7,-4,-2,-3,-2
29567929118,-7,0,2,0,-4,-8,-6,-6
29567929118,12,11,19,13,9,7,3,6
29567950293,-9,-9,-4,0,2,1,-2,-3
29567950293,-2,1,0,-5,-2,-2,3,-1
29567951586,3,-2,2,4,-4,-3,7,-4
29567951586,-9,-13,-10,-8,-9,-6,-3,2
29567964475,-5,-5,-3,4,2,1,-2,-2
29567964475,6,12,10,-2,-3,-1,-4,6
29567971318,-1,8,2,-3,1,2,-4,-3
29567971318,-13,-8,2,0,-1,1,3,-7
29567987678,13,-1,-17,-19,-9,-3,5,5
29567987678,-11,-10,-3,6,2,0,1,-5
29567989129,-1,0,2,-3,0,-1,-1,2
29567989129,1,3,6,3,4,5,1,1
29568010240,-12,-13,-11,-7,-7,-6,-6,-5
29568010240,0,-4,-12,-9,-7,-3,9,-1
29568011684,5,4,10,10,3,-2,-11,0
29568011684,-2,-3,-12,-16,-6,-4,-7,0
29568024465,-12,-3,3,0,-3,-2,-2,-9
29568024465,10,-8,-3,-2,-5,-3,-7,4
29568031338,11,20,17,5,1,2,3,4
29568031338,-1,5,-6,-12,-9,-7,-6,-7
29568047681,7,10,23,24,16,11,8,7
29568047681,-1,0,7,7,5,-1,-2,-2
29568049145,-3,-5,-13,-6,-1,3,11,0
29568049145,-9,-11,-11,-3,2,-2,-5,-7
29568070203,5,-2,-6,0,0,1,0,3
29568070203,2,6,2,3,4,3,-4,2
29568071615,-3,-7,4,7,3,2,-5,-1
29568071615,-4,3,-7,-8,-6,-2,3,0
29568083793,-2,-14,-10,-9,-9,-7,-2,-5
29568083793,3,13,6,2,2,1,3,-3
29568092682,-8,-11,-13,-9,-5,-3,1,0
29568092682,4,8,8,3,-2,-5,-1,0
29568107650,-9,-8,-7,0,-4,-2,2,-1
29568107650,-6,-6,-4,1,6,4,-2,-2
29568109156,10,0,0,0,0,-1,-5,1
29568109156,4,0,5,5,4,1,-2,1
29568130093,3,1,-5,-3,0,-3,-5,-2
29568130093,-14,-18,-10,-3,-2,-1,-1,-5
29568131629,2,11,4,-2,-4,-4,-2,0
29568131629,-4,-11,3,13,5,5,7,3
29568143792,8,27,21,2,2,0,-5,0
29568143792,-14,-18,-12,1,-1,-1,2,-6
29568152657,10,9,-1,-1,2,2,-4,4
29568152657,-10,-3,-12,-10,-8,-4,-1,-7
29568167639,28,23,25,13,8,3,4,12
29568167639,4,5,1,-4,0,0,-4,1
29568169106,-6,-9,-3,1,2,1,-1,-2
29568169106,-10,-4,2,3,-3,-4,-2,-6
29568190073,14,-2,-11,-10,-3,1,2,0
29568190073,-22,-11,-10,-11,-13,-8,-4,-5
29568191584,1,1,1,-4,-7,-4,5,3
29568191584,15,0,-6,-1,2,0,3,5
29568211908,-20,-15,-11,-5,-5,-8,-8,-10
29568211908,4,-6,-10,-12,-8,-3,0,2
29568212613,-14,-19,-22,-2,-5,-4,2,-8
29568212613,-14,12,17,-1,-1,-5,-5,-5
29568226805,15,17,16,12,9,6,2,3
29568227572,-21,-22,-13,-4,-3,-4,-6,-5
29568227572,6,-3,-3,1,-3,-1,2,1
29568249265,-11,-7,-4,-1,1,-2,-10,-3
29568249265,-4,-10,-16,-11,-2,-1,2,-1
29568250087,7,10,14,5,3,1,0,0
29568250087,9,2,-5,-4,-4,-3,-2,-2
29568272646,-19,-10,1,1,-1,0,2,-1
29568272646,-4,-2,4,2,-4,-5,-4,-2
29568273340,8,13,15,2,3,2,-4,1
29568273340,8,-4,-12,-6,-1,2,1,7
29568287007,2,10,0,-12,-9,-4,-5,-6
29568287007,11,-2,-7,-6,-1,-1,-1,2
29568287606,-26,-13,-5,-5,-4,-1,5,-8
29568287606,27,9,9,6,3,-4,-16,7
29568309515,-23,-15,-4,1,7,7,2,-7
29568309515,-5,4,4,4,1,-1,1,-2
29568310129,7,-10,-12,-7,-5,-4,0,-1
29568310129,-16,-8,-10,-12,-5,-2,-3,-7
29568332645,-11,-9,-4,10,4,3,5,-6
29568332645,17,14,17,9,3,0,-2,3
29568333289,-2,-2,0,2,0,-1,-1,0
29568333289,-2,-1,4,3,3,5,5,-1
29568346957,-9,-4,-7,-10,-5,-4,-3,-7
29568346957,8,-6,-9,-9,-5,-3,4,6
29568347616,4,3,-1,-1,0,-1,-8,-3
29568347616,7,7,12,12,9,10,8,6
29568369473,5,9,5,-2,-2,-1,-1,2
29568369473,0,5,2,0,3,1,1,-5
29568370120,-10,-2,-4,-3,-2,-4,-8,-7
29568370120,-4,-7,-10,-4,2,0,-1,-1
29568392641,11,2,0,-2,-4,-4,2,0
29568392641,-17,7,16,6,2,3,-3,-5
29568393322,-2,-5,-5,-3,-2,0,1,5
29568393322,-8,-8,-12,-7,-6,-3,1,-3
29568406928,2,0,2,-4,-5,-3,-6,-1
29568406928,-3,-11,-3,9,6,4,-3,-1
29568407596,-7,4,-3,-8,-7,-6,0,-5
29568407596,1,2,7,6,4,1,2,1
29568429480,0,-4,-6,-3,1,-2,-5,2
29568429480,-12,-11,-9,-7,-8,-4,-5,-5
29568430141,-5,-8,-9,-4,-3,0,1,-2
29568430141,-5,-6,-5,-6,-6,-6,-2,-3
29568452661,7,8,3,-2,0,1,3,0
29568452661,-3,3,1,0,1,-1,-3,-4
29568453269,10,4,5,0,1,0,-1,6
29568453269,3,0,4,1,1,-3,-1,-2
29568466854,-5,-2,-3,-2,0,2,0,-1
29568466854,7,6,-6,-12,-6,-4,0,0
29568467661,12,9,10,11,5,1,-1,3
29568467661,-10,-8,-5,-1,-2,-2,-5,-7
29568489456,2,12,14,6,0,-1,0,4
29568489456,2,-2,-2,-2,-1,0,0,2
29568490114,7,1,2,0,0,-3,0,5
29568490114,-2,-7,-7,-4,-4,-4,-1,-2
29568512654,1,0,-1,2,1,-1,-1,-5
29568512654,-19,-16,-14,-7,-6,-3,0,-9
29568513319,-3,-5,-8,-6,-1,-2,-10,-3
29568513319,-4,2,9,10,5,4,1,-3
29568526960,-1,-13,-11,-7,-1,2,1,6
29568526960,12,18,14,4,2,-1,0,3
29568527578,8,-2,-1,0,-2,-1,1,-3
29568527578,-4,-1,-8,-4,0,-2,-2,-4
29568549438,0,0,7,4,2,2,0,-3
29568549438,-4,-10,-9,-5,-2,0,0,0
29568550142,-7,-1,6,7,-2,1,6,0
29568550142,12,7,1,-1,-3,-2,-4,7
29568572616,-2,-2,-5,0,-1,-1,0,0
29568572616,3,-3,-10,-7,-1,-2,-4,-2
29568573287,-5,1,5,4,3,0,0,-1
29568573287,-1,0,0,-2,2,4,-3,1
29568586891,-11,-20,-20,-15,-7,-3,-2,-5
29568586891,-8,15,15,14,0,-3,0,-3
29568587647,31,16,16,11,9,8,8,12
29568587647,-9,-9,-3,-1,-3,-2,0,2
29568609504,4,0,-6,-4,0,-2,-7,-1
29568609504,2,1,-5,-7,-9,-3,-3,-2
29568610143,-12,-19,-21,-15,-7,-5,-7,-10
29568610143,6,16,17,7,3,0,2,0
29568632666,-17,4,10,6,5,4,4,-4
29568632666,20,6,3,0,1,1,0,7
29568633349,-6,1,2,0,-2,-4,-3,-4
29568633349,0,-6,-8,-6,-5,-1,-1,-4
29568646921,-3,-3,-6,-5,-6,-5,-1,-10
29568646921,-14,-12,-4,1,-1,-1,2,4
29568647615,-2,1,-5,-8,-2,-1,-2,1
29568647615,-4,-3,-3,-1,-1,-2,-1,-1
29568669441,9,10,7,4,0,-2,0,4
29568669441,-3,-6,-5,-4,-3,-3,-2,-4
29568670093,-9,-9,-11,-7,-5,-6,-3,-3
29568670093,1,5,-1,7,3,-4,-13,-2
29568700070,-5,11,19,9,2,2,1,-1
29568700070,13,-3,-7,-2,2,1,0,2
29568700783,-7,-3,-7,-8,-4,-2,-1,-3
29568700783,-6,-3,-2,-3,1,2,4,-4
29568706978,6,-5,-2,3,1,-1,-1,6
29568706978,-4,-7,-6,0,2,1,-1,-4
29568707624,-3,3,3,-2,-4,-2,-3,-4
29568707624,-2,-3,-1,-5,-4,-4,1,-2
29568729358,-9,1,-6,0,1,-2,-2,-6
29568729358,8,0,6,1,0,-1,1,6
29568730106,1,-2,5,3,7,5,-1,3
29568730106,2,5,2,-1,0,1,0,-1
29568752557,-2,1,-2,1,2,3,-2,-2
29568752557,-1,1,4,0,1,2,-3,-3
29568753338,-4,5,8,6,2,0,4,-1
29568753338,5,2,3,3,0,-1,-2,1
29568766917,3,0,-5,-3,-2,1,-2,-1
29568766917,-13,-5,-7,-7,-1,-1,-1,-4
29568767619,7,5,4,2,-1,-2,0,2
29568767619,-3,1,3,-1,-1,-1,-1,-2
29568789378,-1,-2,-1,-4,-7,-3,-1,-1
29568790079,-8,-8,-11,-2,0,2,0,-4
29568790079,1,-1,-6,-4,-3,-2,1,0
29568812677,3,3,11,4,-1,-1,-2,0
29568812677,-6,1,5,1,-2,-2,-2,-2
29568813314,6,12,6,1,2,0,-2,-5
29568813314,-10,-15,-10,-3,0,1,1,2
29568826818,1,0,-2,-2,-3,-2,0,3
29568826818,-5,-7,-4,3,2,1,1,-5
29568827626,-2,-5,-12,-8,-5,-2,0,-1
29568827626,-2,-3,-2,-2,-4,-3,-2,-4
29568849343,2,5,10,1,1,-1,-2,-2
29568849343,-3,9,18,9,2,-1,0,-1
29568850164,2,-1,0,0,-1,-2,-3,0
29568850164,-2,-3,-9,-12,-4,-3,0,0
29568872656,-4,-6,1,5,3,3,5,1
29568872656,-1,-6,-8,-4,-3,-3,-2,0
29568873406,-1,2,5,3,-1,0,-1,1
29568873406,2,2,1,2,-1,0,1,0
29568886928,-5,-14,-22,-12,-2,-3,-3,-4
29568886928,3,4,7,7,2,3,4,1
29568887607,1,6,14,4,4,2,-1,0
29568887607,-2,-3,-3,-1,-1,0,2,0
29568909325,-6,-1,-4,-3,-4,-6,-7,-5
29568909325,1,-9,-10,-5,-4,-4,0,0
29568910101,-2,-3,-5,-4,-6,-6,-6,-3
29568910101,3,3,3,-1,-2,-2,-2,0
29568932658,0,-3,-4,1,2,1,1,1
29568932658,1,3,1,-1,1,-1,-3,-2
29568933317,-4,-3,-2,-2,-1,-1,-1,-2
29568933317,3,2,3,-1,-3,-2,-4,-2
29568946918,0,0,-4,-6,-4,2,3,0
29568946918,-3,-3,-7,1,3,0,-2,0
29568947633,-1,-3,1,3,2,0,1,0
29568947633,-7,-5,-1,5,3,2,-1,-3
29568969483,16,9,7,1,-1,-2,-3,5
29568969483,0,-1,-4,-6,-3,-2,-3,-1
29568970163,-12,-8,-4,-2,-3,-1,1,-5
29568970163,7,-7,-4,-1,-2,0,3,7
29568992606,-7,1,2,-2,-3,-3,-3,-7
29568992606,-4,-6,-5,1,0,-3,-1,-4
29568993293,9,11,7,1,-3,-4,-2,2
29568993293,-2,3,3,2,3,3,-1,-5
29569006833,2,2,-1,-1,0,0,-2,0
29569006833,-1,-1,-3,-6,-5,-2,-1,-2
29569007634,-4,-9,-5,0,-2,-2,0,0
29569007634,1,6,1,-4,-4,-2,-1,-1
29569029351,0,0,-1,2,-1,-3,-1,0
29569029351,0,1,2,3,0,0,-2,-1
29569030223,1,-2,0,-4,0,0,0,1
29569030223,-4,-9,-8,-6,-4,-2,-2,0
29569052504,-3,-2,1,5,1,0,-1,-1
29569052504,-4,-3,0,1,1,-3,-4,-3
29569053344,2,8,-1,-5,-3,-1,-2,-2
29569053344,-5,-2,-2,-2,0,-2,-1,-3
29569066812,3,-2,-2,-9,-9,-6,-1,-1
29569066812,-9,-1,-3,-2,0,2,2,-2
29569067567,-20,-15,-17,-7,-2,0,-2,-7
29569067567,7,3,7,6,5,3,1,4
29569089553,4,5,3,3,1,0,1,1
29569089553,5,0,-11,-14,-7,-5,-1,1
29569090350,2,5,17,19,7,1,1,0
29569090350,-4,1,1,0,-1,-2,-1,-4
29569112620,-9,-8,-8,-6,-3,0,0,-2
29569112620,1,4,4,-1,-2,-2,-2,0
29569113493,-3,-7,-10,-5,0,0,1,0
29569113493,0,-2,-7,-7,-3,-1,-1,0
29569126216,-2,-2,13,14,2,0,3,0
29569126216,-5,-10,-15,-5,0,0,1,-3
29569134455,6,10,16,7,7,3,-1,2
29569134455,-3,-7,-11,-4,-2,0,0,-2
29569149424,1,6,1,-2,0,2,0,2
29569149424,-2,-2,4,3,2,1,2,-1
29569150072,-1,-9,-10,-5,-1,1,1,1
29569150072,-5,-3,-3,1,0,-1,1,-2
29569172614,-4,-4,-12,-7,-1,-3,-4,-3
29569172614,9,8,11,5,0,0,0,2
29569173292,-10,-10,-6,0,0,1,-1,0
29569173292,2,4,3,-1,-1,-2,-4,-3
29569186120,-2,-5,-5,-5,-4,-4,-1,-1
29569186120,1,-1,2,1,4,3,-3,0
29569194474,5,6,4,-2,-4,-3,-3,-1
29569194474,-6,-3,-2,-1,-1,0,0,0
29569209608,-2,1,4,0,-1,-2,0,-2
29569209608,0,-4,-2,0,0,2,4,-1
29569210127,4,5,3,-3,-5,-5,-1,1
29569210127,-1,-1,-2,-3,1,3,-2,-1
