29257660919,4,-6,-8,-3,1,1,0,-1
29257660919,0,-4,-1,-3,-1,-1,-2,0
29257661694,4,0,-3,-5,-1,-2,0,0
29257661694,1,2,4,7,2,-1,-1,-1
29257665934,-13,-7,-6,-2,-1,-2,-1,-6
29257665934,5,7,8,1,-2,-1,0,3
29257667454,-5,-4,-4,-4,-1,-1,-1,-1
29257667454,3,-1,-4,-4,-2,0,-1,-1
29257671611,-2,4,8,4,2,-1,-1,-1
29257671611,-14,-9,-6,1,1,1,-2,-5
29257681057,-3,-3,-5,0,-2,-2,-1,-2
29257681057,-1,0,-1,-3,1,2,0,0
29257695325,1,2,-2,1,0,-1,1,1
29257695325,-1,0,-1,-4,-3,-3,-4,-2
29257702327,-1,3,0,0,0,1,0,-1
29257702327,-5,-11,-13,-6,-2,-3,-1,-3
29257710295,7,10,14,5,0,0,-3,1
29257710295,2,-6,-5,-1,-1,-1,2,1
29257733192,0,6,9,2,3,1,-2,-1
29257733192,1,3,-2,-6,-2,-3,-2,-2
29257734526,-6,-13,-10,-3,-1,1,1,4
29257734526,1,7,3,1,-3,1,2,1
29257779796,-22,-11,-5,-2,0,1,-1,-5
29257779796,1,-2,-3,-1,-1,-1,-1,0
29257780622,-7,-2,-4,-2,-3,-1,-1,-2
29257780622,3,3,2,3,4,2,-1,1
29257781417,4,2,2,-1,-4,-3,-1,1
29257781417,-1,-5,-4,1,-2,0,0,-1
29257784658,1,3,4,-3,-2,0,1,-2
29257784658,-1,-1,2,6,-1,0,-2,-2
29257791439,2,-6,-8,-5,-5,-5,-3,-2
29257791439,1,4,7,3,1,2,2,3
29257799614,1,-1,-1,0,1,-1,-2,-1
29257799614,-1,-2,-6,-6,-1,-2,0,0
29257806344,4,-1,-3,-1,0,-2,0,1
29257806344,-4,-6,-8,-5,-1,1,3,-1
29257822005,-14,0,2,1,1,0,-3,-8
29257822005,15,7,1,-6,-2,-3,-2,5
29257829166,-10,0,6,3,-1,0,0,-3
29257829166,-1,-2,-4,-3,1,-3,-1,0
29257852741,-2,2,3,-2,2,-2,-2,-2
29257852741,-2,-7,-9,-4,-1,0,1,-4
29257854274,7,8,7,-3,0,-3,-3,0
29257854274,1,7,10,3,1,1,-1,-2
29257867142,-3,-11,-8,-3,-2,-1,-1,-2
29257867142,-8,2,1,-4,-2,0,-1,-1
29257873898,4,-5,-8,-5,0,1,0,1
29257873898,-7,0,2,4,0,-1,-1,-2
29257890240,5,2,-3,-3,0,-1,-1,4
29257890240,-7,-7,-3,-2,2,-1,1,-3
29257891749,-2,-1,-6,-2,0,1,-1,-2
29257891749,1,1,0,-1,-3,-1,-3,-2
29257912865,1,-1,-1,1,-1,-2,-3,-3
29257912865,3,6,3,1,0,-1,-5,-2
29257914275,-5,-5,-8,-2,-3,-1,-2,-2
29257914275,0,-2,-1,-3,-3,-2,-3,-3
29257927119,-1,-4,-3,0,-3,0,1,-1
29257927119,-7,-12,-10,-4,-5,-3,-3,-3
29257933923,6,11,21,6,3,2,2,3
29257933923,-2,-4,-6,-4,-3,-2,-3,-2
29257950268,2,1,1,2,1,-1,-1,-1
29257950268,-4,-4,-7,-2,-3,-3,-2,-2
29257951762,2,-1,-2,1,2,-1,-1,0
29257951762,-1,-4,-3,-3,0,-2,0,-1
29257972807,1,-2,-3,-3,-2,-2,0,1
29257972807,-1,-1,-2,-2,-3,-2,-2,-1
29257974306,0,0,-1,-3,-3,-1,-2,-2
29257974306,-2,1,-2,-1,-2,-2,-2,-2
29257987116,1,-1,-1,1,-2,-1,0,1
29257987116,-2,-3,-4,2,1,-2,-2,-1
29257994017,-3,-2,-1,1,-3,0,-1,-3
29257994017,-2,-3,-5,-1,-3,-2,-2,-1
29258010302,-2,-2,-3,-2,-3,-2,0,-1
29258010302,-1,6,11,1,0,1,0,-1
29258011788,-3,-4,-4,-3,0,-1,-3,-1
29258011788,-9,-3,-2,-1,-1,1,-2,-5
29258032775,4,-5,-3,-1,-2,0,0,4
29258032775,-1,-2,-4,-1,-1,0,1,1
29258034286,1,1,-3,0,0,-1,-4,-1
29258034286,0,-1,-1,-3,-2,-3,-2,-2
29258047149,-2,0,1,0,-1,-1,-3,-2
29258047149,-1,-1,-1,-1,0,-1,-1,0
29258053954,-2,1,-1,-2,-1,-1,2,1
29258053954,-1,-2,-4,-2,0,-2,-2,-1
29258070276,0,2,1,-2,0,-3,0,-1
29258070276,-3,-3,0,2,0,1,-1,-3
29258071784,1,-1,-2,-1,-3,-2,0,-1
29258071784,0,0,-1,-2,-3,0,-2,0
29258092795,-3,-2,-2,-2,-2,0,-1,-2
29258092795,-2,-3,-3,-2,-4,-2,-2,-2
29258094250,-2,-2,3,4,1,2,4,0
29258094250,3,2,0,0,0,-1,-3,0
29258106450,-2,-4,-7,-2,-1,0,-3,-1
29258106450,1,6,10,-2,-1,-2,-1,0
29258115282,-2,-3,-4,-3,-1,0,-2,-3
29258115282,-1,-1,2,0,-1,-2,1,-1
29258130246,-1,0,1,-1,-1,0,0,-1
29258130246,-2,-4,-7,-5,-3,0,-2,-1
29258131771,-1,1,-1,0,-1,-2,-1,0
29258131771,-1,-2,1,2,0,0,0,-2
29258152118,-1,4,-1,-3,-1,-1,-1,-1
29258152118,-2,-4,-6,-4,-2,-1,-2,-1
29258152769,-1,2,2,0,-1,0,0,1
29258152769,2,0,0,-1,-1,-1,0,0
29258174595,-5,-3,-3,-4,0,-2,-2,-2
29258174595,5,1,4,1,1,-1,2,2
29258175301,-1,-5,-4,-1,0,-2,-3,0
29258175301,0,-2,-5,-5,-2,-1,0,-3
29258189600,2,2,6,5,1,1,0,0
29258189600,-6,-7,-7,0,-2,0,0,-5
29258190293,-1,-1,-1,0,-2,-2,-2,-1
29258190293,2,-1,-5,-1,-1,0,0,0
29258212019,-5,-5,-9,-5,-3,-2,-2,-1
29258212019,-2,1,1,0,0,0,0,0
29258212821,-2,-3,-4,-2,-2,-1,-1,-2
29258212821,-3,-2,-2,-2,0,-1,-2,1
29258234543,0,-2,-2,0,-1,-1,1,-2
29258234543,0,-2,-6,-3,-2,-1,-2,0
29258235306,-1,0,2,-3,-1,-1,1,-2
29258235306,0,-1,1,-2,-1,-2,-1,-1
29258249592,1,3,9,4,4,0,-2,0
29258249592,-1,1,0,-2,-1,-1,-2,-1
29258250262,-3,-1,-4,-4,-2,-3,-4,-2
29258250262,1,2,2,4,0,0,1,-1
29258272086,1,-2,-4,-3,0,-1,2,2
29258272086,-2,-1,1,-2,0,-2,-2,-3
29258272792,-3,-3,3,5,1,0,1,0
29258272792,0,-3,-8,-2,-2,-3,-2,0
29258286511,0,5,9,0,-2,-1,0,-1
29258286511,2,3,4,7,2,1,1,1
29258293925,1,1,3,-1,1,-1,1,1
29258293925,-4,-2,-1,-4,-1,-1,-2,-1
29258309470,-3,-8,-14,-10,-6,-3,-3,-4
29258309470,-1,0,2,0,-2,-2,-3,-3
29258310268,3,-1,1,0,-2,-2,-2,-2
29258310268,-5,-5,1,0,0,0,1,-2
29258332112,3,1,3,3,2,-1,-2,0
29258332112,-2,-2,-3,-3,-3,-4,-1,0
29258332776,-4,-5,-5,-2,-1,-1,-1,-2
29258332776,-1,-2,-2,-3,-4,-1,-2,-1
29258346413,-3,-3,-7,-3,-1,0,0,-1
29258346413,-3,0,4,3,-2,-3,-2,-3
29258353909,2,5,-1,-2,0,1,0,1
29258353909,-5,-9,-12,-7,-3,-2,-2,-2
29258369499,2,10,19,5,-4,-1,-2,2
29258369499,2,3,2,4,1,0,1,1
29258370228,-3,-5,-7,-8,-1,1,0,-1
29258370228,0,2,8,5,3,0,-1,0
29258392105,-5,-6,-7,-5,-2,-1,-2,-3
29258392105,0,-3,-6,-4,-3,-3,-4,-3
29258392802,-1,0,2,1,-2,-3,-2,-1
29258392802,2,1,-1,0,0,-1,0,-3
29258406396,-4,-7,-10,-3,-1,-3,-1,-3
29258406396,1,6,14,4,5,2,0,2
29258413957,-1,1,-5,-2,-1,-1,-2,-2
29258413957,-4,-1,0,0,-2,-3,-3,-1
29258429573,-2,-3,-7,-4,-4,-2,-2,-2
29258429573,-2,0,3,-2,-1,-1,0,-2
29258430238,-4,-2,0,4,2,-1,-2,-2
29258430238,-1,-1,4,1,-1,-2,1,0
29258452527,3,3,-2,-1,-5,-1,3,2
29258452527,-4,-7,-10,-6,-2,-1,-2,-4
29258459619,-2,-4,-1,-1,1,-1,1,-2
29258459619,0,3,0,1,3,2,-2,-1
29258466389,-3,-5,-11,-9,-1,-3,-2,-3
29258466389,3,9,13,14,3,2,2,3
29258473889,0,-1,-1,1,-3,-2,-2,0
29258473889,-1,1,1,-2,-1,0,0,-1
29258489572,-2,-2,-1,-2,-1,-1,-1,-1
29258489572,-3,-3,-7,-6,-5,-1,-3,-2
29258490269,-3,-4,-9,-6,-4,0,0,-1
29258490269,3,1,4,5,-1,0,-1,0
29258512072,-3,-6,1,4,3,-1,-3,-1
29258512072,2,8,13,0,1,-1,-2,1
29258512818,1,1,2,0,-2,0,2,0
29258512818,-1,-4,-4,-8,-4,-3,-2,-2
29258534563,-2,-4,-3,-1,-1,-1,-1,-2
29258534563,-1,1,6,4,3,1,2,-1
29258535238,-2,0,-1,-1,1,0,-4,-4
29258535238,0,1,0,-3,-3,-2,-1,-1
29258549517,1,0,1,1,-4,-3,-1,-1
29258549517,-3,-7,-10,-5,-3,-4,-2,-3
29258550240,-2,0,-2,-6,-2,0,0,0
29258550240,-2,-6,-6,0,1,-2,-2,-2
29258572117,0,5,9,4,3,-1,0,1
29258572117,-1,-4,-11,-6,-3,-3,-1,-4
29258572729,0,-2,3,4,-1,-1,-3,0
29258572729,-1,0,-3,-2,0,1,-1,-1
29258594520,-2,-3,-3,-3,-1,-2,1,-2
29258594520,0,3,-1,-3,-3,-3,0,2
29258595236,-1,-4,-7,0,0,-1,-2,0
29258595236,-3,-4,-3,-2,0,-2,-1,-1
29258609537,-2,0,5,2,0,0,-1,-3
29258609537,0,-3,-2,-1,-1,1,-2,1
29258610242,-1,-4,-6,0,-1,-3,-2,-1
29258610242,1,5,6,0,-1,0,-1,-1
29258632063,-2,0,-3,-2,0,-1,-4,-2
29258632063,-2,-7,-9,-2,-1,-1,-2,-1
29258632747,1,1,1,-2,-2,0,0,-1
29258632747,0,1,2,5,1,-1,-1,-1
29258654587,0,2,1,-2,-4,0,1,0
29258654587,-1,-5,-6,-4,-2,-2,-1,-1
29258655289,1,-1,-1,0,1,0,0,-2
29258655289,-4,-5,-7,-5,-2,-3,-2,-2
29258669535,0,-2,0,-1,-1,-1,-1,0
29258669535,2,8,5,0,4,2,3,1
29258670260,-2,-1,2,1,-2,-2,0,-2
29258670260,-2,-5,-9,-2,-1,-3,-1,1
29258692098,4,7,2,4,-1,0,1,2
29258692098,-4,-7,-4,-1,0,-1,-4,-1
29258692793,1,-2,-5,-4,-2,-1,-1,-1
29258692793,0,2,0,-2,-2,3,0,-1
29258714593,-1,-4,-2,1,2,1,-4,0
29258714593,-2,-4,-6,-4,-5,-2,1,-2
29258715273,-2,-2,0,-1,-3,0,0,-1
29258715273,2,7,10,5,1,-1,-1,-1
29258729539,-1,0,-2,-3,-3,-1,0,-1
29258729539,-2,-1,0,0,-1,-1,-4,-2
29258730221,-2,-2,-6,-3,-1,-2,-1,-2
29258730221,0,-2,-2,-3,1,1,1,1
29258751449,0,1,-1,0,3,1,1,-1
29258751449,-6,-5,1,0,-2,-1,-1,-2
29258759591,2,-2,-13,-3,-2,-1,0,1
29258759591,0,6,13,2,-3,-3,0,-1
29258774508,0,-1,-2,1,-1,1,0,0
29258774508,0,2,6,1,1,-1,0,-1
29258775287,-4,0,1,-2,-3,-3,-2,-2
29258775287,1,-2,-3,-1,2,2,0,0
29258797074,-2,-2,0,-2,1,-1,-2,-1
29258797074,-1,-4,-5,-3,-6,-2,-1,-1
29258797754,0,2,1,-4,-5,-2,0,-1
29258797754,-3,-1,-2,-2,-1,-1,-3,-4
29258811331,-2,-1,4,0,0,-1,-1,-3
29258811331,0,-4,-11,1,-1,-1,-1,-1
29258819467,0,2,1,2,2,0,-2,-1
29258819467,-4,-6,-6,-5,-5,-1,-2,-1
29258834604,1,3,-5,3,3,2,1,1
29258834604,0,-2,-4,-4,-5,0,1,0
29258835267,-1,0,4,-1,-3,-1,-1,-1
29258835267,0,0,0,2,2,1,-1,0
29258857106,-5,-8,-5,-5,-4,-3,-2,-4
29258857106,3,8,11,2,2,-1,0,1
29258857747,0,1,5,3,1,1,-2,0
29258857747,1,0,-6,-3,0,-1,-1,2
29258871423,-3,-4,2,2,0,0,-2,-1
29258871423,-2,1,3,-3,-3,-2,0,-2
29258879683,4,-2,-6,3,4,2,1,2
29258879683,-2,-6,-9,-5,-3,-2,0,-3
29258894613,0,1,0,-4,0,-2,-2,-1
29258894613,-2,-2,-1,-3,0,-1,-2,-1
29258895241,-2,-1,2,-2,-2,-1,-1,-1
29258895241,0,-4,-3,3,-1,-3,0,-2
29258917019,0,0,-2,0,-4,-1,0,0
29258917019,-4,-2,-2,-1,1,-2,-3,-3
29258917814,-6,-6,-4,-5,-1,-4,-2,-3
29258917814,3,8,10,1,1,0,1,1
29258931425,-3,-4,-5,0,-1,0,-2,-4
29258931425,5,8,8,8,7,2,3,2
29258939566,-1,2,1,-2,-5,-1,-1,0
29258939566,0,-4,-5,-3,-4,-1,-2,0
29258954569,-2,-3,-3,0,2,-2,-2,-2
29258954569,3,3,2,1,-5,-1,-1,3
29258955267,0,-5,-4,-1,0,1,-2,-2
29258955267,-6,-4,-1,-1,-1,-3,-2,-2
29258977085,-5,-11,-6,-5,-1,-3,-4,-3
29258977085,8,14,16,6,0,2,3,5
29258977743,2,6,7,-3,-5,-1,-1,2
29258977743,-5,-6,-2,1,0,-1,-3,-7
29258991439,-4,-6,-5,-7,-5,-4,-5,-3
29258991439,0,-3,-10,-4,2,0,0,3
29258999621,-2,-2,-2,-2,-2,-3,0,-1
29258999621,-2,4,6,1,1,1,-1,-2
29259014592,-1,-2,-12,-5,-1,-1,-2,0
29259014592,-1,1,14,8,2,0,-1,-2
29259015242,-1,0,0,1,1,0,-1,1
29259015242,-4,-6,-1,-1,-1,-3,-2,0
29259037052,1,3,3,1,1,1,0,-7
29259037052,-4,-8,-16,-13,-11,-8,-7,-3
29259037734,0,-2,1,0,6,3,2,0
29259037734,0,-4,-6,1,3,-1,-2,-2
29259060226,1,0,0,-3,-7,-2,3,2
29259060226,-3,-1,-4,-3,2,1,0,-5
29259060950,0,7,8,-2,-7,-4,0,-1
29259060950,-2,-7,-10,-3,2,0,0,-1
29259074506,-8,-3,-2,1,1,-2,-2,-2
29259074506,-7,-8,-8,-4,-2,-4,-7,-15
29259075265,7,5,2,6,3,3,2,9
29259075265,-2,2,3,3,5,2,-4,0
29259097060,15,7,2,-5,-9,-2,8,9
29259097060,-2,-7,-5,-2,0,-1,-1,0
29259097746,-9,-16,-15,-9,-6,-3,-5,-7
29259097746,4,14,13,6,0,-1,-1,2
29259120295,-4,1,7,0,-2,-1,-4,-5
29259120295,0,-1,-4,-1,1,-1,-2,4
29259120995,-4,-11,-14,-4,-3,-4,-2,-6
29259120995,10,18,17,5,2,4,4,6
29259134592,-4,5,12,2,-1,0,-2,-4
29259134592,1,-2,-10,1,1,0,0,0
29259135249,-5,-13,-13,-2,-5,-5,-6,-4
29259135249,1,4,8,-2,7,7,3,2
29259157066,2,5,1,2,-1,-4,-4,-2
29259157066,-4,-7,-14,-12,2,3,1,0
29259157738,-4,-2,4,2,0,-5,-6,-4
29259157738,-5,-11,-6,-4,-5,-3,-1,-5
29259180212,3,9,15,10,11,9,2,-1
29259180212,-7,-9,-8,-3,-7,-6,-3,-2
29259180993,4,3,-4,-1,-4,-2,0,0
29259180993,-5,-4,-6,-7,-7,-7,-4,-4
29259194619,-7,-8,-14,-9,-8,-5,-2,-2
29259194619,2,-5,-3,4,0,-1,1,2
29259195259,13,14,10,5,9,11,10,11
29259195259,0,-1,1,-1,-3,-2,-1,-1
29259217012,-2,-3,-3,-4,-4,-5,-7,-2
29259217012,1,2,5,6,4,1,0,1
29259217764,-1,7,4,-2,1,-1,-4,-6
29259217764,-8,-16,-19,-7,-8,-3,1,-2
29259240266,7,20,21,6,2,-7,-1,3
29259240266,-7,-1,5,-6,-6,1,-5,-8
29259240905,-8,-4,6,6,6,1,0,-2
29259240905,11,-1,-3,8,6,5,1,-6
29259254542,3,2,-4,-3,-2,-5,-4,2
29259254542,-2,1,2,-1,-2,-3,-3,-2
29259255268,-7,0,2,-5,-10,-7,-7,-11
29259255268,-15,-10,-7,-6,-4,-8,-3,-8
29259277091,2,-9,-13,-1,-1,5,5,9
29259277091,16,14,19,-1,6,4,3,11
29259277743,-3,-3,-5,-3,-6,-5,-5,-5
29259277743,0,-9,-11,-3,1,2,1,4
29259300330,-6,2,2,2,3,1,1,-1
29259300330,-6,-2,-1,-1,-6,-5,-5,-5
29259300974,0,1,1,-1,-1,-1,0,2
29259300974,-4,-1,1,-2,-1,-1,-1,-1
29259314518,-6,-14,-12,-6,-2,0,-1,-5
29259314518,5,-1,-10,-6,-2,0,6,15
29259315276,11,11,15,8,0,-2,-1,2
29259315276,-2,-2,-9,-4,-3,1,1,0
29259337733,-11,-7,-5,5,9,10,6,-5
29259337733,13,2,-1,-3,-6,-4,-2,5
29259338430,3,3,-7,-4,-1,-2,2,8
29259338430,5,4,7,1,7,1,-1,1
29259367716,-4,-6,-13,-2,5,1,1,0
29259367716,-16,-4,6,1,-6,-7,-5,-19
29259368447,3,-1,0,-3,2,3,7,15
29259368447,-7,-4,-2,-9,-12,-7,-8,-9
29259374590,-3,-4,-6,-5,0,-2,1,-7
29259374590,-6,-8,-8,-4,-1,2,1,0
29259375240,10,9,9,2,-3,0,1,4
29259375240,-6,-7,-6,-1,-5,-3,-3,-5
29259397691,-4,1,9,4,5,0,-5,-5
29259397691,-14,-17,-19,-2,1,0,-4,-18
29259398466,3,5,8,7,6,3,4,3
29259398466,12,16,15,2,-4,-2,1,11
29259420380,8,2,2,1,0,-1,1,0
29259420380,-16,-9,-2,3,4,0,-7,-16
29259420972,4,-5,-7,1,3,4,6,10
29259420972,-6,-7,-10,-8,-1,-1,-3,-6
29259434543,-1,-12,-8,-13,-24,-12,-5,0
29259434543,15,19,24,24,17,14,26,31
29259435242,-4,6,1,-3,-4,-8,-14,-17
29259435242,7,6,7,-3,-6,2,14,10
29259457862,-11,-16,-13,-9,-8,-10,-13,-5
29259457862,-4,-11,-7,-6,-4,-1,-3,-4
29259458456,-11,-11,-12,-6,-7,-7,-8,-12
29259458456,1,6,8,10,13,9,4,3
29259480201,0,5,7,7,8,3,1,-1
29259480201,3,-3,-5,0,1,-1,-2,1
29259480915,-4,-2,3,-4,-9,0,5,-1
29259480915,-7,-5,-14,-17,-16,-15,-13,-7
29259494486,3,2,7,10,5,3,6,2
29259494486,0,0,-19,-22,-15,-6,-3,0
29259495196,-2,2,18,35,30,9,2,2
29259495196,6,4,8,9,10,6,3,3
29259517810,-2,-4,1,0,3,7,6,0
29259517810,7,9,-2,-10,-6,-11,-10,1
29259518474,-5,-4,-14,-16,-21,-11,-4,-7
29259518474,-3,-5,-2,8,11,8,7,2
29259540317,10,16,-1,-12,-11,-6,-1,6
29259540317,-8,-5,-9,-22,-21,-14,-10,-12
29259540933,3,-9,-5,9,23,15,11,11
29259540933,-15,-17,-7,-8,-21,-11,3,-6
29259554575,9,10,-1,3,14,3,-4,3
29259554575,-9,-13,-6,-15,-20,-3,0,-4
29259555273,-2,3,13,31,21,4,5,-2
29259555273,2,3,9,10,9,4,-7,-6
29259577748,-7,-10,-9,-26,-23,-8,-4,-3
29259577748,-3,-7,-17,-20,-15,-9,-3,-1
29259578420,-3,-1,3,28,40,22,-4,-4
29259578420,0,-6,-14,-28,-29,-12,-2,1
29259600279,2,8,11,27,7,-3,1,3
29259600279,1,3,11,4,8,8,7,3
29259600948,6,4,-22,-35,-24,-11,-6,-1
29259600948,3,10,-1,6,15,3,-4,0
29259614548,-8,-14,-9,-11,-8,-1,6,-3
29259614548,3,3,8,15,15,4,-6,-1
29259615214,1,3,-5,-19,-18,-11,-5,-4
29259615214,-1,-2,-2,3,4,2,1,1
29259637748,4,6,-7,-38,-39,-18,-9,-3
29259637748,5,7,17,60,64,30,12,4
29259638411,-5,-8,-4,-3,1,3,2,1
29259638411,2,2,-1,-9,-9,-6,-10,-2
29259660351,-5,-10,2,9,5,2,1,-5
29259660351,-7,-17,-15,-15,-18,-6,9,1
29259660943,-1,-1,-18,-28,-30,-17,-7,-5
29259660943,2,6,22,18,10,3,3,3
29259673891,1,5,6,10,10,2,-2,1
29259673891,0,3,7,4,-1,-4,-5,-4
29259682100,-3,-5,-8,-14,-11,-2,1,-4
29259682100,-2,4,1,9,6,-4,-4,-3
29259697739,4,6,4,6,9,9,4,3
29259697739,-4,1,3,-1,-8,-7,-2,-4
29259698446,-3,-13,-5,-7,-3,1,0,-1
29259698446,-14,-7,-14,-23,-25,-13,-7,-8
29259720214,12,0,13,39,34,15,5,1
29259720214,-10,2,-4,-4,0,2,-1,-6
29259720927,-3,3,-10,-22,-17,-10,-3,-2
29259720927,10,-10,-9,13,16,10,4,11
29259733936,4,13,24,17,5,3,2,2
29259733936,2,-1,4,-8,-9,-5,-2,-1
29259742819,-12,-3,1,2,-3,-2,-1,-10
29259742819,6,8,0,-10,-9,-6,2,-3
29259757100,-17,-8,-19,-20,-5,0,0,-4
29259757100,-6,-10,1,13,15,7,6,4
29259763930,-6,-3,-18,-19,-11,-6,-3,-8
29259763930,13,7,-8,-12,-8,-10,-9,5
29259780230,6,26,27,21,7,-4,-4,-1
29259780230,1,12,17,3,-7,-3,-1,0
29259781765,-16,-3,-1,2,8,2,-3,-14
29259781765,18,-2,-1,3,-1,4,1,6
29259793956,-9,-18,-20,-17,-2,-1,-3,-3
29259793956,-4,-6,-28,-24,-12,-6,-7,-8
29259802766,14,5,29,29,4,-1,3,15
29259802766,-33,-8,-14,-4,8,4,-5,-23
29259817042,24,0,8,9,5,3,0,16
29259817042,11,4,9,10,6,3,3,8
29259823948,2,-2,-10,-13,-5,-1,-4,0
29259823948,-14,-13,-9,-3,-2,-2,1,-3
29259840103,-16,-10,-32,-19,-11,-5,-1,-11
29259840103,1,12,39,32,17,5,1,1
29259841707,17,12,15,9,3,-1,-3,-8
29259841707,-33,-32,-21,-18,-10,-3,9,5
29259853892,17,9,-12,-13,-7,-6,-6,1
29259853892,6,5,22,17,6,2,-1,8
29259862814,-4,-5,-12,-12,-9,-3,-2,-1
29259862814,2,0,0,5,7,5,4,-5
29259877005,-19,-27,-18,-16,-10,-4,-3,-10
29259877005,4,-4,-23,-30,-22,-12,-4,-3
29259891310,-5,5,20,18,13,4,-1,-1
29259891310,5,-5,1,7,-1,-3,-4,6
29259900225,-4,-9,-25,-17,-2,-2,-5,-8
29259900225,-1,11,15,6,-1,-1,-7,-3
29259901766,-14,-17,-18,-13,-3,0,0,-2
29259901766,10,14,29,23,5,-3,-3,-1
29259922736,-6,5,19,8,4,2,2,11
29259922736,24,4,-27,-23,-7,-2,-1,-3
29259924220,-18,-10,30,39,16,5,-1,4
29259924220,6,8,0,-4,4,4,3,1
29259937125,-19,-9,-35,-26,-12,-8,-9,-19
29259937125,2,3,26,19,3,0,4,8
29259943892,-3,-20,-29,-15,1,1,1,0
29259943892,9,-10,-2,-8,-11,-7,-2,-1
29259960337,2,41,64,37,10,2,-3,-9
29259960337,-3,-3,-33,-32,-10,-3,1,-2
29259961757,-1,-13,-6,0,-1,-4,-1,1
29259961757,11,13,8,4,4,-3,-10,-3
29259973847,-15,-25,-21,1,1,6,12,-4
29259973847,11,7,8,5,4,0,3,10
29259982791,-18,-4,10,7,-4,0,1,-1
29259982791,-10,5,-12,-14,-9,-4,13,0
29259997101,4,-22,-6,0,-3,-1,-10,-5
29259997101,5,11,-17,-10,2,2,-13,-14
29260003937,0,-26,-71,-56,-25,-12,-1,5
29260003937,19,19,30,42,15,2,5,9
29260020266,3,30,74,49,15,10,-2,1
29260020266,-8,-37,-30,-17,-12,-5,7,-2
29260021738,18,30,14,13,15,5,2,10
29260021738,-10,19,25,-23,-18,-9,-5,-17
29260042692,6,-17,-60,-25,-5,-3,10,17
29260042692,-11,14,52,37,15,7,8,-2
29260044303,10,24,22,-1,-13,-7,1,-8
29260044303,-14,-23,-44,-29,-2,2,27,5
29260057065,-3,-35,-48,-15,-2,-2,39,2
29260057065,1,7,-5,-14,-3,-5,20,-7
29260063928,9,20,60,56,22,9,6,14
29260063928,-18,-23,-16,-24,-27,-11,-18,-20
29260080262,0,9,-12,-26,-15,-13,-25,-1
29260080262,-15,-35,-36,-16,-6,-6,-21,-10
29260081761,-30,-35,-54,-45,-34,-13,-25,-34
29260081761,6,22,16,3,-5,-5,-17,-5
29260102730,-20,-22,-18,-21,-18,-8,3,-15
29260102730,-6,-5,11,6,-1,2,14,-2
29260104232,7,16,19,6,8,2,9,2
29260104232,-2,-14,7,20,5,-3,11,-6
29260117156,12,25,14,-8,5,4,19,7
29260117156,8,-15,-27,-13,-6,-4,2,13
29260123885,-10,-41,-64,-22,-9,-5,-1,-2
29260123885,51,39,41,33,15,8,7,19
29260140278,-22,-24,-22,-8,-5,-7,-38,-10
29260140278,18,72,86,32,10,9,-17,8
29260141756,-8,-26,-32,-14,-8,-9,-29,-5
29260141756,-14,-22,-39,-4,7,5,-28,-12
29260162718,11,-1,-7,-6,-3,-1,-19,7
29260162718,11,-17,-49,-19,-16,-10,-10,-2
29260164238,-8,17,21,9,12,11,12,-2
29260164238,-3,9,31,24,13,6,8,8
29260177110,17,20,22,10,2,4,33,17
29260177110,-35,-31,-61,-46,-23,-14,10,-24
29260183953,40,57,72,42,18,12,43,24
29260183953,5,11,10,20,14,5,20,6
29260200218,-13,-11,7,0,-8,-16,-19,-7
29260200218,-30,-25,-31,-10,-9,-4,5,-12
29260201711,-6,-5,-15,-7,-5,-1,-2,-13
29260201711,10,10,17,5,5,9,-5,18
29260224118,5,9,2,11,4,6,-17,0
29260224118,9,4,26,23,8,5,-110,5
29260225711,-11,-35,-33,-17,-5,-2,-67,-7
29260225711,-13,-46,-102,-43,-15,-9,-11,-6
29260236418,7,30,76,46,15,9,20,4
29260236418,13,18,24,26,16,10,69,8
29260245255,-15,-11,-22,-18,-15,-10,22,-17
29260245255,-16,-33,-56,-31,-5,-2,32,5
29260260214,25,21,17,22,10,11,68,7
29260260214,-15,-26,-37,-28,-15,-13,1,-7
29260261731,9,29,70,43,15,4,2,8
29260261731,-2,5,6,0,-2,1,8,-4
29260282736,-15,-15,-19,-26,-14,-10,-2,-13
29260282736,-6,-5,3,23,16,8,18,4
29260284256,3,-13,-36,-21,-7,-5,9,7
29260284256,-13,-13,8,-1,-7,-6,-5,-9
29260296362,25,-1,-27,3,11,5,36,19
29260296362,-5,7,-2,-11,-6,-3,17,-2
29260305273,18,19,66,38,18,9,3,14
29260305273,-10,12,23,2,-2,-1,-10,-8
29260320248,-5,-14,-11,-5,-2,-2,-4,-5
29260320248,2,0,-22,-8,3,7,19,4
29260321765,-4,-12,-22,-12,-4,-4,-5,-1
29260321765,5,-5,-2,-13,-11,-7,-18,-3
29260342590,-27,-34,-20,-6,-1,-4,-11,-8
29260342590,-1,9,26,14,10,0,-13,-4
29260344185,-8,-7,-15,-11,-3,-2,1,-1
29260344185,16,12,2,5,7,3,4,8
29260356518,-4,2,-1,-15,-9,-9,-22,-8
29260356518,-4,8,28,19,10,4,-9,-7
29260365287,-9,8,23,-3,-4,-6,-43,-12
29260365287,29,24,3,27,26,18,47,23
29260380155,5,-3,-25,-15,-6,-1,10,3
29260380155,-1,8,32,17,-1,-2,-13,4
29260381735,-13,-20,-44,-29,-17,-8,-6,-9
29260381735,-22,-37,-44,-25,-15,-12,-26,-16
29260402769,7,8,47,21,5,3,-15,5
29260402769,4,7,8,-4,-4,-3,-5,-2
29260404229,6,-6,-15,-8,-6,-6,16,0
29260404229,-4,31,49,13,6,1,-29,-4
29260416390,-5,-5,-21,-18,-12,-8,-7,-4
29260416390,3,-9,-12,-14,-14,-4,7,1
29260425240,-9,6,21,12,18,8,-10,-3
29260425240,-12,-10,-8,10,11,5,5,-6
29260440268,7,0,6,6,-1,5,10,5
29260440268,17,47,47,-2,-1,-1,-1,6
29260441755,2,-16,-32,-5,-7,-4,6,6
29260441755,-11,-11,4,-13,-13,-6,-18,-16
29260462755,15,39,61,29,16,11,-10,4
29260462755,-8,-30,-46,-16,-4,-5,6,1
29260464227,-14,-13,6,12,13,2,-25,-9
29260464227,29,71,80,23,7,7,11,16
29260476452,-2,6,13,8,4,-1,-10,-3
29260476452,-13,-21,-16,-16,-9,-7,-15,-10
29260485281,6,3,-10,-14,-13,-1,13,4
29260485281,-26,-34,-27,-30,-22,-13,-24,-14
29260500169,-7,-36,-64,-16,-5,-9,10,-8
29260500169,30,60,58,36,14,14,17,17
29260501713,9,17,5,-2,11,4,2,2
29260501713,-1,-5,-2,10,3,-5,-1,-3
29260522716,-8,-7,-8,-40,-39,-13,4,-1
29260522716,-12,-29,-27,-10,2,-1,-22,-7
29260524266,8,15,22,10,-4,8,6,4
29260524266,-28,-36,-26,-20,-10,-12,-28,-16
29260536373,45,65,37,41,36,24,52,26
29260536373,-8,-24,-22,-29,-21,-17,5,-4
29260545261,5,19,32,24,19,9,-18,-2
29260545261,-1,11,28,-8,-7,-1,10,1
29260560246,-14,-30,-28,-12,2,-5,-2,-10
29260560246,-3,-17,-16,-12,-5,-4,5,0
29260561724,0,1,4,-2,-6,-7,15,0
29260561724,13,11,-8,-4,-11,-2,34,10
29260582739,-22,-25,-13,-9,-4,-11,-33,-16
29260582739,8,10,3,3,-1,2,11,4
29260584288,1,-2,4,4,-2,-1,112,3
29260584288,-2,-8,-6,7,5,0,83,-2
29260596405,-30,-41,-23,-25,-10,-9,-37,-20
29260596405,8,24,40,12,7,5,-64,2
29260605278,0,-3,4,-3,-13,-8,-124,0
29260605278,6,8,28,20,18,8,-125,5
29260620216,-3,9,34,-4,-4,-4,-82,-6
29260620216,-18,-41,-24,15,7,1,-61,-10
29260621735,-1,3,26,9,2,-1,-20,0
29260621735,9,-4,-22,1,11,8,-10,6
29260642722,-2,6,12,0,0,-1,-32,1
29260642722,-2,-7,-6,-25,-12,-5,-6,0
29260644211,-3,-11,-66,-39,-19,-10,3,-1
29260644211,2,22,55,25,10,2,-5,0
29260656419,-10,-14,-25,-4,-10,-4,-2,-3
29260656419,6,14,-1,11,7,6,17,1
29260665317,-12,-27,-58,-27,-12,-9,-4,-8
29260665317,-3,-8,-27,-34,-38,-13,-18,-2
29260680254,9,17,3,43,39,18,-5,7
29260680254,-12,-18,-35,-21,-15,-13,-2,-7
29260681808,1,11,33,58,35,11,-11,2
29260681808,-12,-27,-75,-53,-18,-7,-13,-12
29260702766,20,34,53,47,10,10,18,12
29260702766,-3,-8,-31,-5,-6,-2,10,-3
29260704229,3,6,-3,3,7,4,9,-1
29260704229,-4,-28,-74,-22,-14,-12,5,-2
29260716368,4,15,-6,4,-2,0,7,2
29260716368,-2,-2,-20,-6,-2,-1,-20,-2
29260725225,4,5,-6,2,3,3,-28,3
29260725225,-8,-9,8,10,4,0,-107,-5
29260740164,-6,-7,-11,-24,-16,-8,-47,-8
29260740164,6,3,-5,-1,-3,0,-79,3
29260741720,-2,0,18,9,9,1,-25,-1
29260741720,3,8,15,14,6,4,47,3
29260762872,-5,-9,-20,-28,-12,-7,39,-1
29260762872,1,-1,-6,21,20,7,20,3
29260764227,2,6,26,0,1,3,24,-6
29260764227,-1,2,-3,18,16,6,49,-2
29260776442,2,4,-5,-8,-10,-4,54,0
29260776442,-14,-25,-6,-14,-17,-11,70,-7
29260785262,7,16,-4,-17,-17,-5,43,3
29260785262,9,4,-7,9,17,7,42,7
29260800191,-5,-7,2,4,0,2,17,-6
29260800191,7,22,15,5,7,2,16,0
29260801717,2,6,14,9,-5,-2,1,1
29260801717,-1,8,18,-1,-10,-3,-6,-2
29260822765,-8,-13,-24,-20,-7,-5,-43,-4
29260822765,-9,-2,17,23,8,-1,-16,-10
29260824250,0,-9,-16,-15,-5,-2,25,7
29260824250,0,5,5,-7,-12,-3,-3,-4
29260836295,18,0,-12,-4,0,1,-12,14
29260836295,-2,3,18,17,19,14,0,5
29260845252,-8,-10,-5,-5,-4,-5,-6,-6
29260845252,-20,-9,-1,-2,-2,-4,10,-14
29260859575,-2,-3,-8,-8,-3,-4,13,-9
29260859575,6,2,5,1,-12,-5,25,11
29260866388,-5,-4,-4,-15,-6,-3,9,-17
29260866388,8,-1,15,14,18,4,1,7
29260882733,14,28,29,21,8,-1,0,0
29260882733,-19,-13,-25,-23,-18,-6,7,-9
29260884227,-1,-3,13,7,-1,0,-6,1
29260884227,-7,-5,-2,-5,-8,-6,-12,-6
29260896392,-3,-4,7,-1,-5,-3,-5,-2
29260896392,2,0,-5,-15,-8,-4,-6,-4
29260905233,-1,-3,-12,4,8,4,-5,8
29260905233,3,-2,4,-3,-3,-2,-7,-1
29260919656,-5,-8,-12,-19,-24,-8,-8,1
29260919656,6,7,14,39,35,14,-5,2
29260926394,-3,-8,-13,-7,-11,-6,-7,-4
29260926394,-1,-4,-18,-7,-4,-5,-13,6
29260942653,-1,4,-4,0,2,5,-30,-7
29260942653,0,5,2,4,-1,-3,-63,-6
29260944254,1,0,-10,-1,2,1,-20,4
29260944254,7,9,10,6,-5,0,31,8
29260965152,-13,-12,-19,-23,-9,-6,35,-8
29260965152,3,-3,-5,-12,-8,-2,28,2
29260966760,-1,-7,4,8,-1,-4,3,1
29260966760,4,14,7,-1,9,8,12,-3
29260979607,3,5,30,14,8,3,22,5
29260979607,11,7,21,20,10,4,20,5
29260986422,0,1,2,-22,-16,-4,3,2
29260986422,-8,-12,-3,0,2,-5,-34,-8
29261003062,-3,-6,0,20,18,5,-30,4
29261003062,-3,-8,-18,-33,-15,-6,4,-3
29261004759,-2,-2,-20,4,4,1,-9,-4
29261004759,1,2,-27,11,2,-3,-32,0
29261025253,-1,2,-53,8,12,4,-41,0
29261025253,-9,-7,-59,-8,-2,-5,-26,-4
29261026757,3,3,-39,-16,-14,-3,9,2
29261026757,7,9,-12,12,8,4,26,4
29261039499,-8,-11,-21,-4,-2,-5,2,0
29261039499,-7,-8,-33,-14,-9,-9,17,-9
29261046368,12,18,28,21,14,11,15,5
29261046368,-1,-3,-1,-6,-10,-2,13,1
29261062772,-2,-4,18,2,2,0,17,-1
29261062772,-5,-5,13,-10,-6,-2,19,1
29261064223,-1,-9,15,-5,1,-3,-2,-1
29261064223,4,-1,42,-4,-3,0,0,5
29261085191,-5,2,39,4,0,1,-6,-6
29261085191,1,4,48,2,-4,-3,-5,-2
29261086708,-2,-2,20,-9,0,0,-14,-2
29261086708,-1,-4,22,-3,-8,-6,-7,0
29261099569,-4,-10,7,-10,-10,-7,-7,-7
29261099569,3,5,36,18,18,7,-22,3
29261106405,0,-1,4,-5,-4,-7,-18,-5
29261106405,-3,-4,2,0,-3,-1,-2,0
29261122762,-5,-3,-23,-14,-8,-5,-4,-3
29261122762,6,10,-5,10,1,3,15,4
29261124260,-2,1,-18,10,5,1,8,-2
29261124260,1,-3,-11,-24,-14,-3,18,0
29261145241,-2,-2,-5,2,7,3,22,-1
29261145241,-5,-14,-2,-4,-6,-5,8,-3
29261146710,1,-4,-5,0,1,-1,2,-3
29261146710,2,9,19,-8,-7,-2,-9,2
29261159543,8,4,6,-1,-1,0,0,2
29261159543,2,4,-3,-10,-4,-1,-21,4
29261166390,-5,-4,13,16,4,1,-9,-1
29261166390,-8,-3,-1,8,9,3,2,-6
29261182691,3,0,-15,-1,-1,0,12,1
29261182691,-2,-6,-27,-7,-5,-4,6,-7
29261184205,-3,-3,-17,-6,-7,-6,4,-1
29261184205,1,1,-22,-3,-2,-1,-2,-1
29261205183,1,2,18,7,-4,-2,9,1
29261205183,4,1,10,-6,-6,1,-3,3
29261206730,-1,8,30,13,7,1,-2,-1
29261206730,4,8,15,7,6,2,-2,0
29261219546,-7,-10,1,-18,-9,-6,3,-7
29261219546,2,4,22,6,2,-1,0,-1
29261226356,-1,-4,3,-3,1,2,2,3
29261226356,-7,-11,-3,-2,1,-2,-8,-6
29261242755,0,7,9,-1,-3,-2,-3,0
29261242755,4,10,30,8,1,1,12,3
29261244195,-5,-5,-7,-7,-4,-4,0,-7
29261244195,1,-7,-1,-1,4,-1,5,5
29261265368,1,1,2,-1,3,2,-4,-2
29261265368,-5,-7,-9,0,-6,-5,-2,-3
29261266738,3,7,-2,-9,-6,-3,2,-2
29261266738,-4,-8,-1,4,0,-2,-1,-4
29261279474,-2,-2,0,0,-2,1,-6,-5
29261279474,7,9,-1,-4,-3,1,3,8
29261286365,-5,-5,-21,-12,-7,-7,-10,-4
29261286365,5,7,3,15,9,7,-2,4
29261302714,-2,-3,-7,0,3,3,-17,2
29261302714,-5,-8,-8,-2,0,-3,18,-5
29261304231,0,2,5,-2,-4,2,-6,3
29261304231,-2,-1,0,-6,-5,-3,-6,-4
29261325198,0,-1,-2,5,2,0,2,0
29261325198,-3,-4,-8,1,6,2,-3,1
29261326682,1,-2,-5,-6,-4,-1,0,-2
29261326682,-5,-9,-16,-5,-3,-3,1,-1
29261339498,1,10,10,7,2,-1,1,2
29261339498,-10,-8,-8,-2,-3,-6,-9,-8
29261346388,5,7,3,0,0,2,9,8
29261346388,1,2,-3,0,1,1,-3,-9
29261362782,0,-1,0,-6,-6,-6,0,3
29261362782,-1,-2,-1,0,-2,-1,-2,2
29261364228,-5,-8,-5,-4,-3,-2,-3,-5
29261364228,-3,-1,5,3,1,0,0,-1
29261385196,-2,-4,-5,-4,-1,-3,2,1
29261385196,-3,-3,0,-2,1,-2,-4,-7
29261386704,-2,-4,-5,-6,-3,-3,-5,-2
29261386704,1,6,6,13,6,2,-2,3
29261399545,-6,-6,-4,-13,-11,-5,-8,-4
29261399545,1,1,-4,4,7,2,-15,0
29261406394,5,7,4,6,3,1,-4,2
29261406394,-4,-5,-7,-10,-6,-3,-3,-5
29261422713,-3,-3,-5,3,2,3,4,1
29261422713,11,15,13,-2,-7,-2,1,-3
29261424273,-9,-13,-7,-2,-2,0,-11,5
29261424273,-9,-1,-3,-10,-8,-4,4,-7
29261445270,-4,-19,-12,0,1,-3,-6,-5
29261445270,10,8,6,2,-3,0,-2,6
29261446715,2,-1,-4,-5,-2,0,-2,-3
29261446715,-3,-1,-1,4,1,-1,6,1
29261458888,6,6,1,4,4,3,16,5
29261458888,-10,-11,-15,-9,-6,-3,-2,-5
29261467732,-5,-4,-11,-9,-3,-1,-2,-7
29261467732,16,9,2,-2,-6,-3,-8,6
29261482689,-2,6,16,10,8,5,2,7
29261482689,-13,-17,-16,-5,4,3,-2,-3
29261484239,-4,14,35,11,-5,-4,0,-4
29261484239,-3,-10,-26,-18,3,2,-3,-2
29261504979,5,8,14,15,5,1,-12,-3
29261504979,3,0,-9,-8,-5,-3,2,2
29261511375,-1,-12,-20,-7,-1,0,-9,0
29261511375,-1,-3,-5,2,-1,-1,-13,0
29261518883,5,19,19,7,3,-3,-18,1
29261518883,-8,-9,-40,-15,-10,-5,-8,-1
29261527763,-6,-4,3,8,-2,-4,-7,-11
29261527763,-1,1,7,13,5,-3,3,-1
29261542722,-6,-17,-22,-14,-8,2,7,-3
29261542722,11,19,31,16,9,6,38,5
29261544225,2,5,-5,8,12,6,39,2
29261544225,-2,-2,6,-6,-9,-4,-2,2
29261565201,-7,-6,-14,11,12,2,-11,-3
29261565201,-8,-14,-26,-12,-13,-10,-31,-7
29261566708,-5,-12,-26,-2,0,-2,-12,0
29261566708,-9,18,16,8,4,3,0,-13
29261578898,32,12,10,-7,-3,0,8,24
29261578898,4,0,8,14,9,4,-4,0
29261587798,-1,-16,-8,-9,-2,-4,0,3
29261587798,-10,-9,-6,-6,-4,-2,-13,-5
29261602783,-16,-12,-11,-42,-35,-19,-3,-15
29261602783,-9,-8,21,26,25,9,2,-1
29261604230,11,11,14,3,4,4,8,7
29261604230,5,2,5,0,-4,-2,-1,4
29261625264,3,22,21,9,1,3,8,-1
29261625264,1,1,4,1,-5,-3,8,1
29261626749,-7,1,-1,-14,-10,-3,14,-6
29261626749,4,-8,-19,-9,-3,0,10,7
29261638848,-14,-13,-3,12,-5,-11,-22,-12
29261638848,5,1,-7,-5,5,6,-20,3
29261647738,-2,0,10,-2,0,1,-20,-1
29261647738,1,3,7,-5,-2,-3,-1,1
29261662675,-15,-18,-5,-11,-5,-6,-6,-9
29261662675,7,7,3,-2,-1,-1,9,3
29261664208,6,14,17,11,0,-7,-2,0
29261664208,-1,-4,3,12,0,-1,11,-1
29261685234,-5,-2,-13,-16,-3,0,2,-7
29261685234,0,-7,16,6,0,-2,7,6
29261686735,-8,-14,-20,-4,3,0,1,-4
29261686735,8,8,2,3,-2,-3,6,4
29261698905,-2,-2,-2,6,3,1,1,-2
29261698905,-3,-2,-18,-14,-11,-6,-8,-5
29261707732,8,11,-3,-5,-8,-4,3,3
29261707732,-6,-5,-7,-3,3,-2,-14,-3
29261722753,7,5,-8,-3,1,3,-1,2
29261722753,-14,-32,-28,-17,-15,-10,-6,-7
29261724203,8,21,26,3,0,0,-4,4
29261724203,-7,-12,-1,8,6,2,-7,-5
29261745414,12,14,6,1,1,3,4,8
29261745414,-5,2,5,8,9,5,1,-3
29261746726,-7,-14,-4,5,3,-2,-1,-3
29261746726,-1,2,6,-8,-7,-2,3,-1
29261758889,5,3,-2,4,-3,-1,7,2
29261758889,-4,8,6,-5,0,-1,2,-4
29261767769,-3,-7,-5,3,4,5,3,1
29261767769,-1,0,3,-3,-1,-1,0,2
29261782476,-4,-7,-1,2,3,-1,1,2
29261782476,-2,-7,-10,-10,-5,-5,2,-2
29261788895,4,6,13,5,-2,2,7,1
29261788895,-4,-11,-19,-10,-7,-2,2,-3
29261805254,5,12,21,16,10,4,2,0
29261805254,2,13,14,3,-3,0,1,-1
29261806705,-6,-14,-14,0,2,0,-3,-3
29261806705,-2,-7,-3,-2,-3,1,1,-2
29261818893,-4,-1,-6,-7,-2,-3,-3,-3
29261818893,2,1,0,2,3,-3,-6,-1
29261827746,-5,0,-3,-8,-14,-10,-5,-5
29261827746,4,1,-2,-3,4,2,-2,3
29261842049,-13,-10,-3,-9,-8,-4,-4,-9
29261842049,9,-3,-7,8,2,1,-1,3
29261848907,-3,-4,-10,-10,-3,-2,-4,-4
29261848907,5,5,8,4,-3,-2,-1,2
29261866520,-5,-5,-7,-3,-3,-2,-2,-4
29261866520,-3,4,4,-2,0,2,-3,-3
29261868152,-2,-7,-11,-7,-2,-3,-5,-3
29261868152,-2,-1,-2,4,-1,-1,-1,0
29261887628,2,0,2,6,6,3,-1,0
29261887628,-1,7,6,-4,-4,-1,1,1
29261889237,2,2,1,-5,-5,-4,-1,0
29261889237,6,12,7,-1,0,2,7,1
29261901940,0,-3,4,5,0,0,3,1
29261901940,-4,-2,-2,0,-1,-2,1,0
29261908888,-4,-3,-3,-6,-3,1,-2,0
29261908888,-7,-10,-6,0,4,0,-5,-4
29261925120,-1,2,-12,-7,-3,-2,-3,-2
29261925120,0,8,13,5,2,1,1,4
29261926690,4,8,13,3,-1,0,0,3
29261926690,-3,1,3,0,0,1,-1,-2
29261947736,3,0,-14,-15,-14,-9,-6,-2
29261947736,4,5,9,6,7,5,1,2
29261949244,-2,-1,7,12,11,5,5,1
29261949244,0,1,-5,-2,-2,-3,-3,-2
29261962109,-2,-3,1,3,5,2,-1,1
29261962109,-4,-8,-9,-7,-5,-2,-4,-5
29261968840,2,-5,-11,-5,-6,-4,-2,0
29261968840,0,-1,1,2,1,0,-2,-2
29261985242,-4,-11,-9,2,4,0,0,0
29261985242,-1,2,5,-1,-5,-3,-2,-2
29261986715,-3,-4,2,-2,5,2,-2,-2
29261986715,-12,-18,-12,-8,-1,-2,-11,-6
29262007761,13,14,15,8,5,4,5,8
29262007761,-2,2,7,8,4,2,2,-1
29262009226,6,15,1,-6,-3,-5,-4,1
29262009226,3,4,5,-3,-4,-2,2,1
29262022078,-6,-12,-13,-5,-1,0,-1,-2
29262022078,-3,-2,-1,3,0,-2,2,-1
29262028887,-3,-4,-4,-1,-5,-2,1,-3
29262028887,-3,-1,-8,-5,-6,-4,-1,-3
29262045226,4,-1,0,2,3,2,0,5
29262045226,-1,-4,-4,-6,-7,-5,-2,-2
29262046715,-3,-5,-9,-3,-1,-2,-4,-1
29262046715,1,-2,-13,-7,-7,-2,0,1
29262067599,-6,-6,7,8,3,-1,-1,-4
29262067599,1,3,-3,-3,-8,-5,-4,-1
29262069253,2,4,4,-4,-2,0,0,0
29262069253,-1,1,5,3,-1,-2,-1,-1
29262081945,-6,-3,-4,-4,1,-1,-4,-5
29262081945,-7,-15,-11,2,5,4,4,-2
29262088759,-2,-3,-3,0,-3,0,-2,-2
29262088759,3,8,9,-2,-7,-5,-1,3
29262105271,1,3,-2,-1,3,-1,0,0
29262105271,0,3,-1,-1,0,-1,-2,-2
29262106730,-5,-7,-9,-2,-3,-2,0,-1
29262106730,-1,0,7,2,2,0,-1,0
29262127888,1,4,0,-4,-2,0,-2,0
29262127888,-3,-6,-6,-5,-2,-2,-1,-1
29262129203,6,13,29,18,8,4,5,2
29262129203,0,1,2,2,2,-2,-1,-1
29262141893,-2,0,1,-4,-4,-3,0,-2
29262141893,-1,-3,-8,-9,-7,-3,-5,-3
29262150261,-4,-9,-16,-6,-4,0,-3,-3
29262150261,1,-2,-1,2,1,1,1,1
29262165161,1,2,2,-1,-4,-2,-3,-2
29262165161,-2,-9,-12,-2,-1,0,-1,-2
29262166685,0,1,1,-1,0,-1,-2,1
29262166685,1,3,3,2,0,-1,1,-2
29262187758,-8,-10,-7,-3,3,2,-1,-4
29262187758,1,3,-1,-1,-3,-2,0,0
29262189206,-1,-1,0,-4,3,2,-1,1
29262189206,-2,-4,1,6,1,-1,-3,1
29262201420,-1,-6,-6,-5,-2,-4,-5,-3
29262201420,6,12,8,-2,0,-2,-1,0
29262210229,-2,-2,2,3,3,3,-1,-1
29262210229,-1,-3,-7,-4,0,0,0,-1
29262225153,-6,-6,-8,-5,-4,-2,4,-2
29262225153,0,5,8,-1,-4,-6,-4,-4
29262226680,-3,-16,-21,-13,-7,-5,-4,-5
29262226680,6,12,14,7,9,5,3,4
29262247729,-3,-6,-4,-1,-4,1,1,0
29262247729,1,5,-1,-2,-2,-2,3,2
29262249235,-4,-1,-1,-3,-1,-2,-1,-6
29262249235,-4,-12,-8,-1,1,2,2,-1
29262261299,2,-1,-3,0,-4,-5,-1,0
29262261299,0,3,5,2,1,3,0,1
29262270236,-2,-2,-1,-4,-2,-3,-4,-3
29262270236,0,4,2,-1,-2,0,-1,0
29262285190,1,1,3,4,0,-1,-2,-1
29262285190,-3,-8,-8,-1,-4,-4,-3,-3
29262286712,-2,3,10,12,7,3,0,-1
29262286712,-2,-3,-5,-5,-1,-3,-2,-1
29262315190,-2,-2,-1,-2,-2,-1,-1,-1
29262315190,-4,-6,-5,-4,-2,-1,-1,-2
29262316707,-3,-3,-10,-12,-8,-5,-1,-1
29262316707,-3,-7,-3,2,-1,-1,0,-2
29262321260,-3,-2,-1,-1,-3,1,3,0
29262321260,7,12,6,5,7,2,-6,1
29262330271,4,7,9,12,4,1,-1,2
29262330271,-8,-11,-8,-4,1,3,0,-3
29262345266,-2,-1,6,4,3,3,0,-2
29262345266,-7,-13,-12,-3,2,3,3,-1
29262346714,4,8,4,-6,-8,-4,0,2
29262346714,-2,-3,-10,-8,-9,-7,-6,-4
29262367582,2,7,6,4,1,0,2,0
29262367582,-7,-3,2,-1,-1,2,0,-2
29262369192,3,1,-1,-2,-2,-2,-2,-1
29262369192,2,-3,-3,1,2,1,-1,2
29262381414,2,4,-1,-2,-1,-3,-3,0
29262381414,-5,-7,-4,-3,-7,-2,1,-1
29262390207,-3,-1,-10,-12,-4,-5,-4,-3
29262390207,5,2,7,14,4,2,1,1
29262405074,0,0,5,1,1,-1,-2,-3
29262405074,1,2,2,-1,-1,-1,-1,-1
29262406666,-5,-7,-2,1,4,2,-1,0
29262406666,-6,-12,-19,-14,-9,-4,-1,-4
29262427815,1,1,7,8,1,0,-4,1
29262427815,7,10,8,3,4,0,3,3
29262429195,0,-1,0,2,-1,-1,-1,0
29262429195,1,5,3,-2,-1,-1,-3,0
29262441342,-8,-10,-9,-6,-1,-1,1,-2
29262441342,-1,-4,-7,-2,0,2,2,1
29262450238,-2,-5,-10,-5,-3,-4,-3,-4
29262450238,-1,0,-4,-4,-5,-4,-3,-3
29262465103,6,13,17,-1,-1,-2,1,3
29262465103,-4,0,0,-1,0,-4,-3,-2
29262466692,-1,-5,-2,1,-1,2,1,0
29262466692,-4,1,-4,-5,-2,-3,-3,-1
29262487720,2,-2,-10,-10,-7,-4,-3,0
29262487720,-1,-7,-11,-7,-5,-4,-3,-2
29262489205,-2,3,14,9,4,6,6,1
29262489205,1,9,3,-2,-3,-4,-3,1
29262501351,1,2,3,8,6,1,1,-1
29262501351,-2,-4,2,-1,-2,0,1,-3
29262510229,-5,-11,-9,-5,-5,-2,1,0
29262510229,3,-5,-4,0,0,-3,-1,1
29262525170,-5,-7,-6,0,-4,-1,2,-1
29262525170,-1,-2,-3,-2,-2,-1,-1,-1
29262526687,2,-1,-4,-3,-5,-2,-1,0
29262526687,3,7,9,6,1,0,3,1
29262547843,-7,-10,-11,-4,-3,-1,-2,-4
29262547843,0,-4,-7,-3,1,0,-2,-1
29262549240,2,3,6,4,-1,-1,-3,0
29262549240,-7,-6,-3,-7,-3,-2,-2,-3
29262561346,7,3,3,7,3,1,0,1
29262561346,-4,-3,-2,-5,-3,-3,-2,-1
29262570259,-2,-4,3,1,1,-1,-2,-3
29262570259,-2,-2,1,2,-2,1,-2,-3
29262585236,0,-1,-9,-2,2,1,-3,-1
29262585236,-1,-3,1,2,3,7,4,2
29262586722,-2,1,-3,-1,-2,-3,-2,-2
29262586722,1,-2,-3,1,2,1,1,0
29262607672,-5,-3,-5,-8,-6,-3,-3,-2
29262607672,1,-2,5,7,2,-1,-1,0
29262609186,-1,7,7,4,3,2,1,-1
29262609186,-10,-9,-1,0,0,-1,1,-5
29262621346,3,-2,-10,0,1,0,0,2
29262621346,0,0,-1,-5,-4,-3,1,0
29262630258,-3,-9,-8,-4,-3,-2,-1,0
29262630258,4,9,10,3,1,-3,1,-1
29262645122,-9,-9,-11,-9,-4,0,-2,-4
29262645122,2,10,14,4,-1,-4,-5,0
29262646708,3,1,1,5,4,1,-2,0
29262646708,-1,4,4,0,2,2,-2,0
29262667718,-1,0,1,0,-1,-1,2,-1
29262667718,4,5,-2,-1,-4,-2,-1,1
29262669188,-7,-7,-8,-2,0,-1,0,-4
29262669188,1,-3,-7,-2,-2,-1,-1,2
29262681414,-2,2,6,-1,-4,-1,2,0
29262681414,3,8,12,3,0,-1,-2,-1
29262696343,-2,-5,-2,0,-1,0,-1,-1
29262696343,-1,0,2,-4,-3,-3,-2,-3
29262705168,-2,-4,-2,-2,-2,-2,-3,-2
29262705168,-5,-11,-7,-1,0,1,-3,-1
29262706692,0,0,-12,-12,-3,-4,-9,-1
29262706692,3,1,15,14,5,3,-4,1
29262727695,0,2,6,1,1,-1,-4,-1
29262727695,0,-1,-1,5,1,0,-1,0
29262729237,-1,-2,-5,-6,-5,-3,1,-1
29262729237,-4,-5,-9,-9,-6,-2,-1,-3
29262741250,-2,-6,-24,-20,-7,-3,-3,-2
29262741250,1,11,27,18,7,4,-1,-1
29262750236,2,4,2,0,-3,-3,-1,2
29262750236,-6,-8,-2,9,8,4,4,-4
29262764551,-3,4,1,-5,-8,-3,2,-3
29262764551,1,-4,-7,-8,-3,-5,-4,0
29262771273,5,8,10,4,2,0,-2,1
29262771273,-3,-2,-1,2,-1,2,2,0
29262787800,-1,-5,-6,-1,-3,-3,-1,-1
29262787800,-8,-11,-15,-8,-3,0,1,-4
29262789207,-1,0,6,0,-4,-1,6,-2
29262789207,3,0,-4,-8,-4,-5,-6,0
29262801430,-2,-3,3,4,4,-2,-1,-1
29262801430,1,2,-1,-2,-3,-2,2,-3
29262810214,1,-1,-5,-2,-2,-4,-4,-1
29262810214,0,0,-10,-14,-6,-3,-2,-2
29262825143,0,0,3,11,7,4,0,0
29262825143,2,4,6,-1,-5,-8,-7,1
29262826686,-12,-21,-40,-22,-8,-2,2,-5
29262826686,13,31,60,41,14,3,2,7
29262847908,-2,2,5,4,2,-3,-5,-2
29262847908,-13,-22,-44,-31,-11,-6,-7,-6
29262849198,8,11,20,15,4,6,-1,6
29262849198,-2,9,14,16,6,3,-4,2
