29226689637,-0.284973144531,-0.0252075195312,0.0089111328125,0.958129882812
29226704622,-0.285278320312,-0.025146484375,0.00897216796875,0.958068847656
29226728474,-0.285888671875,-0.0260009765625,0.00897216796875,0.957885742188
29226749647,-0.289184570312,-0.0177001953125,0.0111083984375,0.95703125
29226764701,-0.288269042969,-0.02001953125,0.010498046875,0.957275390625
29226788392,-0.2890625,-0.01904296875,0.0108032226562,0.95703125
29226809682,-0.290893554688,-0.0171508789062,0.0113525390625,0.95654296875
29226824664,-0.291687011719,-0.017578125,0.0114135742188,0.956298828125
29226848386,-0.284851074219,-0.0252685546875,0.00897216796875,0.958190917969
29226879072,-0.284118652344,-0.0259399414062,0.0087890625,0.958374023438
29226888141,-0.289611816406,-0.0193481445312,0.0108032226562,0.956848144531
29226909051,-0.291015625,-0.0180053710938,0.01123046875,0.956481933594
29226930402,-0.290893554688,-0.0173950195312,0.0114135742188,0.956481933594
29226944658,-0.2919921875,-0.0184936523438,0.0109252929688,0.956176757812
29226968385,-0.291931152344,-0.0184936523438,0.0109252929688,0.956176757812
29226997680,-0.291931152344,-0.0184936523438,0.0109252929688,0.956176757812
29227007950,-0.291870117188,-0.0185546875,0.0109252929688,0.956176757812
29227027652,-0.291809082031,-0.0185546875,0.0109252929688,0.956176757812
29227050106,-0.292907714844,-0.01220703125,0.0119018554688,0.955993652344
29227064468,-0.288513183594,-0.0216064453125,0.00897216796875,0.957153320312
29227087053,-0.286926269531,-0.0235595703125,0.00836181640625,0.957580566406
29227109406,-0.286437988281,-0.02392578125,0.00823974609375,0.957763671875
29227124524,-0.292114257812,-0.0170288085938,0.0103759765625,0.956176757812
29227146950,-0.293334960938,-0.015869140625,0.0108032226562,0.955810546875
29227169528,-0.289428710938,-0.0209350585938,0.00921630859375,0.956909179688
29227184466,-0.283020019531,-0.027587890625,0.0069580078125,0.958679199219
29227206943,-0.284912109375,-0.0245361328125,0.00787353515625,0.958190917969
29227229333,-0.291748046875,-0.0171508789062,0.01025390625,0.956298828125
29227244384,-0.290832519531,-0.0164794921875,0.0096435546875,0.95654296875
29227267046,-0.291259765625,-0.0166015625,0.00933837890625,0.956420898438
29227289481,-0.291198730469,-0.0166015625,0.00933837890625,0.956420898438
29227304353,-0.291381835938,-0.0167236328125,0.00927734375,0.956420898438
29227327092,-0.29150390625,-0.0169067382812,0.00921630859375,0.956359863281
29227342081,-0.291625976562,-0.0170288085938,0.00921630859375,0.956298828125
29227364540,-0.291625976562,-0.01708984375,0.0091552734375,0.956298828125
29227387000,-0.291564941406,-0.01708984375,0.0091552734375,0.956298828125
29227401882,-0.291564941406,-0.0171508789062,0.0091552734375,0.956298828125
29227424490,-0.291564941406,-0.0171508789062,0.0091552734375,0.956359863281
29227446829,-0.291564941406,-0.0172119140625,0.0091552734375,0.956359863281
29227462007,-0.291564941406,-0.0172729492188,0.0091552734375,0.956359863281
29227484516,-0.29150390625,-0.0172729492188,0.00909423828125,0.956359863281
29227507081,-0.29150390625,-0.017333984375,0.00909423828125,0.956359863281
29227521972,-0.29150390625,-0.017333984375,0.00909423828125,0.956359863281
29227544360,-0.291442871094,-0.0173950195312,0.00909423828125,0.956359863281
29227567087,-0.291442871094,-0.0173950195312,0.00909423828125,0.956359863281
29227582005,-0.291381835938,-0.0174560546875,0.00909423828125,0.956359863281
29227604490,-0.29150390625,-0.017578125,0.009033203125,0.956359863281
29227627051,-0.29150390625,-0.0176391601562,0.009033203125,0.956359863281
29227642023,-0.291442871094,-0.0176391601562,0.009033203125,0.956359863281
29227664545,-0.291442871094,-0.0176391601562,0.009033203125,0.956359863281
29227687075,-0.291381835938,-0.0177001953125,0.00897216796875,0.956359863281
29227701959,-0.291625976562,-0.0176391601562,0.00897216796875,0.956298828125
29227724363,-0.291625976562,-0.0177001953125,0.0089111328125,0.956298828125
29227746974,-0.291381835938,-0.0177001953125,0.00885009765625,0.956359863281
29227769379,-0.291076660156,-0.0176391601562,0.00872802734375,0.956481933594
29227784497,-0.290771484375,-0.0175170898438,0.0086669921875,0.95654296875
29227809776,-0.290588378906,-0.017333984375,0.00860595703125,0.956604003906
29227821983,-0.290649414062,-0.01708984375,0.00848388671875,0.956604003906
29227844392,-0.290832519531,-0.0167846679688,0.00836181640625,0.95654296875
29227867070,-0.290954589844,-0.016357421875,0.00823974609375,0.95654296875
29227883317,-0.291015625,-0.0159301757812,0.008056640625,0.95654296875
29227904468,-0.291015625,-0.015380859375,0.0076904296875,0.95654296875
29227927092,-0.291015625,-0.0145874023438,0.007568359375,0.95654296875
29227943332,-0.291198730469,-0.013671875,0.007568359375,0.956481933594
29227964498,-0.29150390625,-0.0127563476562,0.00762939453125,0.956420898438
29227987078,-0.292053222656,-0.0119018554688,0.0078125,0.956237792969
29228004789,-0.292419433594,-0.0110473632812,0.008056640625,0.956176757812
29228027271,-0.292663574219,-0.0101318359375,0.00830078125,0.956115722656
29228047126,-0.292663574219,-0.00921630859375,0.0084228515625,0.956115722656
29228064814,-0.29248046875,-0.00787353515625,0.00860595703125,0.956176757812
29228087293,-0.292663574219,-0.0062255859375,0.0087890625,0.956115722656
29228106886,-0.293212890625,-0.00469970703125,0.009033203125,0.955993652344
29228124822,-0.2939453125,-0.0030517578125,0.0093994140625,0.955749511719
29228147310,-0.294677734375,-0.00146484375,0.009765625,0.955505371094
29228166949,-0.295043945312,6.103515625e-05,0.0103149414062,0.955383300781
29228184774,-0.295104980469,0.00177001953125,0.0109252929688,0.955383300781
29228214759,-0.29443359375,0.0035400390625,0.01171875,0.95556640625
29228226875,-0.293823242188,0.00543212890625,0.0126342773438,0.955749511719
29228244762,-0.293029785156,0.00726318359375,0.0137939453125,0.955932617188
29228267309,-0.2919921875,0.00933837890625,0.0152587890625,0.956237792969
29228289791,-0.290832519531,0.0116577148438,0.0167846679688,0.95654296875
29228304819,-0.290222167969,0.0142211914062,0.018310546875,0.956665039062
29228327283,-0.290100097656,0.0172119140625,0.0202026367188,0.956604003906
29228346834,-0.289916992188,0.0206909179688,0.0222778320312,0.95654296875
29228364813,-0.289245605469,0.0244140625,0.0244750976562,0.956604003906
29228387323,-0.287902832031,0.0286865234375,0.02685546875,0.956848144531
29228407620,-0.286804199219,0.0335083007812,0.029296875,0.956909179688
29228423993,-0.286010742188,0.0385131835938,0.0316772460938,0.956909179688
29228446468,-0.285461425781,0.0440063476562,0.0341796875,0.956726074219
29228467521,-0.284851074219,0.0499877929688,0.0368041992188,0.95654296875
29228483979,-0.284545898438,0.0563354492188,0.0393676757812,0.956176757812
29228506500,-0.283996582031,0.0631713867188,0.0420532226562,0.955810546875
29228527610,-0.28369140625,0.0704345703125,0.0447998046875,0.955261230469
29228543951,-0.283569335938,0.0780639648438,0.0477905273438,0.954528808594
29228566494,-0.283325195312,0.0858764648438,0.0511474609375,0.953796386719
29228587561,-0.282653808594,0.0936279296875,0.054443359375,0.953063964844
29228603969,-0.281494140625,0.101806640625,0.0579833984375,0.952331542969
29228626503,-0.280456542969,0.110290527344,0.0615844726562,0.951477050781
29228647653,-0.279418945312,0.119018554688,0.065185546875,0.950500488281
29228663341,-0.278564453125,0.128051757812,0.0689086914062,0.949279785156
29228686450,-0.277648925781,0.137268066406,0.072998046875,0.947998046875
29228707505,-0.27685546875,0.146484375,0.0772094726562,0.946533203125
29228723297,-0.276184082031,0.155883789062,0.0816040039062,0.94482421875
29228746469,-0.27587890625,0.165344238281,0.0863647460938,0.94287109375
29228768969,-0.275329589844,0.175109863281,0.0913696289062,0.940795898438
29228783295,-0.274536132812,0.184997558594,0.096435546875,0.938659667969
29228806450,-0.273681640625,0.194763183594,0.101440429688,0.936401367188
29228828965,-0.272583007812,0.204772949219,0.106628417969,0.933959960938
29228843320,-0.271606445312,0.214782714844,0.112121582031,0.931396484375
29228866470,-0.271362304688,0.223999023438,0.117797851562,0.928588867188
29228888994,-0.271240234375,0.232482910156,0.123474121094,0.92578125
29228903396,-0.270141601562,0.24072265625,0.129211425781,0.923217773438
29228926469,-0.268432617188,0.248657226562,0.134887695312,0.920776367188
29228948969,-0.265808105469,0.256164550781,0.140319824219,0.918701171875
29228963341,-0.262268066406,0.263244628906,0.145751953125,0.916870117188
29228986482,-0.257873535156,0.270324707031,0.151062011719,0.915161132812
29229008966,-0.253051757812,0.278015136719,0.156311035156,0.913330078125
29229023353,-0.249389648438,0.285400390625,0.161865234375,0.911071777344
29229046451,-0.246643066406,0.292602539062,0.16748046875,0.908508300781
29229068990,-0.243774414062,0.299926757812,0.173156738281,0.905822753906
29229097614,-0.240600585938,0.306884765625,0.178466796875,0.9033203125
29229106465,-0.237426757812,0.313842773438,0.183471679688,0.900756835938
29229128970,-0.233642578125,0.320678710938,0.188293457031,0.898376464844
29229150159,-0.228637695312,0.327514648438,0.19287109375,0.896240234375
29229166471,-0.222961425781,0.333862304688,0.197082519531,0.894348144531
29229189013,-0.217041015625,0.339721679688,0.201110839844,0.892700195312
29229210148,-0.210205078125,0.345031738281,0.205078125,0.891418457031
29229226478,-0.203735351562,0.349731445312,0.209167480469,0.89013671875
29229248925,-0.197265625,0.353942871094,0.21337890625,0.888916015625
29229270116,-0.190185546875,0.358337402344,0.217529296875,0.8876953125
29229286487,-0.1826171875,0.362976074219,0.220947265625,0.886596679688
29229308959,-0.174499511719,0.367248535156,0.223510742188,0.885803222656
29229330104,-0.165649414062,0.371704101562,0.226135253906,0.884948730469
29229346514,-0.157104492188,0.376403808594,0.228942871094,0.883850097656
29229368990,-0.151184082031,0.380310058594,0.232238769531,0.88232421875
29229390117,-0.146484375,0.38232421875,0.235534667969,0.88134765625
29229406448,-0.139770507812,0.383728027344,0.237548828125,0.881286621094
29229428925,-0.132141113281,0.385925292969,0.238220214844,0.88134765625
29229450128,-0.1259765625,0.388366699219,0.238037109375,0.881225585938
29229466675,-0.1181640625,0.390014648438,0.237365722656,0.881774902344
29229488934,-0.106079101562,0.391723632812,0.234924316406,0.883178710938
29229510034,-0.093994140625,0.393859863281,0.231689453125,0.884460449219
29229526476,-0.0853881835938,0.395141601562,0.23095703125,0.884948730469
29229548931,-0.0804443359375,0.394897460938,0.232482910156,0.885131835938
29229570100,-0.0741577148438,0.393737792969,0.23388671875,0.885803222656
29229586428,-0.0698852539062,0.392211914062,0.234802246094,0.886596679688
29229608976,-0.0646362304688,0.390869140625,0.235107421875,0.887512207031
29229630104,-0.057861328125,0.390075683594,0.234375,0.888488769531
29229645776,-0.0518188476562,0.389038085938,0.233642578125,0.889526367188
29229668969,-0.0466918945312,0.38818359375,0.233337402344,0.890258789062
29229690154,-0.0428466796875,0.388000488281,0.233276367188,0.890563964844
29229705836,-0.0396118164062,0.387512207031,0.233459472656,0.890869140625
29229728971,-0.0377807617188,0.386840820312,0.233459472656,0.891296386719
29229751394,-0.035888671875,0.386962890625,0.233154296875,0.891357421875
29229765843,-0.0321044921875,0.388549804688,0.232360839844,0.890991210938
29229788963,-0.0283203125,0.390441894531,0.232238769531,0.890380859375
29229811443,-0.0272827148438,0.392211914062,0.233032226562,0.889404296875
29229825771,-0.0299072265625,0.392822265625,0.234375,0.888671875
29229848919,-0.030029296875,0.394348144531,0.23486328125,0.887878417969
29229871468,-0.0296630859375,0.396850585938,0.234985351562,0.886779785156
29229885807,-0.028564453125,0.399597167969,0.234436035156,0.885681152344
29229916467,-0.0274658203125,0.4013671875,0.234008789062,0.885070800781
29229931492,-0.0292358398438,0.401062011719,0.234130859375,0.885131835938
29229954020,-0.032470703125,0.399536132812,0.234802246094,0.885498046875
29229968926,-0.0377197265625,0.397399902344,0.236450195312,0.885803222656
29229991472,-0.0427856445312,0.39453125,0.238952636719,0.88623046875
29230012607,-0.0521850585938,0.389953613281,0.240356445312,0.887329101562
29230028980,-0.0679931640625,0.383422851562,0.244018554688,0.888122558594
29230051516,-0.08740234375,0.377990722656,0.249755859375,0.887145996094
29230072725,-0.1064453125,0.373962402344,0.253051757812,0.885864257812
29230088986,-0.121826171875,0.369934082031,0.25146484375,0.885986328125
29230111450,-0.131713867188,0.365173339844,0.247375488281,0.8876953125
29230132698,-0.142517089844,0.361267089844,0.244201660156,0.888488769531
29230154988,-0.158935546875,0.355102539062,0.241943359375,0.888854980469
29230171446,-0.174011230469,0.347045898438,0.237365722656,0.890441894531
29230192601,-0.189575195312,0.337097167969,0.231018066406,0.892761230469
29230208925,-0.204711914062,0.32763671875,0.225036621094,0.894409179688
29230231467,-0.220642089844,0.319091796875,0.219665527344,0.895080566406
29230252574,-0.236083984375,0.310241699219,0.214904785156,0.895385742188
29230268960,-0.249328613281,0.301879882812,0.2099609375,0.895874023438
29230291419,-0.262939453125,0.295288085938,0.205322265625,0.895263671875
29230312603,-0.279113769531,0.288818359375,0.202697753906,0.89306640625
29230328972,-0.296142578125,0.282409667969,0.201232910156,0.889953613281
29230351443,-0.31201171875,0.276184082031,0.199279785156,0.886901855469
29230372589,-0.325866699219,0.271057128906,0.196655273438,0.884094238281
29230388925,-0.339477539062,0.266784667969,0.1943359375,0.880737304688
29230411440,-0.354370117188,0.261962890625,0.193603515625,0.876525878906
29230432624,-0.370422363281,0.257019042969,0.193969726562,0.871215820312
29230448950,-0.384826660156,0.253784179688,0.193664550781,0.865966796875
29230471443,-0.396362304688,0.253662109375,0.191345214844,0.861328125
29230492604,-0.408874511719,0.253540039062,0.190368652344,0.855712890625
29230508941,-0.423461914062,0.252563476562,0.191711425781,0.848571777344
29230531474,-0.437377929688,0.251281738281,0.193908691406,0.841369628906
29230552653,-0.448120117188,0.25048828125,0.195922851562,0.83544921875
29230568992,-0.455322265625,0.251708984375,0.196411132812,0.8310546875
29230591423,-0.463073730469,0.253112792969,0.197570800781,0.826049804688
29230612613,-0.473510742188,0.254028320312,0.199523925781,0.819396972656
29230628296,-0.484252929688,0.254455566406,0.201782226562,0.812377929688
29230651445,-0.492431640625,0.254760742188,0.204040527344,0.806823730469
29230672564,-0.500244140625,0.255004882812,0.206909179688,0.801147460938
29230688269,-0.510803222656,0.254516601562,0.210693359375,0.793640136719
29230711428,-0.522338867188,0.253479003906,0.215026855469,0.785217285156
29230733970,-0.529418945312,0.252868652344,0.218383789062,0.77978515625
29230748260,-0.533935546875,0.252807617188,0.22119140625,0.775939941406
29230771439,-0.538696289062,0.252258300781,0.224670410156,0.771789550781
29230793969,-0.541748046875,0.252990722656,0.22705078125,0.768676757812
29230808287,-0.544555664062,0.254638671875,0.22900390625,0.765563964844
29230831474,-0.548706054688,0.255920410156,0.232177734375,0.76123046875
29230853935,-0.553833007812,0.256042480469,0.236572265625,0.756164550781
29230868244,-0.558227539062,0.256286621094,0.240234375,0.751647949219
29230891484,-0.561096191406,0.258056640625,0.2431640625,0.747985839844
29230913920,-0.5634765625,0.260070800781,0.24609375,0.744506835938
29230935075,-0.567687988281,0.260925292969,0.25,0.739685058594
29230951425,-0.570495605469,0.261962890625,0.253540039062,0.735961914062
29230973948,-0.571411132812,0.264038085938,0.255615234375,0.733764648438
29230995123,-0.572326660156,0.266540527344,0.258056640625,0.731262207031
29231011442,-0.575500488281,0.267639160156,0.261108398438,0.727294921875
29231033918,-0.579040527344,0.268005371094,0.26416015625,0.723205566406
29231055075,-0.580505371094,0.268981933594,0.265991210938,0.721008300781
29231071481,-0.581970214844,0.270080566406,0.268310546875,0.718566894531
29231093949,-0.583862304688,0.269226074219,0.271850585938,0.716003417969
29231115140,-0.583740234375,0.268249511719,0.273803710938,0.715759277344
29231131443,-0.583068847656,0.269165039062,0.273681640625,0.716003417969
29231153948,-0.583251953125,0.271484375,0.273498535156,0.715026855469
29231175107,-0.584228515625,0.273132324219,0.273986816406,0.713439941406
29231191421,-0.585205078125,0.274169921875,0.274658203125,0.7119140625
29231214018,-0.587036132812,0.2744140625,0.275268554688,0.710083007812
29231235103,-0.588195800781,0.275268554688,0.274963378906,0.708984375
29231251443,-0.58837890625,0.276062011719,0.274658203125,0.708618164062
29231273925,-0.588684082031,0.2763671875,0.274353027344,0.708374023438
29231295238,-0.589233398438,0.27587890625,0.274291992188,0.708068847656
29231311452,-0.589172363281,0.275390625,0.273742675781,0.708557128906
29231333920,-0.588806152344,0.27587890625,0.272888183594,0.708984375
29231355111,-0.588989257812,0.276123046875,0.272583007812,0.708923339844
29231371381,-0.589294433594,0.275512695312,0.272644042969,0.708862304688
29231393926,-0.589660644531,0.274963378906,0.272766113281,0.708679199219
29231415166,-0.589782714844,0.27490234375,0.273010253906,0.70849609375
29231431444,-0.589965820312,0.274719238281,0.273620605469,0.708190917969
29231453946,-0.589904785156,0.274047851562,0.274291992188,0.708312988281
29231474954,-0.588745117188,0.273559570312,0.274475097656,0.709289550781
29231491418,-0.587951660156,0.273742675781,0.27490234375,0.709777832031
29231513943,-0.588134765625,0.2734375,0.275451660156,0.70947265625
29231535219,-0.58837890625,0.272827148438,0.275817871094,0.709411621094
29231551449,-0.58837890625,0.272216796875,0.275695800781,0.709716796875
29231573988,-0.588134765625,0.271911621094,0.275451660156,0.710144042969
29231595008,-0.588439941406,0.271606445312,0.275268554688,0.710021972656
29231611468,-0.588928222656,0.271179199219,0.275146484375,0.709838867188
29231633920,-0.589111328125,0.270568847656,0.275085449219,0.7099609375
29231656442,-0.589111328125,0.2705078125,0.275085449219,0.7099609375
29231671449,-0.589111328125,0.2705078125,0.275024414062,0.7099609375
29231693920,-0.589111328125,0.270629882812,0.275146484375,0.709899902344
29231716446,-0.589172363281,0.270629882812,0.275268554688,0.709838867188
29231731449,-0.589294433594,0.270446777344,0.275817871094,0.709533691406
29231736973,-0.589111328125,0.270263671875,0.276794433594,0.709411621094
29231759413,-0.588928222656,0.27001953125,0.2783203125,0.709045410156
29231781896,-0.588195800781,0.269592285156,0.280090332031,0.709106445312
29231798374,-0.585876464844,0.269348144531,0.281372070312,0.710632324219
29231819452,-0.581115722656,0.269714355469,0.282043457031,0.714111328125
29231841926,-0.574829101562,0.270446777344,0.282409667969,0.718811035156
29231858266,-0.567321777344,0.271789550781,0.282531738281,0.724182128906
