29491630176,-0.341979980469,-0.00640869140625,-0.0642700195312,0.937438964844
29491653993,-0.341674804688,-0.00628662109375,-0.064208984375,0.937561035156
29491669034,-0.341918945312,-0.00628662109375,-0.064453125,0.9375
29491690390,-0.34033203125,-0.0103149414062,-0.06591796875,0.937927246094
29491714030,-0.339721679688,-0.010498046875,-0.0660400390625,0.938110351562
29491729017,-0.344177246094,-0.00396728515625,-0.0635375976562,0.936706542969
29491750305,-0.346069335938,-0.002197265625,-0.0628662109375,0.936096191406
29491774022,-0.347106933594,-0.003662109375,-0.0633544921875,0.935668945312
29491804019,-0.340087890625,-0.0116577148438,-0.0664672851562,0.937927246094
29491812994,-0.338623046875,-0.0126342773438,-0.06689453125,0.938415527344
29491833810,-0.34130859375,-0.0074462890625,-0.06494140625,0.937683105469
29491849068,-0.34326171875,-0.0054931640625,-0.0641479492188,0.93701171875
29491866740,-0.342895507812,-0.005859375,-0.0650634765625,0.937072753906
29491888231,-0.343444824219,-0.0057373046875,-0.0655517578125,0.936828613281
29491940265,-0.343627929688,-0.0054931640625,-0.0655517578125,0.936767578125
29491940962,-0.343811035156,-0.0054931640625,-0.0655517578125,0.936706542969
29491947914,-0.343994140625,-0.00537109375,-0.0654907226562,0.936645507812
29491967667,-0.343994140625,-0.0029296875,-0.0645751953125,0.936706542969
29491983938,-0.346923828125,6.103515625e-05,-0.0638427734375,0.935729980469
29492014663,-0.352844238281,0.0068359375,-0.0611572265625,0.933654785156
29492035692,-0.353576660156,0.007080078125,-0.0610961914062,0.933349609375
29492052113,-0.348266601562,6.103515625e-05,-0.0638427734375,0.935180664062
29492074579,-0.346252441406,-0.0015869140625,-0.0645141601562,0.935913085938
29492095802,-0.345275878906,0.00048828125,-0.0637817382812,0.936279296875
29492112136,-0.352172851562,0.008544921875,-0.0607299804688,0.933898925781
29492134598,-0.353515625,0.00933837890625,-0.0604248046875,0.933410644531
29492155774,-0.349548339844,0.0032958984375,-0.0628051757812,0.934753417969
29492172120,-0.348510742188,0.00592041015625,-0.0624389648438,0.935180664062
29492194598,-0.348754882812,0.00537109375,-0.0618896484375,0.935119628906
29492215679,-0.348388671875,0.00537109375,-0.06201171875,0.935241699219
29492232080,-0.34814453125,0.00537109375,-0.0621948242188,0.935363769531
29492254622,-0.347839355469,0.00537109375,-0.0623168945312,0.935424804688
29492277072,-0.347473144531,0.00555419921875,-0.0625,0.935546875
29492292170,-0.347900390625,0.0059814453125,-0.0625610351562,0.935424804688
29492314594,-0.348693847656,0.0068359375,-0.0625610351562,0.935119628906
29492337126,-0.349731445312,0.00787353515625,-0.0625610351562,0.934692382812
29492351501,-0.351623535156,0.009765625,-0.0623779296875,0.934020996094
29492374598,-0.353576660156,0.0117797851562,-0.0628051757812,0.933166503906
29492397069,-0.355224609375,0.0140991210938,-0.06298828125,0.932556152344
29492411489,-0.356750488281,0.0164794921875,-0.06298828125,0.931884765625
29492434627,-0.357788085938,0.0189208984375,-0.063232421875,0.931457519531
29492465293,-0.358825683594,0.0213012695312,-0.0634155273438,0.930969238281
29492466909,-0.359313964844,0.0238037109375,-0.0636596679688,0.930725097656
29492485009,-0.357299804688,0.0263671875,-0.0637817382812,0.931396484375
29492507565,-0.354125976562,0.0289306640625,-0.0646362304688,0.932495117188
29492522602,-0.349487304688,0.0317993164062,-0.0645751953125,0.934143066406
29492545054,-0.344787597656,0.0349731445312,-0.0643310546875,0.935791015625
29492567468,-0.341796875,0.0387573242188,-0.0643920898438,0.936767578125
29492582518,-0.341064453125,0.0423583984375,-0.0640258789062,0.936889648438
29492605114,-0.341613769531,0.046630859375,-0.0634765625,0.9365234375
29492627496,-0.342468261719,0.0515747070312,-0.062744140625,0.935974121094
29492642600,-0.343017578125,0.0567626953125,-0.061767578125,0.935546875
29492665102,-0.343322753906,0.0618286132812,-0.06103515625,0.935180664062
29492687613,-0.343933105469,0.06689453125,-0.0602416992188,0.934631347656
29492702548,-0.345153808594,0.072021484375,-0.0588989257812,0.933898925781
29492725026,-0.345581054688,0.0769653320312,-0.056884765625,0.933471679688
29492747620,-0.344787597656,0.0819091796875,-0.054443359375,0.933471679688
29492762615,-0.34326171875,0.0870361328125,-0.0514526367188,0.933776855469
29492784993,-0.341552734375,0.0922241210938,-0.0479736328125,0.93408203125
29492807625,-0.339904785156,0.0972900390625,-0.0440063476562,0.934387207031
29492822602,-0.338562011719,0.102661132812,-0.0397338867188,0.934448242188
29492845042,-0.337646484375,0.108520507812,-0.0350952148438,0.934326171875
29492867543,-0.336242675781,0.11474609375,-0.0303344726562,0.934265136719
29492882568,-0.334777832031,0.121398925781,-0.0253295898438,0.93408203125
29492905099,-0.332885742188,0.128723144531,-0.019775390625,0.933898925781
29492927541,-0.330749511719,0.136352539062,-0.0138549804688,0.933715820312
29492942591,-0.326965332031,0.143676757812,-0.00714111328125,0.934020996094
29492965070,-0.320617675781,0.150817871094,-0.00067138671875,0.935119628906
29492987579,-0.311279296875,0.157958984375,0.00469970703125,0.937072753906
29493002580,-0.300659179688,0.166442871094,0.00970458984375,0.939025878906
29493025078,-0.292419433594,0.17626953125,0.0153198242188,0.939758300781
29493042929,-0.289123535156,0.186645507812,0.0219116210938,0.938659667969
29493062479,-0.288024902344,0.197204589844,0.0287475585938,0.936645507812
29493085097,-0.287658691406,0.207763671875,0.0361328125,0.934204101562
29493102912,-0.286499023438,0.218994140625,0.0436401367188,0.931701660156
29493122639,-0.284606933594,0.230651855469,0.0509643554688,0.929077148438
29493145076,-0.281127929688,0.242431640625,0.0581665039062,0.926696777344
29493162933,-0.276123046875,0.254333496094,0.0650024414062,0.924560546875
29493182545,-0.271240234375,0.266418457031,0.0718994140625,0.922058105469
29493205100,-0.266418457031,0.278076171875,0.0787963867188,0.919494628906
29493222914,-0.260864257812,0.289367675781,0.0855712890625,0.9169921875
29493242688,-0.255676269531,0.300659179688,0.0924682617188,0.914123535156
29493265051,-0.25146484375,0.311340332031,0.0995483398438,0.910949707031
29493282927,-0.247802734375,0.321960449219,0.106689453125,0.907470703125
29493302461,-0.244445800781,0.332458496094,0.11376953125,0.903747558594
29493325159,-0.241149902344,0.342529296875,0.120483398438,0.899963378906
29493342924,-0.236450195312,0.35205078125,0.126708984375,0.896667480469
29493363924,-0.231384277344,0.361206054688,0.132690429688,0.893493652344
29493385079,-0.225708007812,0.371154785156,0.137756347656,0.890075683594
29493402930,-0.220153808594,0.381408691406,0.143493652344,0.88623046875
29493425481,-0.216552734375,0.391174316406,0.150512695312,0.881713867188
29493445062,-0.213745117188,0.399658203125,0.157165527344,0.877380371094
29493462908,-0.209838867188,0.407104492188,0.162536621094,0.873901367188
29493483964,-0.204956054688,0.415222167969,0.166625976562,0.870483398438
29493505097,-0.199279785156,0.423645019531,0.170837402344,0.866943359375
29493522914,-0.1943359375,0.431640625,0.175598144531,0.863159179688
29493543910,-0.189758300781,0.439575195312,0.180114746094,0.859191894531
29493564939,-0.186340332031,0.446472167969,0.184387207031,0.85546875
29493582949,-0.181762695312,0.452697753906,0.188720703125,0.852233886719
29493603944,-0.177917480469,0.458984375,0.19287109375,0.848754882812
29493624974,-0.173034667969,0.465637207031,0.197021484375,0.84521484375
29493642907,-0.169006347656,0.472290039062,0.200866699219,0.841369628906
29493663943,-0.164184570312,0.478942871094,0.205078125,0.837585449219
29493685088,-0.159545898438,0.484680175781,0.209289550781,0.834106445312
29493702906,-0.155456542969,0.490539550781,0.213012695312,0.830505371094
29493725400,-0.151000976562,0.497253417969,0.216491699219,0.826416015625
29493745102,-0.147155761719,0.503479003906,0.220336914062,0.822326660156
29493762924,-0.143798828125,0.508972167969,0.224243164062,0.818481445312
29493785333,-0.140808105469,0.513916015625,0.227661132812,0.81494140625
29493805014,-0.137756347656,0.5185546875,0.231079101562,0.811584472656
29493822901,-0.134948730469,0.522827148438,0.234558105469,0.808288574219
29493845359,-0.132446289062,0.526733398438,0.237609863281,0.805297851562
29493865110,-0.129760742188,0.530334472656,0.240234375,0.802612304688
29493882915,-0.126953125,0.533752441406,0.242919921875,0.799926757812
29493905361,-0.12451171875,0.536804199219,0.245971679688,0.797302246094
29493925050,-0.122436523438,0.539733886719,0.2490234375,0.794738769531
29493942909,-0.120483398438,0.542541503906,0.251647949219,0.792297363281
29493965387,-0.118408203125,0.54541015625,0.25439453125,0.789733886719
29493985145,-0.116516113281,0.547912597656,0.257019042969,0.787475585938
29494002909,-0.114562988281,0.550598144531,0.259399414062,0.785034179688
29494025447,-0.112915039062,0.552917480469,0.261596679688,0.782958984375
29494045075,-0.111328125,0.555358886719,0.263549804688,0.780822753906
29494062958,-0.110107421875,0.557739257812,0.265563964844,0.778564453125
29494084527,-0.109252929688,0.559326171875,0.267639160156,0.77685546875
29494105699,-0.108459472656,0.561096191406,0.26953125,0.775024414062
29494121904,-0.10791015625,0.562866210938,0.271362304688,0.773193359375
29494144555,-0.107177734375,0.564331054688,0.272766113281,0.771728515625
29494165723,-0.106628417969,0.565246582031,0.274475097656,0.7705078125
29494182077,-0.106384277344,0.566162109375,0.276489257812,0.769165039062
29494204618,-0.106628417969,0.566467285156,0.278625488281,0.768127441406
29494225718,-0.107360839844,0.566284179688,0.280578613281,0.767456054688
29494242072,-0.108459472656,0.566345214844,0.2822265625,0.766662597656
29494264543,-0.108703613281,0.56689453125,0.283325195312,0.765808105469
29494285747,-0.1083984375,0.567443847656,0.284362792969,0.765014648438
29494302084,-0.108703613281,0.567932128906,0.285583496094,0.76416015625
29494330712,-0.109375,0.568359375,0.286682128906,0.763366699219
29494345733,-0.110107421875,0.568359375,0.287780761719,0.762817382812
29494362049,-0.110168457031,0.56884765625,0.288513183594,0.76220703125
29494384990,-0.11083984375,0.5693359375,0.289123535156,0.761535644531
29494413190,-0.111083984375,0.569458007812,0.289489746094,0.76123046875
29494422091,-0.111267089844,0.570007324219,0.289794921875,0.760681152344
29494444577,-0.112121582031,0.569702148438,0.289978027344,0.7607421875
29494465715,-0.11279296875,0.569885253906,0.289733886719,0.760559082031
29494490039,-0.113403320312,0.570007324219,0.289245605469,0.760559082031
29494504544,-0.114196777344,0.569946289062,0.289001464844,0.760559082031
29494525797,-0.115051269531,0.569763183594,0.289001464844,0.760620117188
29494542089,-0.116027832031,0.569702148438,0.288635253906,0.760681152344
29494564588,-0.1171875,0.569519042969,0.288208007812,0.7607421875
29494585568,-0.118103027344,0.569763183594,0.288146972656,0.760437011719
29494602076,-0.119018554688,0.569213867188,0.288146972656,0.760681152344
29494624569,-0.119995117188,0.568664550781,0.287902832031,0.761108398438
29494645614,-0.12109375,0.568664550781,0.287475585938,0.761047363281
29494662049,-0.122192382812,0.568725585938,0.287048339844,0.760986328125
29494685000,-0.122497558594,0.568237304688,0.286865234375,0.761352539062
29494707065,-0.123291015625,0.567810058594,0.286804199219,0.761596679688
29494722042,-0.124389648438,0.567810058594,0.28662109375,0.761474609375
29494744592,-0.125183105469,0.567749023438,0.286254882812,0.761535644531
29494767056,-0.125244140625,0.566955566406,0.286254882812,0.762084960938
29494782052,-0.125427246094,0.566955566406,0.286254882812,0.762084960938
29494804575,-0.126586914062,0.56689453125,0.286315917969,0.761901855469
29494827046,-0.127258300781,0.566589355469,0.28662109375,0.761962890625
29494841424,-0.127685546875,0.566284179688,0.286682128906,0.762084960938
29494864573,-0.128051757812,0.566040039062,0.286804199219,0.762145996094
29494887026,-0.12890625,0.566040039062,0.286743164062,0.762023925781
29494901355,-0.128479003906,0.566040039062,0.287414550781,0.761840820312
29494924547,-0.128540039062,0.564819335938,0.288513183594,0.762329101562
29494947068,-0.129516601562,0.563903808594,0.289367675781,0.762512207031
29494961443,-0.130615234375,0.563232421875,0.289428710938,0.762817382812
29494984567,-0.130981445312,0.56298828125,0.28955078125,0.762878417969
29495007075,-0.132446289062,0.562133789062,0.289733886719,0.76318359375
29495021389,-0.134033203125,0.562133789062,0.289611816406,0.762939453125
29495044548,-0.135620117188,0.562255859375,0.289306640625,0.7626953125
29495067094,-0.136596679688,0.561950683594,0.289733886719,0.762573242188
29495081437,-0.137878417969,0.561645507812,0.289855957031,0.762512207031
29495104564,-0.139526367188,0.561706542969,0.289611816406,0.762268066406
29495127044,-0.140197753906,0.561584472656,0.289611816406,0.762268066406
29495141376,-0.140380859375,0.561218261719,0.289855957031,0.762390136719
29495164584,-0.141906738281,0.560913085938,0.290405273438,0.762084960938
29495187029,-0.143432617188,0.560485839844,0.290771484375,0.762023925781
29495208194,-0.143493652344,0.560424804688,0.290710449219,0.762023925781
29495224555,-0.143127441406,0.560485839844,0.290405273438,0.762145996094
29495247067,-0.143676757812,0.560668945312,0.290344238281,0.762023925781
29495268188,-0.144409179688,0.560607910156,0.290588378906,0.761840820312
29495284542,-0.144165039062,0.560241699219,0.290893554688,0.761962890625
29495307099,-0.144714355469,0.559997558594,0.291015625,0.762023925781
29495328222,-0.145446777344,0.560607910156,0.290954589844,0.761474609375
29495344545,-0.145874023438,0.560302734375,0.291259765625,0.761474609375
29495367042,-0.145812988281,0.559997558594,0.29150390625,0.761657714844
29495388232,-0.147033691406,0.559753417969,0.291442871094,0.761596679688
29495404596,-0.147827148438,0.559814453125,0.291442871094,0.761413574219
29495427066,-0.1474609375,0.559326171875,0.291259765625,0.761901855469
29495448193,-0.147338867188,0.558898925781,0.291320800781,0.76220703125
29495464518,-0.148681640625,0.558532714844,0.291381835938,0.762145996094
29495487040,-0.149780273438,0.558227539062,0.291625976562,0.762084960938
29495508217,-0.149963378906,0.558044433594,0.292114257812,0.762023925781
29495524547,-0.14990234375,0.557983398438,0.292602539062,0.761901855469
29495547074,-0.150146484375,0.557922363281,0.293212890625,0.761657714844
29495568231,-0.150573730469,0.557922363281,0.2939453125,0.761291503906
29495584556,-0.151184082031,0.557678222656,0.294738769531,0.761047363281
29495607071,-0.151428222656,0.557678222656,0.295288085938,0.760803222656
29495629536,-0.152038574219,0.557861328125,0.295166015625,0.760559082031
29495644501,-0.152770996094,0.55810546875,0.295166015625,0.76025390625
29495667138,-0.1533203125,0.5576171875,0.29541015625,0.760375976562
29495689545,-0.1533203125,0.557006835938,0.295654296875,0.760803222656
29495704522,-0.154174804688,0.556701660156,0.295593261719,0.760803222656
29495727074,-0.154479980469,0.556884765625,0.294982910156,0.760864257812
29495749525,-0.153686523438,0.556213378906,0.294067382812,0.761840820312
29495764543,-0.153930664062,0.554443359375,0.293518066406,0.763305664062
29495787070,-0.154174804688,0.5537109375,0.293090820312,0.763977050781
29495809514,-0.154174804688,0.553833007812,0.29150390625,0.764465332031
29495823919,-0.153625488281,0.553405761719,0.28955078125,0.765625
29495847069,-0.152526855469,0.552917480469,0.286926269531,0.767211914062
29495869551,-0.151916503906,0.551635742188,0.2841796875,0.769287109375
29495890698,-0.153564453125,0.549072265625,0.28173828125,0.771667480469
29495907074,-0.156066894531,0.545837402344,0.279418945312,0.774291992188
29495929587,-0.158325195312,0.541931152344,0.277587890625,0.777221679688
29495950670,-0.160888671875,0.537719726562,0.275268554688,0.780456542969
29495967018,-0.163940429688,0.532836914062,0.272338867188,0.7841796875
29495989325,-0.167541503906,0.527099609375,0.268615722656,0.78857421875
29496010820,-0.170532226562,0.521423339844,0.263793945312,0.793273925781
29496027060,-0.172790527344,0.515930175781,0.258605957031,0.798095703125
29496049529,-0.1748046875,0.510498046875,0.253479003906,0.802795410156
29496070699,-0.177795410156,0.504577636719,0.248657226562,0.807373046875
29496087019,-0.1826171875,0.497314453125,0.244262695312,0.812133789062
29496109551,-0.188781738281,0.48876953125,0.239685058594,0.817260742188
29496130670,-0.194763183594,0.480285644531,0.234680175781,0.822326660156
29496147020,-0.199829101562,0.472473144531,0.228820800781,0.827270507812
29496169541,-0.20458984375,0.464782714844,0.222412109375,0.832214355469
29496190743,-0.209594726562,0.456604003906,0.2158203125,0.837219238281
29496207054,-0.214599609375,0.447692871094,0.208801269531,0.842529296875
29496229472,-0.21826171875,0.439270019531,0.201232910156,0.847839355469
29496250820,-0.221618652344,0.431274414062,0.193542480469,0.852844238281
29496267061,-0.225769042969,0.422668457031,0.186279296875,0.857666015625
29496289509,-0.231201171875,0.412963867188,0.179016113281,0.862487792969
29496310781,-0.236877441406,0.402770996094,0.171752929688,0.867248535156
29496327069,-0.241271972656,0.392517089844,0.163818359375,0.872253417969
29496349544,-0.244750976562,0.382690429688,0.155334472656,0.877197265625
29496370775,-0.249206542969,0.372253417969,0.146667480469,0.881896972656
29496387037,-0.25390625,0.361633300781,0.138122558594,0.886352539062
29496409545,-0.258544921875,0.350952148438,0.129943847656,0.890502929688
29496430797,-0.26416015625,0.339416503906,0.121948242188,0.894470214844
29496453115,-0.270751953125,0.327270507812,0.113586425781,0.898132324219
29496469520,-0.277465820312,0.314758300781,0.104553222656,0.901672363281
29496490677,-0.283081054688,0.302062988281,0.0950927734375,0.9052734375
29496506393,-0.288818359375,0.2890625,0.085205078125,0.90869140625
29496529552,-0.294860839844,0.275390625,0.0748901367188,0.911926269531
29496550701,-0.299560546875,0.261840820312,0.0641479492188,0.915161132812
29496566393,-0.303771972656,0.248352050781,0.053466796875,0.918212890625
29496589545,-0.309143066406,0.234313964844,0.0430297851562,0.920654296875
29496612025,-0.314880371094,0.219970703125,0.0327758789062,0.922668457031
29496626397,-0.319580078125,0.205993652344,0.0225830078125,0.924621582031
29496649520,-0.323852539062,0.192504882812,0.0127563476562,0.926208496094
29496671996,-0.32861328125,0.179504394531,0.00335693359375,0.92724609375
29496686389,-0.335327148438,0.166259765625,-0.00567626953125,0.927307128906
29496709570,-0.341247558594,0.153442382812,-0.0143432617188,0.92724609375
29496732020,-0.345764160156,0.1416015625,-0.0224609375,0.92724609375
29496746341,-0.350402832031,0.130737304688,-0.0303955078125,0.926879882812
29496769525,-0.355712890625,0.120422363281,-0.0379638671875,0.926025390625
29496792039,-0.360229492188,0.110900878906,-0.0449829101562,0.925170898438
29496806380,-0.363708496094,0.102233886719,-0.0516967773438,0.924438476562
29496829518,-0.367797851562,0.0946655273438,-0.0576171875,0.923278808594
29496852047,-0.372863769531,0.0877685546875,-0.0625610351562,0.921569824219
29496873176,-0.377746582031,0.081298828125,-0.06689453125,0.919860839844
29496889515,-0.38134765625,0.07568359375,-0.07080078125,0.918579101562
29496912045,-0.384033203125,0.0711669921875,-0.0739135742188,0.917602539062
29496933228,-0.386779785156,0.0672607421875,-0.0763549804688,0.91650390625
29496949553,-0.389709472656,0.063720703125,-0.0784301757812,0.915344238281
29496971988,-0.391662597656,0.060546875,-0.080078125,0.914611816406
29496993382,-0.392761230469,0.0578002929688,-0.081298828125,0.914184570312
29497009551,-0.3935546875,0.0552368164062,-0.0824584960938,0.913940429688
29497032026,-0.394653320312,0.0527954101562,-0.0836181640625,0.913452148438
29497053368,-0.396301269531,0.05029296875,-0.0845947265625,0.912780761719
29497069504,-0.397827148438,0.0479125976562,-0.085205078125,0.912231445312
29497092054,-0.399658203125,0.0454711914062,-0.085693359375,0.911499023438
29497113019,-0.401489257812,0.0427856445312,-0.0859375,0.910827636719
29497129495,-0.402526855469,0.0394287109375,-0.0863037109375,0.910461425781
29497152031,-0.402954101562,0.0364379882812,-0.0866088867188,0.910339355469
29497173083,-0.403076171875,0.0340576171875,-0.0860595703125,0.910461425781
29497189566,-0.402648925781,0.0313110351562,-0.0853271484375,0.910827636719
29497211983,-0.402099609375,0.0282592773438,-0.0849609375,0.911193847656
29497233315,-0.399719238281,0.0272827148438,-0.0841674804688,0.912353515625
29497249612,-0.399108886719,0.0254516601562,-0.085205078125,0.91259765625
29497271991,-0.3994140625,0.0238037109375,-0.08544921875,0.912475585938
29497293178,-0.399047851562,0.0224609375,-0.0859375,0.91259765625
29497309546,-0.399963378906,0.0213623046875,-0.085693359375,0.912231445312
29497332003,-0.4013671875,0.0199584960938,-0.0857543945312,0.91162109375
29497353171,-0.401794433594,0.0184326171875,-0.0870361328125,0.911376953125
29497369517,-0.403198242188,0.0175170898438,-0.0870361328125,0.910766601562
29497392021,-0.404113769531,0.0172729492188,-0.086669921875,0.910400390625
29497397529,-0.404541015625,0.017578125,-0.0858764648438,0.910278320312
29497420094,-0.404541015625,0.0179443359375,-0.085205078125,0.910339355469
29497435042,-0.404052734375,0.017822265625,-0.0847778320312,0.910583496094
29497457439,-0.403259277344,0.0175170898438,-0.08447265625,0.911010742188
29497480076,-0.402526855469,0.01708984375,-0.0843505859375,0.911315917969
29497495101,-0.401611328125,0.0164794921875,-0.0843505859375,0.911743164062
29497517526,-0.400390625,0.015869140625,-0.0843505859375,0.912292480469
29497540130,-0.398864746094,0.0153198242188,-0.0843505859375,0.912963867188
29497555018,-0.397583007812,0.014892578125,-0.0843505859375,0.91357421875
29497577498,-0.396667480469,0.0146484375,-0.0843505859375,0.913940429688
29497600059,-0.396240234375,0.0144653320312,-0.0842895507812,0.914123535156
29497615108,-0.396240234375,0.0142211914062,-0.0842895507812,0.914123535156
29497637545,-0.396362304688,0.0139770507812,-0.0842895507812,0.9140625
29497660048,-0.396423339844,0.0137329101562,-0.084228515625,0.9140625
29497675026,-0.396057128906,0.0135498046875,-0.0841674804688,0.914245605469
29497697500,-0.395324707031,0.01318359375,-0.0841064453125,0.91455078125
29497720031,-0.394287109375,0.0127563476562,-0.0841064453125,0.9150390625
29497735036,-0.39306640625,0.0123291015625,-0.083984375,0.915588378906
29497757530,-0.392028808594,0.0118408203125,-0.0839233398438,0.916015625
29497780142,-0.391296386719,0.01123046875,-0.0840454101562,0.916320800781
29497795090,-0.390625,0.0109252929688,-0.0841064453125,0.916625976562
29497817518,-0.389892578125,0.0107421875,-0.0841674804688,0.916931152344
29497840158,-0.389221191406,0.0106811523438,-0.0841674804688,0.917175292969
29497854973,-0.388671875,0.0105590820312,-0.0842895507812,0.917419433594
29497877531,-0.388244628906,0.0103759765625,-0.0844116210938,0.917602539062
29497895331,-0.387878417969,0.01025390625,-0.0845336914062,0.917724609375
29497915055,-0.3876953125,0.0100708007812,-0.084716796875,0.917846679688
29497937439,-0.3876953125,0.0100708007812,-0.084716796875,0.917846679688
29497955368,-0.387451171875,0.010009765625,-0.084716796875,0.917907714844
29497975002,-0.38720703125,0.00994873046875,-0.0845947265625,0.918029785156
29497997475,-0.387023925781,0.00994873046875,-0.0845336914062,0.918090820312
29498015336,-0.38671875,0.0098876953125,-0.08447265625,0.918273925781
29498057422,-0.386108398438,0.0100708007812,-0.0841064453125,0.918579101562
29498075315,-0.386108398438,0.0101318359375,-0.0840454101562,0.918579101562
29498095012,-0.386047363281,0.0101318359375,-0.0840454101562,0.918579101562
29498117465,-0.386047363281,0.0101318359375,-0.0840454101562,0.918579101562
29498135282,-0.385986328125,0.0101318359375,-0.0840454101562,0.918579101562
29498156368,-0.38623046875,0.0104370117188,-0.0841674804688,0.91845703125
29498177525,-0.387084960938,0.0110473632812,-0.0840454101562,0.918090820312
29498195301,-0.388305664062,0.01171875,-0.0838012695312,0.917602539062
29498216349,-0.3896484375,0.0121459960938,-0.0836181640625,0.917053222656
29498237497,-0.390686035156,0.0123901367188,-0.08349609375,0.916625976562
29498255307,-0.391235351562,0.0127563476562,-0.0833129882812,0.916442871094
29498276371,-0.391479492188,0.01318359375,-0.0830688476562,0.916320800781
29498297521,-0.391479492188,0.0133666992188,-0.0828247070312,0.916320800781
29498315357,-0.391479492188,0.013427734375,-0.0828247070312,0.916320800781
29498336321,-0.391540527344,0.01318359375,-0.0827026367188,0.916320800781
29498357544,-0.391784667969,0.0130004882812,-0.0825805664062,0.916259765625
29498375329,-0.392150878906,0.012939453125,-0.08251953125,0.916076660156
29498396325,-0.392578125,0.0130615234375,-0.0823974609375,0.915893554688
29498417559,-0.392883300781,0.0132446289062,-0.082275390625,0.915771484375
29498435326,-0.392944335938,0.0132446289062,-0.082275390625,0.915771484375
