29715434400,0.19384765625,-0.49072265625,0.79736328125
29715457792,0.1923828125,-0.48828125,0.8076171875
29715472819,0.11865234375,-0.4814453125,0.69970703125
29715494077,-0.43017578125,-0.84130859375,1.15478515625
29715517695,0.81689453125,-0.35986328125,1.4375
29715539056,0.46728515625,-0.5947265625,1.375
29715554049,-0.27685546875,-0.8974609375,0.47705078125
29715577669,-0.4267578125,-0.6982421875,-0.0400390625
29715631759,0.2802734375,-0.2255859375,0.63671875
29715632438,0.859375,-0.13525390625,1.58740234375
29715633250,0.48583984375,-0.5654296875,1.43212890625
29715644692,-0.3154296875,-0.89501953125,0.39208984375
29715668377,-0.46044921875,-0.701171875,0.41943359375
29715683426,0.0908203125,-0.60791015625,0.908203125
29715706178,0.18359375,-0.4833984375,0.79931640625
29715741329,0.1943359375,-0.498046875,0.8173828125
29715751468,0.19140625,-0.4921875,0.81494140625
29715765196,0.20458984375,-0.4990234375,0.84326171875
29715786372,-0.14404296875,-0.72412109375,1.14208984375
29715802780,0.3349609375,-0.212890625,0.71240234375
29715826654,0.6240234375,-0.111328125,1.08251953125
29715846415,0.84130859375,-0.22021484375,1.67578125
29715864215,0.26708984375,-0.67431640625,1.1875
29715886702,-0.40771484375,-0.88623046875,0.1650390625
29715906333,-0.2373046875,-0.53076171875,0.02685546875
29715924125,0.54296875,-0.1142578125,0.9765625
29715946627,0.83642578125,-0.2265625,1.69482421875
29715966261,0.2216796875,-0.7060546875,1.1484375
29715983392,0.01953125,-0.45458984375,0.58251953125
29716005916,0.21728515625,-0.49951171875,0.8515625
29716027045,0.18505859375,-0.48876953125,0.8125
29716043390,0.1884765625,-0.501953125,0.810546875
29716065922,0.19482421875,-0.48876953125,0.81005859375
29716087146,0.2021484375,-0.48681640625,0.814453125
29716103366,0.19775390625,-0.48095703125,0.8115234375
29716125921,0.189453125,-0.4912109375,0.81787109375
29716147020,0.1806640625,-0.49560546875,0.8134765625
29716163324,0.197265625,-0.49169921875,0.80908203125
29716185921,0.19873046875,-0.50146484375,0.80322265625
29716207069,0.18701171875,-0.5283203125,0.814453125
29716223342,0.19921875,-0.513671875,0.81201171875
29716245922,0.21240234375,-0.484375,0.8173828125
29716267055,0.19189453125,-0.4443359375,0.81298828125
29716283349,0.173828125,-0.46630859375,0.828125
29716305831,0.1982421875,-0.486328125,0.837890625
29716327148,0.1943359375,-0.498046875,0.80419921875
29716343373,0.18115234375,-0.50537109375,0.8076171875
29716365934,0.17529296875,-0.50927734375,0.79638671875
29716386843,0.162109375,-0.53662109375,0.802734375
29716403341,0.14990234375,-0.5166015625,0.81591796875
29716425896,0.1484375,-0.48974609375,0.82861328125
29716447025,0.166015625,-0.47802734375,0.83056640625
29716463344,0.16357421875,-0.490234375,0.8369140625
29716485946,0.140625,-0.50927734375,0.84033203125
29716507081,0.1357421875,-0.49951171875,0.83349609375
29716523344,0.1328125,-0.515625,0.8330078125
29716545995,0.154296875,-0.51171875,0.81494140625
29716568336,0.15185546875,-0.52978515625,0.80712890625
29716583343,0.150390625,-0.5107421875,0.80615234375
29716605962,0.10009765625,-0.45751953125,0.8330078125
29716628349,0.130859375,-0.4638671875,0.84228515625
29716643354,0.15283203125,-0.490234375,0.8544921875
29716665888,0.12744140625,-0.48828125,0.8544921875
29716688264,0.1259765625,-0.51416015625,0.865234375
29716702636,0.1396484375,-0.53173828125,0.87158203125
29716731939,0.1220703125,-0.5517578125,0.88916015625
29716747662,0.12158203125,-0.55712890625,0.89501953125
29716770869,0.10546875,-0.56396484375,0.90771484375
29716791901,0.10107421875,-0.55078125,0.89990234375
29716808293,0.06982421875,-0.54248046875,0.90380859375
29716830874,0.0576171875,-0.55419921875,0.90234375
29716851938,0.03759765625,-0.57666015625,0.8876953125
29716868295,0.02099609375,-0.57666015625,0.89404296875
29716891105,0.00830078125,-0.57470703125,0.8955078125
29716912012,0.00341796875,-0.57470703125,0.87451171875
29716928336,-0.037109375,-0.568359375,0.86474609375
29716950897,-0.0712890625,-0.564453125,0.849609375
29716971935,-0.0791015625,-0.5703125,0.837890625
29716987707,-0.09326171875,-0.57421875,0.84326171875
29717010917,-0.1201171875,-0.55078125,0.84716796875
29717033344,-0.15625,-0.537109375,0.841796875
29717047692,-0.18359375,-0.5263671875,0.84130859375
29717070963,-0.18994140625,-0.52001953125,0.82861328125
29717093349,-0.2099609375,-0.50146484375,0.83056640625
29717107695,-0.232421875,-0.46728515625,0.818359375
29717130809,-0.2646484375,-0.46533203125,0.81591796875
29717153353,-0.310546875,-0.455078125,0.7978515625
29717167699,-0.3466796875,-0.451171875,0.775390625
29717190821,-0.36669921875,-0.44677734375,0.7802734375
29717213372,-0.3955078125,-0.44580078125,0.7646484375
29717227721,-0.40869140625,-0.4208984375,0.78466796875
29717250963,-0.435546875,-0.392578125,0.76171875
29717273321,-0.4736328125,-0.3837890625,0.73388671875
29717287694,-0.5048828125,-0.3681640625,0.7197265625
29717310916,-0.5244140625,-0.3583984375,0.71435546875
29717333320,-0.54052734375,-0.33740234375,0.71630859375
29717354474,-0.58984375,-0.27880859375,0.6884765625
29717370832,-0.62646484375,-0.234375,0.67919921875
29717393308,-0.6220703125,-0.2529296875,0.68212890625
29717414494,-0.6376953125,-0.19384765625,0.64697265625
29717430815,-0.69873046875,-0.12060546875,0.62255859375
29717453347,-0.72119140625,-0.13525390625,0.62548828125
29717474501,-0.6865234375,-0.1591796875,0.6259765625
29717490905,-0.71630859375,-0.119140625,0.6025390625
29717513409,-0.7470703125,-0.0517578125,0.58740234375
29717534572,-0.74951171875,-0.0302734375,0.58251953125
29717550921,-0.73828125,-0.05322265625,0.58935546875
29717573344,-0.751953125,-0.021484375,0.57470703125
29717594589,-0.80322265625,-0.02197265625,0.53564453125
29717610919,-0.8017578125,-0.01318359375,0.53466796875
29717633394,-0.78369140625,-0.025390625,0.51953125
29717654441,-0.77490234375,0.0244140625,0.490234375
29717670823,-0.81005859375,0.02880859375,0.44775390625
29717693352,-0.83203125,-0.0244140625,0.431640625
29717714545,-0.802734375,-0.0390625,0.4375
29717730830,-0.8017578125,-0.017578125,0.44482421875
29717753369,-0.8173828125,0.02099609375,0.45458984375
29717774504,-0.80810546875,0.02099609375,0.47412109375
29717790924,-0.81298828125,0.0146484375,0.49169921875
29717813313,-0.80029296875,0.05322265625,0.51123046875
29717834591,-0.806640625,0.048828125,0.5166015625
29717850906,-0.802734375,0.03662109375,0.52587890625
29717873323,-0.78759765625,0.025390625,0.53759765625
29717894342,-0.81201171875,0.03515625,0.54345703125
29717910241,-0.796875,0.0361328125,0.5458984375
29717933341,-0.78662109375,0.0322265625,0.556640625
29717954532,-0.78857421875,0.0400390625,0.5634765625
29717970172,-0.80029296875,0.0302734375,0.5478515625
29717993802,-0.798828125,0.0263671875,0.5546875
29718015917,-0.79833984375,0.0595703125,0.548828125
29718030169,-0.78955078125,0.0654296875,0.53173828125
29718053337,-0.81640625,0.04052734375,0.54150390625
29718075827,-0.80810546875,0.015625,0.52978515625
29718090222,-0.80810546875,0.00146484375,0.51416015625
29718113344,-0.8037109375,-0.01220703125,0.5087890625
29718135823,-0.78857421875,-0.01025390625,0.49609375
29718150149,-0.7783203125,-0.01123046875,0.49365234375
29718173350,-0.794921875,-0.01318359375,0.51708984375
29718195853,-0.7939453125,-0.00732421875,0.56103515625
29718217112,-0.7734375,0.01123046875,0.56201171875
29718233289,-0.77734375,-0.00146484375,0.53759765625
29718255910,-0.7685546875,-0.0615234375,0.541015625
29718276977,-0.77197265625,-0.08544921875,0.55615234375
29718293321,-0.78173828125,-0.0654296875,0.56640625
29718315906,-0.78857421875,-0.072265625,0.5810546875
29718337067,-0.79248046875,-0.10498046875,0.57470703125
29718353323,-0.79541015625,-0.12890625,0.5830078125
29718375802,-0.7900390625,-0.13623046875,0.587890625
29718396911,-0.8115234375,-0.138671875,0.6259765625
29718413363,-0.7958984375,-0.14501953125,0.625
29718435821,-0.79638671875,-0.18310546875,0.61279296875
29718456956,-0.79443359375,-0.21923828125,0.611328125
29718463829,-0.78369140625,-0.22412109375,0.62841796875
29718478958,-0.79443359375,-0.1865234375,0.6357421875
29718501244,-0.8125,-0.20068359375,0.623046875
29718523884,-0.79443359375,-0.20751953125,0.595703125
29718538826,-0.82373046875,-0.23095703125,0.61474609375
29718561350,-0.82080078125,-0.2158203125,0.607421875
29718577678,-0.80322265625,-0.20166015625,0.591796875
29718598829,-0.81787109375,-0.212890625,0.5791015625
29718621335,-0.80908203125,-0.23486328125,0.5849609375
29718637670,-0.80419921875,-0.23486328125,0.58447265625
29718658742,-0.7939453125,-0.23046875,0.5810546875
29718681245,-0.79052734375,-0.2158203125,0.57763671875
29718697648,-0.79052734375,-0.216796875,0.5693359375
29718718807,-0.79931640625,-0.23095703125,0.56298828125
29718741353,-0.79150390625,-0.2548828125,0.5537109375
29718757672,-0.77734375,-0.23095703125,0.5625
29718778879,-0.78173828125,-0.22119140625,0.5576171875
29718801227,-0.79931640625,-0.228515625,0.5576171875
29718825170,-0.77978515625,-0.21337890625,0.56591796875
29718838831,-0.78955078125,-0.22412109375,0.5478515625
29718861337,-0.80224609375,-0.2373046875,0.5595703125
29718877670,-0.78857421875,-0.2255859375,0.560546875
29718898800,-0.794921875,-0.21435546875,0.55615234375
29718921162,-0.7822265625,-0.21533203125,0.56103515625
29718939088,-0.7958984375,-0.24462890625,0.5576171875
29718958770,-0.787109375,-0.23046875,0.55712890625
29718981345,-0.7919921875,-0.22607421875,0.564453125
29718999141,-0.77978515625,-0.21923828125,0.5546875
29719018904,-0.7900390625,-0.2265625,0.5693359375
29719041291,-0.7880859375,-0.2373046875,0.56787109375
29719059162,-0.77685546875,-0.23193359375,0.5537109375
29719078913,-0.79833984375,-0.2275390625,0.56201171875
29719101197,-0.79541015625,-0.22314453125,0.5556640625
29719119095,-0.7841796875,-0.2294921875,0.54736328125
29719138833,-0.79443359375,-0.224609375,0.57763671875
29719161325,-0.806640625,-0.22509765625,0.564453125
29719179114,-0.79833984375,-0.2197265625,0.54296875
29719198835,-0.78076171875,-0.20458984375,0.5205078125
29719221344,-0.787109375,-0.18115234375,0.50048828125
29719239147,-0.82421875,-0.1728515625,0.5517578125
29719258761,-0.82080078125,-0.17724609375,0.56201171875
29719281281,-0.8037109375,-0.16552734375,0.5283203125
29719300604,-0.81103515625,-0.17236328125,0.51416015625
29719318855,-0.8212890625,-0.1962890625,0.52294921875
29719341277,-0.84423828125,-0.21533203125,0.55615234375
29719359105,-0.84130859375,-0.1474609375,0.55419921875
29719378824,-0.80859375,-0.11328125,0.53564453125
29719401228,-0.796875,-0.11279296875,0.52392578125
29719419138,-0.8134765625,-0.14111328125,0.51904296875
29719438842,-0.80908203125,-0.1767578125,0.51806640625
29719461294,-0.80029296875,-0.197265625,0.51318359375
29719479105,-0.78955078125,-0.2021484375,0.5244140625
29719498837,-0.794921875,-0.23583984375,0.53369140625
29719521275,-0.7470703125,-0.22119140625,0.544921875
29719539100,-0.72705078125,-0.23193359375,0.56005859375
29719567667,-0.7431640625,-0.216796875,0.54736328125
29719581323,-0.74853515625,-0.2119140625,0.5654296875
29719599117,-0.6865234375,-0.27978515625,0.5732421875
29719620146,-0.64697265625,-0.31201171875,0.5869140625
29719641304,-0.66845703125,-0.31396484375,0.57470703125
29719659090,-0.66943359375,-0.3310546875,0.58349609375
29719680126,-0.6298828125,-0.35302734375,0.5888671875
29719701211,-0.55517578125,-0.4111328125,0.619140625
29719719126,-0.53125,-0.39306640625,0.62548828125
29719740146,-0.55322265625,-0.3603515625,0.62353515625
29719761261,-0.52490234375,-0.419921875,0.65771484375
29719779098,-0.4697265625,-0.4619140625,0.66845703125
29719800118,-0.45654296875,-0.45703125,0.66259765625
29719821313,-0.466796875,-0.47509765625,0.6748046875
29719839145,-0.43701171875,-0.4736328125,0.71435546875
29719860167,-0.3916015625,-0.48779296875,0.72705078125
29719881297,-0.376953125,-0.46875,0.71630859375
29719899068,-0.39599609375,-0.48046875,0.7216796875
29719921627,-0.36474609375,-0.49169921875,0.736328125
29719941309,-0.32275390625,-0.515625,0.76708984375
29719959122,-0.2822265625,-0.517578125,0.78173828125
29719981607,-0.3017578125,-0.51025390625,0.775390625
29720001342,-0.32861328125,-0.509765625,0.787109375
29720019107,-0.27880859375,-0.53125,0.81396484375
29720041653,-0.19677734375,-0.544921875,0.83349609375
29720061962,-0.17041015625,-0.509765625,0.83837890625
29720078287,-0.16259765625,-0.48291015625,0.841796875
29720100799,-0.1357421875,-0.5029296875,0.86474609375
29720121887,-0.0849609375,-0.49658203125,0.88671875
29720138299,-0.06494140625,-0.46533203125,0.8857421875
29720160840,-0.05810546875,-0.453125,0.8916015625
29720181980,-0.04052734375,-0.4609375,0.89697265625
29720198311,-0.01171875,-0.4765625,0.9091796875
29720220821,0.00537109375,-0.47021484375,0.89697265625
29720241954,0.01025390625,-0.44287109375,0.904296875
29720258345,0.03515625,-0.435546875,0.908203125
29720280783,0.0576171875,-0.41845703125,0.90576171875
29720301920,0.07421875,-0.4365234375,0.89990234375
29720318332,0.08544921875,-0.44482421875,0.89599609375
29720340772,0.09375,-0.42919921875,0.90576171875
29720361838,0.09521484375,-0.4072265625,0.89990234375
29720378258,0.10107421875,-0.41552734375,0.91162109375
29720400799,0.11328125,-0.41015625,0.890625
29720421821,0.0869140625,-0.43408203125,0.8828125
29720438269,0.09765625,-0.431640625,0.8935546875
29720460812,0.12451171875,-0.4521484375,0.90283203125
29720481967,0.12890625,-0.45068359375,0.9130859375
29720498295,0.126953125,-0.447265625,0.90673828125
29720520753,0.1083984375,-0.4228515625,0.89697265625
29720541938,0.09814453125,-0.4169921875,0.875
29720564477,0.099609375,-0.4287109375,0.88427734375
29720580800,0.12353515625,-0.44287109375,0.880859375
29720601844,0.13623046875,-0.4443359375,0.8798828125
29720618287,0.1240234375,-0.43505859375,0.8642578125
29720640865,0.095703125,-0.43310546875,0.85107421875
29720661940,0.09130859375,-0.43994140625,0.84619140625
29720678299,0.1123046875,-0.4326171875,0.84033203125
29720700748,0.10791015625,-0.43310546875,0.83984375
29720721943,0.12060546875,-0.447265625,0.85205078125
29720738334,0.11181640625,-0.4384765625,0.84716796875
29720760776,0.08642578125,-0.4306640625,0.84521484375
29720781920,0.11328125,-0.4365234375,0.84912109375
29720798307,0.1328125,-0.42236328125,0.857421875
29720820779,0.130859375,-0.40625,0.8525390625
29720841929,0.1494140625,-0.4853515625,0.89794921875
29720858278,0.11181640625,-0.45654296875,0.908203125
29720880798,0.1357421875,-0.443359375,0.91552734375
29720903278,0.13623046875,-0.439453125,0.8955078125
29720918229,0.1337890625,-0.419921875,0.88671875
29720940796,0.154296875,-0.38818359375,0.85791015625
