29573671466,-0.321838378906,0.0173950195312,-0.127136230469,0.938049316406
29573686326,-0.321899414062,0.0173950195312,-0.127136230469,0.938049316406
29573710107,-0.321472167969,0.0176391601562,-0.127319335938,0.938110351562
29573731428,-0.321228027344,0.0164794921875,-0.128234863281,0.938110351562
29573746342,-0.323608398438,0.0243530273438,-0.125610351562,0.9375
29573770126,-0.32470703125,0.0264892578125,-0.124816894531,0.937133789062
29573791432,-0.325378417969,0.0272216796875,-0.124572753906,0.936950683594
29573806363,-0.322509765625,0.02001953125,-0.127197265625,0.937744140625
29573830145,-0.321472167969,0.0184326171875,-0.127746582031,0.938049316406
29573860770,-0.322509765625,0.0222778320312,-0.12646484375,0.937805175781
29573869953,-0.327209472656,0.0306396484375,-0.123413085938,0.936340332031
29573890773,-0.327514648438,0.0307006835938,-0.123352050781,0.936218261719
29573905097,-0.32568359375,0.0255126953125,-0.125183105469,0.936767578125
29573926381,-0.324462890625,0.0267333984375,-0.1259765625,0.937072753906
29573950076,-0.324645996094,0.0262451171875,-0.125915527344,0.93701171875
29573986409,-0.324645996094,0.0262451171875,-0.125915527344,0.93701171875
29573996325,-0.324645996094,0.0261840820312,-0.125915527344,0.93701171875
29574009394,-0.32470703125,0.0261840820312,-0.125915527344,0.93701171875
29574023749,-0.325012207031,0.0250854492188,-0.126220703125,0.936889648438
29574046925,-0.323791503906,0.0232543945312,-0.126892089844,0.937255859375
29574070775,-0.323547363281,0.0230712890625,-0.126953125,0.937377929688
29574085100,-0.326599121094,0.0301513671875,-0.12451171875,0.936401367188
29574108256,-0.327758789062,0.0317993164062,-0.123901367188,0.93603515625
29574130729,-0.327514648438,0.0308837890625,-0.124267578125,0.936096191406
29574145047,-0.326293945312,0.0286865234375,-0.125,0.9365234375
29574168268,-0.3251953125,0.0286254882812,-0.125305175781,0.936828613281
29574190818,-0.329650878906,0.0369262695312,-0.122314453125,0.935424804688
29574205085,-0.330322265625,0.03759765625,-0.1220703125,0.935180664062
29574228209,-0.329711914062,0.0343627929688,-0.122375488281,0.935485839844
29574250747,-0.329467773438,0.0343627929688,-0.122619628906,0.935546875
29574271903,-0.329345703125,0.0341186523438,-0.122924804688,0.935546875
29574288271,-0.329345703125,0.0340576171875,-0.122985839844,0.935546875
29574310747,-0.328979492188,0.0337524414062,-0.123291015625,0.935607910156
29574331889,-0.32861328125,0.0335083007812,-0.123657226562,0.935729980469
29574348250,-0.328063964844,0.0332641601562,-0.124145507812,0.935852050781
29574370728,-0.327819824219,0.0333251953125,-0.124389648438,0.935913085938
29574391818,-0.327819824219,0.0337524414062,-0.124572753906,0.935852050781
29574408253,-0.327941894531,0.0343627929688,-0.124694824219,0.935791015625
29574430724,-0.32861328125,0.0352172851562,-0.124694824219,0.935546875
29574451983,-0.329772949219,0.0362548828125,-0.12451171875,0.935119628906
29574468276,-0.331359863281,0.0377197265625,-0.1240234375,0.934509277344
29574490748,-0.332885742188,0.039306640625,-0.123718261719,0.933959960938
29574511855,-0.33447265625,0.0413208007812,-0.123107910156,0.933410644531
29574528698,-0.336181640625,0.0436401367188,-0.121887207031,0.932861328125
29574550752,-0.337341308594,0.04638671875,-0.120544433594,0.932434082031
29574571943,-0.33837890625,0.049560546875,-0.119079589844,0.93212890625
29574588230,-0.339172363281,0.0531005859375,-0.11767578125,0.931823730469
29574610750,-0.34033203125,0.0574951171875,-0.115539550781,0.931396484375
29574631877,-0.34130859375,0.0624389648438,-0.113037109375,0.931030273438
29574654443,-0.341064453125,0.0675048828125,-0.110717773438,0.931030273438
29574670719,-0.342590332031,0.0732421875,-0.107666015625,0.930419921875
29574691876,-0.345520019531,0.07958984375,-0.103881835938,0.92919921875
29574707561,-0.349060058594,0.086669921875,-0.0997924804688,0.927734375
29574730852,-0.353759765625,0.0946044921875,-0.0945434570312,0.925720214844
29574753217,-0.358154296875,0.102905273438,-0.0888061523438,0.923706054688
29574767576,-0.362060546875,0.111206054688,-0.08251953125,0.921752929688
29574790707,-0.36669921875,0.1201171875,-0.0758666992188,0.91943359375
29574813221,-0.371826171875,0.129333496094,-0.068359375,0.916687011719
29574827573,-0.377319335938,0.138977050781,-0.060302734375,0.91357421875
29574850728,-0.383361816406,0.148742675781,-0.0518188476562,0.910034179688
29574873245,-0.38916015625,0.158020019531,-0.04296875,0.906494140625
29574887600,-0.394470214844,0.167358398438,-0.0328369140625,0.902893066406
29574910751,-0.399780273438,0.177001953125,-0.0225219726562,0.899047851562
29574933221,-0.404968261719,0.186584472656,-0.0116577148438,0.89501953125
29574954424,-0.411499023438,0.196350097656,-0.000244140625,0.890014648438
29574976930,-0.420166015625,0.205810546875,0.0123901367188,0.883728027344
29574993241,-0.429931640625,0.214294433594,0.0263671875,0.876647949219
29575015724,-0.437622070312,0.22119140625,0.041015625,0.870544433594
29575036847,-0.443725585938,0.227416992188,0.05517578125,0.865051269531
29575053240,-0.449157714844,0.233337402344,0.0687866210938,0.859680175781
29575075725,-0.454711914062,0.238037109375,0.0830078125,0.854187011719
29575096967,-0.458068847656,0.241455078125,0.096923828125,0.849975585938
29575113197,-0.457641601562,0.245361328125,0.109497070312,0.847534179688
29575135743,-0.456237792969,0.249572753906,0.121520996094,0.845458984375
29575156870,-0.457885742188,0.253234863281,0.134521484375,0.841491699219
29575172546,-0.461730957031,0.255859375,0.148864746094,0.836120605469
29575195696,-0.46435546875,0.257507324219,0.162902832031,0.83154296875
29575218213,-0.464782714844,0.258972167969,0.175048828125,0.828369140625
29575232574,-0.464782714844,0.261047363281,0.185729980469,0.825378417969
29575255753,-0.465209960938,0.262878417969,0.196655273438,0.822082519531
29575278228,-0.465759277344,0.263427734375,0.207702636719,0.81884765625
29575292568,-0.465270996094,0.263610839844,0.21728515625,0.816528320312
29575315736,-0.464721679688,0.264099121094,0.225708007812,0.814392089844
29575338194,-0.465759277344,0.26513671875,0.233825683594,0.811218261719
29575352571,-0.466674804688,0.266052246094,0.242126464844,0.807922363281
29575375770,-0.467529296875,0.266418457031,0.249816894531,0.804992675781
29575398216,-0.469970703125,0.26513671875,0.257446289062,0.801574707031
29575412606,-0.471801757812,0.263488769531,0.265319824219,0.798461914062
29575435701,-0.471923828125,0.26220703125,0.27197265625,0.796569824219
29575458220,-0.472229003906,0.260131835938,0.278076171875,0.794982910156
29575472538,-0.472534179688,0.257446289062,0.283935546875,0.793579101562
29575495697,-0.473510742188,0.254089355469,0.289367675781,0.792114257812
29575518253,-0.474243164062,0.250549316406,0.294250488281,0.790954589844
29575539249,-0.474487304688,0.246826171875,0.298645019531,0.790344238281
29575555749,-0.47509765625,0.242980957031,0.302490234375,0.789733886719
29575578194,-0.476379394531,0.238952636719,0.305969238281,0.788879394531
29575599475,-0.477600097656,0.234924316406,0.308837890625,0.788208007812
29575615729,-0.478393554688,0.231506347656,0.310913085938,0.787902832031
29575638225,-0.479309082031,0.228515625,0.312683105469,0.787536621094
29575659240,-0.481140136719,0.225280761719,0.314331054688,0.786743164062
29575675747,-0.483154296875,0.222473144531,0.3154296875,0.785827636719
29575698221,-0.486083984375,0.219665527344,0.316528320312,0.784362792969
29575719241,-0.4892578125,0.217346191406,0.316955566406,0.782836914062
29575735661,-0.492797851562,0.21533203125,0.316955566406,0.78125
29575758221,-0.496154785156,0.212890625,0.316955566406,0.779724121094
29575779384,-0.49853515625,0.210815429688,0.316650390625,0.778930664062
29575795730,-0.500549316406,0.208862304688,0.31591796875,0.778442382812
29575818245,-0.502319335938,0.206848144531,0.31494140625,0.778198242188
29575839333,-0.50439453125,0.204833984375,0.313415527344,0.778076171875
29575855724,-0.507141113281,0.202270507812,0.312072753906,0.777465820312
29575878211,-0.509155273438,0.199768066406,0.310424804688,0.777465820312
29575899459,-0.510864257812,0.197631835938,0.308166503906,0.777770996094
29575915724,-0.513244628906,0.194946289062,0.306030273438,0.777709960938
29575938189,-0.515502929688,0.192321777344,0.303955078125,0.777709960938
29575959385,-0.517639160156,0.189514160156,0.302062988281,0.777709960938
29575975698,-0.519226074219,0.187438964844,0.300231933594,0.777893066406
29575998219,-0.52099609375,0.185302734375,0.298645019531,0.77783203125
29576019376,-0.522521972656,0.183532714844,0.297302246094,0.777709960938
29576035704,-0.523864746094,0.181884765625,0.296264648438,0.777587890625
29576058224,-0.52490234375,0.180908203125,0.295166015625,0.777526855469
29576079399,-0.525329589844,0.180603027344,0.294006347656,0.777770996094
29576095706,-0.525939941406,0.180480957031,0.292724609375,0.777893066406
29576118170,-0.528015136719,0.179260253906,0.2919921875,0.777038574219
29576139405,-0.529235839844,0.178649902344,0.291320800781,0.776611328125
29576155717,-0.529602050781,0.178833007812,0.290649414062,0.776550292969
29576178212,-0.529541015625,0.179077148438,0.289733886719,0.77685546875
29576200716,-0.530151367188,0.178771972656,0.289123535156,0.776733398438
29576221730,-0.531005859375,0.17822265625,0.288635253906,0.776489257812
29576238191,-0.53125,0.178039550781,0.288330078125,0.776489257812
29576243672,-0.530883789062,0.178527832031,0.287719726562,0.776794433594
29576266219,-0.531982421875,0.178161621094,0.287353515625,0.776306152344
29576281259,-0.532653808594,0.177978515625,0.287109375,0.776000976562
29576303694,-0.532470703125,0.178405761719,0.286926269531,0.776062011719
29576326324,-0.531982421875,0.179138183594,0.286743164062,0.776306152344
29576341233,-0.531921386719,0.179565429688,0.28662109375,0.776306152344
29576363716,-0.531982421875,0.179565429688,0.286560058594,0.776306152344
29576386201,-0.531494140625,0.179748535156,0.286560058594,0.776550292969
29576401223,-0.531005859375,0.18017578125,0.286499023438,0.776794433594
29576423788,-0.531372070312,0.180053710938,0.286376953125,0.776611328125
29576446183,-0.531982421875,0.179809570312,0.286437988281,0.776245117188
29576461183,-0.531494140625,0.180114746094,0.286254882812,0.776550292969
29576483718,-0.529907226562,0.18115234375,0.28564453125,0.777648925781
29576506176,-0.529541015625,0.181762695312,0.285278320312,0.777893066406
29576521197,-0.530456542969,0.181579589844,0.285339355469,0.777282714844
29576543671,-0.53076171875,0.181701660156,0.285339355469,0.777099609375
29576566231,-0.530944824219,0.181884765625,0.285217285156,0.776916503906
29576581280,-0.531005859375,0.182006835938,0.284973144531,0.776916503906
29576603722,-0.53125,0.18212890625,0.28466796875,0.776916503906
29576626177,-0.531311035156,0.18212890625,0.284606933594,0.77685546875
29576641223,-0.53125,0.182189941406,0.284362792969,0.776977539062
29576663766,-0.530639648438,0.182678222656,0.283874511719,0.777465820312
29576686160,-0.530700683594,0.182678222656,0.283264160156,0.777648925781
29576701167,-0.531555175781,0.182250976562,0.282897949219,0.777282714844
29576723558,-0.531860351562,0.182067871094,0.282592773438,0.777221679688
29576746207,-0.531555175781,0.182434082031,0.2822265625,0.777465820312
29576762600,-0.531127929688,0.182678222656,0.281921386719,0.77783203125
29576783697,-0.531188964844,0.182678222656,0.281921386719,0.777770996094
29576806200,-0.531372070312,0.182800292969,0.281921386719,0.777648925781
29576822542,-0.530944824219,0.183349609375,0.281921386719,0.777770996094
29576843763,-0.529602050781,0.184387207031,0.281799316406,0.778503417969
29576866122,-0.528503417969,0.185302734375,0.28173828125,0.779052734375
29576882548,-0.527770996094,0.185852050781,0.281921386719,0.779357910156
29576903707,-0.527221679688,0.186401367188,0.282104492188,0.779541015625
29576926203,-0.526916503906,0.187072753906,0.281982421875,0.779602050781
29576942521,-0.526672363281,0.18798828125,0.28173828125,0.779663085938
29576963771,-0.526062011719,0.189086914062,0.28125,0.779968261719
29576986252,-0.524780273438,0.190551757812,0.280639648438,0.780700683594
29577002512,-0.523681640625,0.192443847656,0.279907226562,0.78125
29577023729,-0.521606445312,0.194641113281,0.27880859375,0.782470703125
29577046392,-0.518859863281,0.197265625,0.276794433594,0.784362792969
29577062527,-0.515930175781,0.200317382812,0.2744140625,0.786315917969
29577083740,-0.514343261719,0.203247070312,0.272766113281,0.787231445312
29577106213,-0.513488769531,0.206481933594,0.271606445312,0.787292480469
29577125475,-0.512023925781,0.210021972656,0.270385742188,0.787719726562
29577143651,-0.512573242188,0.212829589844,0.269104003906,0.787109375
29577166073,-0.513610839844,0.215270996094,0.267883300781,0.786193847656
29577183978,-0.513671875,0.218139648438,0.266174316406,0.785888671875
29577203651,-0.512756347656,0.2216796875,0.263488769531,0.786437988281
29577226160,-0.512084960938,0.224182128906,0.260681152344,0.787109375
29577244014,-0.51171875,0.22607421875,0.257202148438,0.787902832031
29577263599,-0.509094238281,0.229125976562,0.252990722656,0.790100097656
29577286119,-0.505249023438,0.232666015625,0.247863769531,0.793151855469
29577303955,-0.502136230469,0.235290527344,0.242553710938,0.796020507812
29577323733,-0.499633789062,0.237060546875,0.237182617188,0.798645019531
29577346115,-0.494506835938,0.239990234375,0.23095703125,0.802795410156
29577364023,-0.487609863281,0.244201660156,0.223449707031,0.807861328125
29577383758,-0.481689453125,0.247497558594,0.2158203125,0.812438964844
29577406249,-0.477783203125,0.248596191406,0.208801269531,0.816284179688
29577424041,-0.473815917969,0.248779296875,0.202026367188,0.820190429688
29577443758,-0.467956542969,0.249145507812,0.195068359375,0.825134277344
29577466082,-0.460571289062,0.249694824219,0.187316894531,0.830871582031
29577483965,-0.452880859375,0.249755859375,0.179321289062,0.836853027344
29577505056,-0.446044921875,0.248718261719,0.171691894531,0.842407226562
29577521493,-0.439636230469,0.247131347656,0.164428710938,0.84765625
29577544021,-0.43408203125,0.245056152344,0.157348632812,0.852478027344
29577563648,-0.428161621094,0.242492675781,0.150268554688,0.857482910156
29577581498,-0.422241210938,0.239318847656,0.142822265625,0.862548828125
29577604006,-0.41552734375,0.235961914062,0.134765625,0.867980957031
29577623665,-0.407104492188,0.232849121094,0.126403808594,0.874084472656
29577641455,-0.397521972656,0.229797363281,0.11767578125,0.880493164062
29577663990,-0.387573242188,0.226318359375,0.108337402344,0.887023925781
29577683761,-0.376831054688,0.222412109375,0.0986328125,0.893737792969
29577701527,-0.364562988281,0.218017578125,0.088623046875,0.90087890625
29577724010,-0.351257324219,0.213317871094,0.078369140625,0.908264160156
29577745041,-0.338439941406,0.208312988281,0.068115234375,0.915100097656
29577761517,-0.327941894531,0.202941894531,0.05810546875,0.920776367188
29577783959,-0.318176269531,0.197082519531,0.0486450195312,0.926025390625
29577805059,-0.308227539062,0.19091796875,0.0391235351562,0.931091308594
29577821521,-0.297790527344,0.184265136719,0.029052734375,0.936218261719
29577844014,-0.286010742188,0.17724609375,0.0187377929688,0.941467285156
29577864313,-0.274475097656,0.169860839844,0.0081787109375,0.946411132812
29577886795,-0.265014648438,0.16259765625,-0.002197265625,0.950378417969
29577903254,-0.257446289062,0.155029296875,-0.01123046875,0.953674316406
29577931824,-0.251403808594,0.14697265625,-0.01953125,0.956420898438
29577940015,-0.245849609375,0.139282226562,-0.027587890625,0.958801269531
29577963163,-0.241516113281,0.131774902344,-0.03564453125,0.960693359375
29577984328,-0.238525390625,0.124328613281,-0.04345703125,0.962158203125
29577999997,-0.236511230469,0.116882324219,-0.0509033203125,0.963195800781
29578023192,-0.234802246094,0.109375,-0.0580444335938,0.964111328125
29578044346,-0.232788085938,0.101684570312,-0.0651245117188,0.964965820312
29578060024,-0.230651855469,0.094482421875,-0.0721435546875,0.965698242188
29578083174,-0.229309082031,0.087646484375,-0.0785522460938,0.966186523438
29578105645,-0.228149414062,0.0808715820312,-0.0842895507812,0.966552734375
29578120040,-0.226501464844,0.07470703125,-0.089599609375,0.966979980469
29578143195,-0.225341796875,0.06884765625,-0.0946044921875,0.967224121094
29578165652,-0.224243164062,0.063232421875,-0.0994873046875,0.967346191406
29578179995,-0.22314453125,0.0578002929688,-0.104309082031,0.967468261719
29578203209,-0.221984863281,0.0524291992188,-0.109130859375,0.967468261719
29578225691,-0.219970703125,0.0472412109375,-0.114013671875,0.967651367188
29578239996,-0.218078613281,0.0421752929688,-0.119018554688,0.967712402344
29578263138,-0.217407226562,0.037353515625,-0.123840332031,0.967468261719
29578285662,-0.21728515625,0.0327758789062,-0.127868652344,0.967102050781
29578300021,-0.217712402344,0.0283203125,-0.131530761719,0.966674804688
29578323166,-0.218872070312,0.02392578125,-0.135375976562,0.966003417969
29578345694,-0.220092773438,0.0198974609375,-0.139099121094,0.965270996094
29578366847,-0.221740722656,0.0159912109375,-0.142395019531,0.964477539062
29578383172,-0.22265625,0.01220703125,-0.145202636719,0.963928222656
29578405640,-0.22265625,0.00848388671875,-0.14794921875,0.963562011719
29578426771,-0.222106933594,0.005126953125,-0.15087890625,0.963256835938
29578443196,-0.222351074219,0.0020751953125,-0.153503417969,0.962768554688
29578465648,-0.22314453125,-0.000732421875,-0.155456542969,0.962280273438
29578488194,-0.224426269531,-0.0029296875,-0.157104492188,0.961730957031
29578503164,-0.225158691406,-0.0047607421875,-0.158630371094,0.961303710938
29578525649,-0.220947265625,-0.00579833984375,-0.160278320312,0.961975097656
29578546978,-0.222534179688,-0.00689697265625,-0.161560058594,0.96142578125
29578563197,-0.22314453125,-0.00762939453125,-0.162170410156,0.961120605469
29578585660,-0.2236328125,-0.00787353515625,-0.162353515625,0.960998535156
29578606730,-0.224609375,-0.0081787109375,-0.162658691406,0.960754394531
29578623150,-0.225158691406,-0.00897216796875,-0.162841796875,0.960571289062
29578645668,-0.224731445312,-0.00994873046875,-0.163330078125,0.960571289062
29578666968,-0.223815917969,-0.0111083984375,-0.163818359375,0.960693359375
29578683213,-0.22265625,-0.0126953125,-0.164489746094,0.960815429688
29578705694,-0.221496582031,-0.014892578125,-0.165710449219,0.960876464844
29578726736,-0.221069335938,-0.0172729492188,-0.167175292969,0.960632324219
29578743188,-0.2197265625,-0.0206298828125,-0.169311523438,0.960510253906
29578765624,-0.220336914062,-0.022705078125,-0.170593261719,0.960083007812
29578786821,-0.220397949219,-0.0238647460938,-0.170776367188,0.960021972656
29578803223,-0.216735839844,-0.0252685546875,-0.171020507812,0.960815429688
