29531177152,-0.349670410156,-0.00604248046875,-0.037841796875,0.936096191406
29531192164,-0.350219726562,-0.005859375,-0.0377197265625,0.935852050781
29531216002,-0.350891113281,-0.005859375,-0.037841796875,0.935607910156
29531236971,-0.350952148438,-0.011474609375,-0.03857421875,0.935485839844
29531260186,-0.351806640625,-0.00482177734375,-0.0359497070312,0.935363769531
29531275827,-0.353454589844,-0.000244140625,-0.0342407226562,0.934814453125
29531297142,-0.359008789062,0.00775146484375,-0.0311889648438,0.932739257812
29531320894,-0.359802246094,0.00836181640625,-0.0309448242188,0.932434082031
29531365857,-0.355773925781,0.00146484375,-0.03369140625,0.933959960938
29531374852,-0.354309082031,-0.000244140625,-0.0343627929688,0.934448242188
29531375522,-0.355102539062,0.00274658203125,-0.0333251953125,0.934204101562
29531388474,-0.361083984375,0.0107421875,-0.0302124023438,0.931945800781
29531410832,-0.361694335938,0.0110473632812,-0.0301513671875,0.931701660156
29531428465,-0.361145019531,0.0078125,-0.0302734375,0.931945800781
29531450043,-0.361083984375,0.0076904296875,-0.0302124023438,0.932006835938
29531502130,-0.361022949219,0.00762939453125,-0.0302734375,0.932006835938
29531502807,-0.361022949219,0.007568359375,-0.0302734375,0.932006835938
29531509781,-0.360961914062,0.0074462890625,-0.0302734375,0.932067871094
29531529575,-0.361389160156,0.00445556640625,-0.0306396484375,0.931884765625
29531545787,-0.35888671875,-0.00457763671875,-0.0341186523438,0.932739257812
29531576473,-0.358947753906,-0.0048828125,-0.0342407226562,0.932678222656
29531597509,-0.357849121094,-0.006591796875,-0.034912109375,0.93310546875
29531613931,-0.356323242188,-0.00830078125,-0.0355834960938,0.93359375
29531636435,-0.3564453125,-0.00567626953125,-0.0347290039062,0.933654785156
29531657630,-0.362548828125,0.00238037109375,-0.031494140625,0.931396484375
29531673973,-0.36328125,0.00274658203125,-0.0313110351562,0.93115234375
29531696404,-0.3583984375,-0.00469970703125,-0.0343017578125,0.932922363281
29531717504,-0.352722167969,-0.00994873046875,-0.0365600585938,0.934936523438
29531733965,-0.351867675781,-0.0167846679688,-0.03857421875,0.935119628906
29531756475,-0.351318359375,-0.016845703125,-0.0391845703125,0.935241699219
29531777573,-0.351196289062,-0.0164794921875,-0.0391845703125,0.935302734375
29531793941,-0.350830078125,-0.0162353515625,-0.0391235351562,0.935485839844
29531816444,-0.350524902344,-0.0160522460938,-0.0391235351562,0.935607910156
29531837566,-0.350219726562,-0.015869140625,-0.0390625,0.935668945312
29531853939,-0.349853515625,-0.0156860351562,-0.0390625,0.935852050781
29531876469,-0.349548339844,-0.0155029296875,-0.0390014648438,0.935974121094
29531898924,-0.349243164062,-0.0153198242188,-0.0390014648438,0.936096191406
29531913907,-0.348815917969,-0.0151977539062,-0.0390014648438,0.936218261719
29531936455,-0.348510742188,-0.0150756835938,-0.0390625,0.936340332031
29531958985,-0.348266601562,-0.0150146484375,-0.0391845703125,0.936462402344
29531973930,-0.34814453125,-0.014892578125,-0.0392456054688,0.936462402344
29531996467,-0.347900390625,-0.0148315429688,-0.0392456054688,0.936584472656
29532018933,-0.347351074219,-0.0147705078125,-0.039306640625,0.936767578125
29532033293,-0.346618652344,-0.0147705078125,-0.0394287109375,0.93701171875
29532056482,-0.345886230469,-0.0147705078125,-0.0394897460938,0.937316894531
29532078986,-0.345031738281,-0.0147705078125,-0.0396118164062,0.937622070312
29532093277,-0.344482421875,-0.0147705078125,-0.0396728515625,0.937805175781
29532116458,-0.344055175781,-0.0148315429688,-0.0397338867188,0.93798828125
29532138930,-0.34375,-0.0147705078125,-0.039794921875,0.938049316406
29532153292,-0.343383789062,-0.0147094726562,-0.0398559570312,0.938232421875
29532176413,-0.343017578125,-0.0147094726562,-0.0399169921875,0.938354492188
29532198924,-0.342651367188,-0.0146484375,-0.0399780273438,0.9384765625
29532213296,-0.342346191406,-0.0145263671875,-0.0400390625,0.938598632812
29532236429,-0.342346191406,-0.0144653320312,-0.0400390625,0.938598632812
29532258977,-0.342346191406,-0.0144653320312,-0.0400390625,0.938598632812
29532273291,-0.34228515625,-0.0142211914062,-0.0401000976562,0.938598632812
29532296446,-0.342346191406,-0.0137329101562,-0.0400390625,0.938598632812
29532318886,-0.34228515625,-0.012939453125,-0.0397338867188,0.938659667969
29532333317,-0.342468261719,-0.0117797851562,-0.0392456054688,0.938598632812
29532356493,-0.342529296875,-0.01025390625,-0.0383911132812,0.938659667969
29532369443,-0.342529296875,-0.00836181640625,-0.0375366210938,0.938720703125
29532384477,-0.342651367188,-0.00634765625,-0.03662109375,0.938720703125
29532406865,-0.341796875,-0.00347900390625,-0.03515625,0.939086914062
29532429335,-0.340270996094,-0.00042724609375,-0.0333251953125,0.939697265625
29532444432,-0.337768554688,0.00299072265625,-0.0313110351562,0.940673828125
29532466924,-0.335205078125,0.0069580078125,-0.0288696289062,0.941650390625
29532489476,-0.332580566406,0.0111083984375,-0.0263671875,0.942626953125
29532505801,-0.327575683594,0.015869140625,-0.0240478515625,0.9443359375
29532526884,-0.323791503906,0.0213012695312,-0.0230102539062,0.945556640625
29532549301,-0.324340820312,0.0276489257812,-0.0203247070312,0.9453125
29532564565,-0.328491210938,0.03466796875,-0.0171508789062,0.943664550781
29532586993,-0.334838867188,0.0426025390625,-0.0137939453125,0.941223144531
29532609333,-0.342041015625,0.0515747070312,-0.00982666015625,0.938232421875
29532624333,-0.350341796875,0.0611572265625,-0.00506591796875,0.9345703125
29532646949,-0.358825683594,0.0713500976562,0.000732421875,0.9306640625
29532669394,-0.367248535156,0.08154296875,0.00726318359375,0.926513671875
29532684476,-0.375671386719,0.0921630859375,0.0147094726562,0.921997070312
29532706925,-0.385681152344,0.102905273438,0.0230102539062,0.916564941406
29532729578,-0.396911621094,0.113586425781,0.0325317382812,0.910217285156
29532744514,-0.409240722656,0.123962402344,0.0437622070312,0.902893066406
29532766922,-0.422180175781,0.133972167969,0.056640625,0.894714355469
29532789368,-0.4345703125,0.143493652344,0.0701904296875,0.886352539062
29532804412,-0.445129394531,0.152587890625,0.0841674804688,0.878356933594
29532826927,-0.453857421875,0.161071777344,0.0980224609375,0.870849609375
29532849398,-0.460083007812,0.169372558594,0.111389160156,0.864379882812
29532864431,-0.466003417969,0.177673339844,0.124755859375,0.857727050781
29532886929,-0.472290039062,0.185913085938,0.138671875,0.850341796875
29532909332,-0.479125976562,0.193664550781,0.153015136719,0.842346191406
29532924392,-0.484191894531,0.200805664062,0.167053222656,0.835083007812
29532946948,-0.489318847656,0.207336425781,0.180908203125,0.827514648438
29532969454,-0.494445800781,0.213745117188,0.194396972656,0.819763183594
29532985741,-0.498413085938,0.220092773438,0.207458496094,0.812438964844
29533006860,-0.500061035156,0.226196289062,0.219421386719,0.806579589844
29533029369,-0.500915527344,0.232177734375,0.229919433594,0.801391601562
29533045803,-0.502258300781,0.238098144531,0.23974609375,0.795959472656
29533066966,-0.502990722656,0.244140625,0.249328613281,0.790710449219
29533089326,-0.502990722656,0.249938964844,0.257934570312,0.786071777344
29533105777,-0.502868652344,0.255615234375,0.265686035156,0.78173828125
29533126957,-0.502380371094,0.260681152344,0.273193359375,0.777770996094
29533149279,-0.501403808594,0.265563964844,0.280578613281,0.774169921875
29533165741,-0.500610351562,0.270080566406,0.287658691406,0.7705078125
29533186922,-0.499877929688,0.274169921875,0.294311523438,0.767028808594
29533209503,-0.499328613281,0.277893066406,0.30078125,0.763488769531
29533225779,-0.498718261719,0.28125,0.306823730469,0.76025390625
29533246913,-0.498168945312,0.284240722656,0.312194824219,0.75732421875
29533269388,-0.498168945312,0.286682128906,0.3173828125,0.754211425781
29533285742,-0.497985839844,0.288696289062,0.322265625,0.751525878906
29533306935,-0.497253417969,0.290283203125,0.326965332031,0.749328613281
29533329388,-0.496520996094,0.291015625,0.331115722656,0.747741699219
29533347178,-0.495483398438,0.291870117188,0.335021972656,0.746337890625
29533366940,-0.49462890625,0.292419433594,0.338928222656,0.744934082031
29533389421,-0.495178222656,0.291809082031,0.342468261719,0.7431640625
29533407232,-0.495361328125,0.291198730469,0.346008300781,0.74169921875
29533426981,-0.495178222656,0.290100097656,0.349243164062,0.740661621094
29533449401,-0.494079589844,0.289245605469,0.352600097656,0.740173339844
29533467217,-0.492797851562,0.288330078125,0.355712890625,0.739929199219
29533486989,-0.491394042969,0.287048339844,0.358825683594,0.739807128906
29533504738,-0.489990234375,0.286193847656,0.361999511719,0.739501953125
29533527200,-0.48876953125,0.285278320312,0.365112304688,0.739196777344
29533546887,-0.487731933594,0.283813476562,0.368103027344,0.738952636719
29533564732,-0.486755371094,0.282409667969,0.370483398438,0.738891601562
29533587253,-0.485046386719,0.282348632812,0.372192382812,0.739196777344
29533606926,-0.483093261719,0.281982421875,0.374206542969,0.739624023438
29533624705,-0.480773925781,0.281433105469,0.376525878906,0.740173339844
29533647213,-0.479614257812,0.280944824219,0.378723144531,0.739929199219
29533666960,-0.479736328125,0.280456542969,0.380920410156,0.738952636719
29533684714,-0.480224609375,0.279479980469,0.383056640625,0.737854003906
29533707255,-0.479675292969,0.278991699219,0.384704589844,0.737609863281
29533726920,-0.4775390625,0.279113769531,0.385498046875,0.738525390625
29533746150,-0.474731445312,0.280395507812,0.385559082031,0.739807128906
29533767199,-0.474243164062,0.280639648438,0.38623046875,0.739685058594
29533786969,-0.4755859375,0.279174804688,0.387634277344,0.738586425781
29533804730,-0.477294921875,0.277526855469,0.388305664062,0.73779296875
29533827211,-0.477783203125,0.276489257812,0.388488769531,0.737731933594
29533846900,-0.479309082031,0.275329589844,0.388000488281,0.737487792969
29533864679,-0.479858398438,0.274230957031,0.388000488281,0.737487792969
29533887265,-0.480712890625,0.272827148438,0.387451171875,0.737731933594
29533906918,-0.48095703125,0.272705078125,0.386596679688,0.738098144531
29533924717,-0.481750488281,0.272583007812,0.385864257812,0.738037109375
29533947271,-0.482360839844,0.271301269531,0.386108398438,0.737976074219
29533967551,-0.481994628906,0.270812988281,0.386413574219,0.738220214844
29533983924,-0.482238769531,0.27099609375,0.386901855469,0.737731933594
29534006395,-0.482849121094,0.27001953125,0.388122558594,0.737060546875
29534027571,-0.481018066406,0.269348144531,0.388854980469,0.738098144531
29534043924,-0.476318359375,0.270141601562,0.38916015625,0.74072265625
29534066389,-0.472900390625,0.270812988281,0.389892578125,0.742248535156
29534087593,-0.471557617188,0.27001953125,0.391784667969,0.742370605469
29534103924,-0.471801757812,0.268249511719,0.394287109375,0.741577148438
29534126423,-0.4716796875,0.266784667969,0.396240234375,0.741149902344
29534147431,-0.470642089844,0.266723632812,0.396850585938,0.741455078125
29534163922,-0.470336914062,0.267272949219,0.397277832031,0.741271972656
29534186451,-0.470764160156,0.267211914062,0.398132324219,0.740539550781
29534207572,-0.470703125,0.267761230469,0.398559570312,0.740173339844
29534223914,-0.470886230469,0.268432617188,0.398864746094,0.739685058594
29534246415,-0.471496582031,0.268798828125,0.399475097656,0.738830566406
29534268921,-0.472229003906,0.268737792969,0.399719238281,0.738220214844
29534283923,-0.472045898438,0.26904296875,0.399536132812,0.738342285156
29534306433,-0.472290039062,0.269226074219,0.399169921875,0.73828125
29534328937,-0.472229003906,0.268127441406,0.399536132812,0.738525390625
29534343920,-0.472412109375,0.266967773438,0.399353027344,0.738891601562
29534366434,-0.472534179688,0.266784667969,0.398681640625,0.7392578125
29534388920,-0.473266601562,0.265869140625,0.398254394531,0.739379882812
29534403925,-0.474487304688,0.265380859375,0.397705078125,0.739074707031
29534426420,-0.475646972656,0.264465332031,0.397094726562,0.738952636719
29534448922,-0.476745605469,0.263977050781,0.396057128906,0.739013671875
29534463217,-0.477233886719,0.263732910156,0.395385742188,0.739135742188
29534486422,-0.478149414062,0.263488769531,0.39501953125,0.738830566406
29534508930,-0.479797363281,0.263061523438,0.394775390625,0.737976074219
29534523246,-0.481689453125,0.262634277344,0.394104003906,0.7373046875
29534546426,-0.483215332031,0.262451171875,0.393188476562,0.736877441406
29534568920,-0.483825683594,0.26220703125,0.392333984375,0.736999511719
29534583245,-0.485107421875,0.261962890625,0.391418457031,0.736755371094
29534606394,-0.485656738281,0.262084960938,0.390747070312,0.736694335938
29534628921,-0.486083984375,0.262145996094,0.39013671875,0.736694335938
29534643245,-0.486206054688,0.26220703125,0.389770507812,0.73681640625
29534666396,-0.486328125,0.262084960938,0.389526367188,0.736877441406
29534688979,-0.487060546875,0.261291503906,0.389343261719,0.73681640625
29534703269,-0.487609863281,0.2607421875,0.388977050781,0.73681640625
29534726417,-0.488098144531,0.259948730469,0.388671875,0.736938476562
29534748933,-0.488342285156,0.259460449219,0.388488769531,0.737060546875
29534770053,-0.488952636719,0.258728027344,0.388366699219,0.736938476562
29534786513,-0.489318847656,0.258117675781,0.388305664062,0.736938476562
29534808922,-0.489379882812,0.25830078125,0.387939453125,0.737060546875
29534830076,-0.489196777344,0.259094238281,0.387451171875,0.737182617188
29534846369,-0.488952636719,0.260131835938,0.387023925781,0.737182617188
29534868924,-0.49072265625,0.26025390625,0.386901855469,0.736022949219
29534890056,-0.492858886719,0.260620117188,0.38720703125,0.734313964844
29534906421,-0.494445800781,0.261596679688,0.386840820312,0.733032226562
29534928943,-0.494506835938,0.263916015625,0.385131835938,0.733093261719
29534950165,-0.495056152344,0.266479492188,0.381713867188,0.733642578125
29534966393,-0.498168945312,0.267517089844,0.378112792969,0.732971191406
29534988924,-0.500671386719,0.268920898438,0.374084472656,0.732788085938
29535010079,-0.501586914062,0.270141601562,0.367797851562,0.734924316406
29535025750,-0.498779296875,0.273010253906,0.358947753906,0.740112304688
29535048943,-0.49560546875,0.275329589844,0.348876953125,0.746215820312
29535070045,-0.492248535156,0.277099609375,0.339294433594,0.752136230469
29535086391,-0.489196777344,0.277160644531,0.329833984375,0.75830078125
29535110327,-0.485534667969,0.276733398438,0.319458007812,0.765197753906
29535130072,-0.481323242188,0.276550292969,0.308166503906,0.772521972656
29535145815,-0.478149414062,0.275329589844,0.296264648438,0.779602050781
29535168916,-0.474853515625,0.273681640625,0.283935546875,0.786682128906
29535197578,-0.47119140625,0.271545410156,0.271118164062,0.794128417969
29535205726,-0.465209960938,0.269348144531,0.256958007812,0.803100585938
29535228969,-0.456909179688,0.267517089844,0.241638183594,0.813171386719
29535251422,-0.449157714844,0.264831542969,0.225891113281,0.822814941406
29535265768,-0.443786621094,0.260681152344,0.210693359375,0.8310546875
29535288923,-0.439819335938,0.255065917969,0.195739746094,0.838562011719
29535311414,-0.435241699219,0.248229980469,0.179870605469,0.846496582031
29535325716,-0.427429199219,0.241333007812,0.163146972656,0.855773925781
29535349013,-0.417846679688,0.234008789062,0.146240234375,0.865600585938
29535371425,-0.409790039062,0.225646972656,0.129699707031,0.874206542969
29535385749,-0.403686523438,0.21630859375,0.113464355469,0.881652832031
29535408928,-0.395751953125,0.206848144531,0.097900390625,0.889343261719
29535431369,-0.386962890625,0.197326660156,0.0830078125,0.896850585938
29535445679,-0.380554199219,0.188049316406,0.0687866210938,0.902770996094
29535468971,-0.376281738281,0.178405761719,0.0554809570312,0.907470703125
29535491370,-0.372924804688,0.168273925781,0.04345703125,0.911437988281
29535512516,-0.369567871094,0.158203125,0.0322875976562,0.9150390625
29535528956,-0.365844726562,0.149047851562,0.0216064453125,0.918395996094
29535551399,-0.361267089844,0.140441894531,0.0114135742188,0.921752929688
29535572714,-0.355407714844,0.131958007812,0.0018310546875,0.925354003906
29535588916,-0.348937988281,0.123901367188,-0.007080078125,0.928833007812
29535611396,-0.344177246094,0.116271972656,-0.0150146484375,0.931518554688
29535632545,-0.340148925781,0.109069824219,-0.0216064453125,0.933776855469
29535648946,-0.335998535156,0.102172851562,-0.0272827148438,0.935913085938
29535671370,-0.332153320312,0.095458984375,-0.0322265625,0.937805175781
29535692670,-0.328430175781,0.0892333984375,-0.0366821289062,0.939575195312
29535708975,-0.324157714844,0.0833129882812,-0.0409545898438,0.94140625
29535731374,-0.319946289062,0.0775756835938,-0.0452270507812,0.943176269531
29535753919,-0.316101074219,0.0721435546875,-0.048828125,0.944702148438
29535768920,-0.312744140625,0.0670166015625,-0.051513671875,0.946044921875
29535791378,-0.309997558594,0.0618286132812,-0.0538330078125,0.947204589844
29535812620,-0.307739257812,0.0567626953125,-0.0560913085938,0.948120117188
29535828939,-0.30517578125,0.0519409179688,-0.0581665039062,0.949096679688
29535851376,-0.302917480469,0.04736328125,-0.0603637695312,0.949890136719
29535872564,-0.300720214844,0.0430908203125,-0.0628051757812,0.950622558594
29535888924,-0.29833984375,0.038818359375,-0.065185546875,0.951416015625
29535911429,-0.296875,0.0347290039062,-0.0675048828125,0.951843261719
29535932688,-0.296691894531,0.0308837890625,-0.0697021484375,0.951904296875
29535948930,-0.297729492188,0.0276489257812,-0.0704956054688,0.951599121094
29535971423,-0.298950195312,0.0243530273438,-0.072265625,0.951171875
29535992634,-0.30126953125,0.0214233398438,-0.0730590820312,0.950439453125
29536008891,-0.304565429688,0.0195922851562,-0.0734252929688,0.949462890625
29536031351,-0.308532714844,0.0186157226562,-0.072509765625,0.9482421875
29536052652,-0.310302734375,0.017578125,-0.072021484375,0.947692871094
29536068925,-0.308715820312,0.016357421875,-0.0718994140625,0.9482421875
29536091374,-0.305603027344,0.01513671875,-0.072021484375,0.949279785156
29536112505,-0.303283691406,0.0138549804688,-0.0720825195312,0.950073242188
29536128917,-0.301940917969,0.0125122070312,-0.072021484375,0.950500488281
29536151403,-0.301086425781,0.0111694335938,-0.0718383789062,0.950805664062
29536173902,-0.299865722656,0.00970458984375,-0.0715942382812,0.951232910156
29536188910,-0.29833984375,0.00830078125,-0.0713500976562,0.951721191406
29536211356,-0.297546386719,0.00677490234375,-0.0708618164062,0.952026367188
29536233915,-0.296997070312,0.00494384765625,-0.070068359375,0.952270507812
29536248219,-0.29443359375,0.0030517578125,-0.0689697265625,0.953125
29536271369,-0.290344238281,0.0010986328125,-0.0682373046875,0.954467773438
29536293929,-0.285339355469,0.0,-0.06787109375,0.955993652344
29536315164,-0.281311035156,-0.0006103515625,-0.0676879882812,0.957214355469
29536331398,-0.278930664062,-0.0010986328125,-0.0675048828125,0.957946777344
29536353927,-0.276977539062,-0.002197265625,-0.0672607421875,0.95849609375
29536368216,-0.274719238281,-0.0037841796875,-0.0670166015625,0.959167480469
