29680238300,-0.322021484375,0.0474853515625,-0.214416503906,0.9208984375
29680259473,-0.322021484375,0.0474853515625,-0.214416503906,0.9208984375
29680274535,-0.323059082031,0.0419311523438,-0.214904785156,0.920715332031
29680298352,-0.322387695312,0.04736328125,-0.212890625,0.921142578125
29680319664,-0.322570800781,0.0484619140625,-0.212524414062,0.921081542969
29680334567,-0.323486328125,0.0506591796875,-0.211730957031,0.920837402344
29680358269,-0.326049804688,0.053466796875,-0.210571289062,0.920043945312
29680379785,-0.323486328125,0.0458374023438,-0.213256835938,0.920715332031
29680424674,-0.322570800781,0.0443115234375,-0.213806152344,0.921020507812
29680435304,-0.323791503906,0.0496215820312,-0.212097167969,0.920715332031
29680440435,-0.324829101562,0.0516357421875,-0.211364746094,0.92041015625
29680455296,-0.325134277344,0.04931640625,-0.212097167969,0.920227050781
29680479021,-0.325622558594,0.0488891601562,-0.211669921875,0.920227050781
29680493347,-0.325256347656,0.0479125976562,-0.211364746094,0.92041015625
29680536938,-0.325256347656,0.0479125976562,-0.211364746094,0.920471191406
29680547204,-0.3251953125,0.0479125976562,-0.21142578125,0.920471191406
29680553287,-0.3251953125,0.0479125976562,-0.21142578125,0.920471191406
29680575129,-0.325012207031,0.0474243164062,-0.212158203125,0.920349121094
29680597716,-0.32275390625,0.043212890625,-0.213256835938,0.921142578125
29680621422,-0.321960449219,0.041015625,-0.213989257812,0.921325683594
29680635825,-0.3212890625,0.039794921875,-0.214416503906,0.921508789062
29680658955,-0.322509765625,0.0453491210938,-0.212524414062,0.921264648438
29680681430,-0.323486328125,0.0474243164062,-0.211791992188,0.920959472656
29680695789,-0.324096679688,0.0457153320312,-0.212341308594,0.920715332031
29680718922,-0.3203125,0.036865234375,-0.215515136719,0.921752929688
29680741441,-0.319885253906,0.0364990234375,-0.215637207031,0.921875
29680755784,-0.323059082031,0.0448608398438,-0.212646484375,0.921081542969
29680778932,-0.323059082031,0.0477905273438,-0.211791992188,0.921142578125
29680801449,-0.321533203125,0.0490112304688,-0.212280273438,0.921508789062
29680815821,-0.321533203125,0.0490112304688,-0.212280273438,0.921508789062
29680838940,-0.321411132812,0.049072265625,-0.212524414062,0.921447753906
29680861421,-0.321472167969,0.0492553710938,-0.212524414062,0.921447753906
29680875844,-0.320495605469,0.0497436523438,-0.212524414062,0.921752929688
29680899066,-0.319396972656,0.0497436523438,-0.212646484375,0.922119140625
29680921424,-0.317810058594,0.0494995117188,-0.213134765625,0.922546386719
29680935779,-0.316284179688,0.049072265625,-0.213562011719,0.922973632812
29680958975,-0.31494140625,0.0484008789062,-0.214050292969,0.923400878906
29680981440,-0.313110351562,0.0477294921875,-0.214599609375,0.923889160156
29681002547,-0.311340332031,0.046875,-0.215148925781,0.924438476562
29681018942,-0.309692382812,0.046142578125,-0.215698242188,0.924865722656
29681041423,-0.308776855469,0.0455932617188,-0.216247558594,0.925109863281
29681062629,-0.308471679688,0.045166015625,-0.216674804688,0.925109863281
29681078970,-0.30810546875,0.0446166992188,-0.217163085938,0.925109863281
29681101420,-0.307495117188,0.0438842773438,-0.2177734375,0.925231933594
29681122576,-0.306640625,0.0430297851562,-0.218322753906,0.925415039062
29681138970,-0.305541992188,0.0421142578125,-0.219116210938,0.925659179688
29681161454,-0.304382324219,0.0410766601562,-0.220092773438,0.925842285156
29681182587,-0.303588867188,0.0398559570312,-0.22119140625,0.925903320312
29681198916,-0.302551269531,0.0386352539062,-0.222351074219,0.926025390625
29681221443,-0.30078125,0.0372924804688,-0.223571777344,0.926330566406
29681242604,-0.298767089844,0.0358276367188,-0.224914550781,0.9267578125
29681258941,-0.296691894531,0.0343627929688,-0.226257324219,0.927124023438
29681281437,-0.294372558594,0.032958984375,-0.227661132812,0.927551269531
29681302531,-0.29248046875,0.0315551757812,-0.228942871094,0.927917480469
29681318948,-0.290832519531,0.0304565429688,-0.230163574219,0.928161621094
29681341428,-0.289428710938,0.0293579101562,-0.231262207031,0.928344726562
29681362660,-0.288024902344,0.0283203125,-0.232360839844,0.928527832031
29681378968,-0.286560058594,0.0272216796875,-0.233459472656,0.928771972656
29681401412,-0.284729003906,0.0262451171875,-0.234436035156,0.929077148438
29681422578,-0.282958984375,0.0253295898438,-0.2353515625,0.929443359375
29681438945,-0.28125,0.0244750976562,-0.236267089844,0.929748535156
29681461456,-0.279907226562,0.0235595703125,-0.237121582031,0.929992675781
29681483919,-0.278564453125,0.0227661132812,-0.237915039062,0.93017578125
29681498973,-0.277160644531,0.0219116210938,-0.238830566406,0.930419921875
29681527678,-0.275634765625,0.0210571289062,-0.239807128906,0.930603027344
29681543942,-0.274230957031,0.02001953125,-0.240783691406,0.930786132812
29681566470,-0.272827148438,0.01904296875,-0.241821289062,0.930969238281
29681587558,-0.271667480469,0.01806640625,-0.242736816406,0.931091308594
29681603941,-0.270202636719,0.0170288085938,-0.24365234375,0.931274414062
29681626417,-0.268676757812,0.0159301757812,-0.244689941406,0.931457519531
29681647648,-0.267150878906,0.0149536132812,-0.245666503906,0.931701660156
29681663942,-0.265930175781,0.01416015625,-0.24658203125,0.931762695312
29681686417,-0.264465332031,0.0133666992188,-0.247680664062,0.931945800781
29681707518,-0.262878417969,0.0125732421875,-0.248779296875,0.932067871094
29681723923,-0.261169433594,0.0118408203125,-0.249877929688,0.932312011719
29681746448,-0.25927734375,0.01123046875,-0.251037597656,0.932495117188
29681767634,-0.257446289062,0.0107421875,-0.252136230469,0.932739257812
29681783912,-0.25537109375,0.0104370117188,-0.253234863281,0.933044433594
29681806405,-0.253479003906,0.0103149414062,-0.254089355469,0.933288574219
29681827628,-0.25146484375,0.0101928710938,-0.254821777344,0.933654785156
29681843957,-0.250061035156,0.0103759765625,-0.255493164062,0.933837890625
29681866441,-0.249206542969,0.0108642578125,-0.255981445312,0.933898925781
29681887573,-0.24853515625,0.011474609375,-0.256530761719,0.933959960938
29681903296,-0.247619628906,0.01171875,-0.257019042969,0.934020996094
29681926450,-0.245849609375,0.01171875,-0.257568359375,0.934387207031
29681948927,-0.244079589844,0.01171875,-0.258178710938,0.934692382812
29681963952,-0.242553710938,0.0117797851562,-0.2587890625,0.934875488281
29681993942,-0.242309570312,0.0120239257812,-0.259399414062,0.934814453125
29682008963,-0.242004394531,0.01220703125,-0.259826660156,0.934753417969
29682023944,-0.241333007812,0.01220703125,-0.26025390625,0.934814453125
29682046408,-0.239807128906,0.0121459960938,-0.260498046875,0.935119628906
29682051903,-0.238708496094,0.0120849609375,-0.260803222656,0.935302734375
29682074452,-0.23828125,0.0123291015625,-0.261352539062,0.935302734375
29682089553,-0.238037109375,0.0126342773438,-0.262023925781,0.935119628906
29682111949,-0.237731933594,0.0134887695312,-0.262268066406,0.935119628906
29682134419,-0.237365722656,0.014404296875,-0.26220703125,0.935241699219
29682149503,-0.237121582031,0.0155639648438,-0.262329101562,0.935241699219
29682172058,-0.237487792969,0.0171508789062,-0.26220703125,0.935180664062
29682197269,-0.238098144531,0.0187377929688,-0.262084960938,0.934997558594
29682209331,-0.238464355469,0.0199584960938,-0.261840820312,0.934936523438
29682231998,-0.238098144531,0.0206909179688,-0.261596679688,0.935119628906
29682254526,-0.236450195312,0.0223388671875,-0.26123046875,0.935607910156
29682269495,-0.236694335938,0.0244750976562,-0.2607421875,0.935607910156
29682291838,-0.237731933594,0.0278930664062,-0.259521484375,0.935607910156
29682314456,-0.239074707031,0.031982421875,-0.257934570312,0.935546875
29682330829,-0.24072265625,0.0364990234375,-0.256164550781,0.935424804688
29682351948,-0.242980957031,0.0415649414062,-0.254211425781,0.935180664062
29682374454,-0.244995117188,0.0466918945312,-0.252075195312,0.934997558594
29682390805,-0.246398925781,0.051513671875,-0.249938964844,0.934936523438
29682412087,-0.246215820312,0.0576171875,-0.246887207031,0.935485839844
29682434516,-0.246520996094,0.0645751953125,-0.243469238281,0.935852050781
29682450774,-0.246643066406,0.0704345703125,-0.240173339844,0.936218261719
29682471848,-0.246276855469,0.0772705078125,-0.236999511719,0.936584472656
29682494436,-0.245727539062,0.0845947265625,-0.233581542969,0.936950683594
29682509471,-0.245483398438,0.09228515625,-0.229919433594,0.937194824219
29682531966,-0.245910644531,0.100524902344,-0.225952148438,0.937194824219
29682554378,-0.246765136719,0.109313964844,-0.221496582031,0.937072753906
29682570774,-0.248229980469,0.118774414062,-0.216552734375,0.936645507812
29682591890,-0.250366210938,0.129028320312,-0.211242675781,0.935974121094
29682614424,-0.2529296875,0.139831542969,-0.205383300781,0.934997558594
29682630749,-0.256164550781,0.151184082031,-0.198852539062,0.933776855469
29682651823,-0.260070800781,0.162841796875,-0.19189453125,0.932189941406
29682674459,-0.264282226562,0.174743652344,-0.184265136719,0.930358886719
29682692227,-0.268676757812,0.18701171875,-0.176025390625,0.928344726562
29682711936,-0.273010253906,0.199157714844,-0.167236328125,0.926147460938
29682734444,-0.27734375,0.210998535156,-0.158325195312,0.923828125
29682752193,-0.281494140625,0.222473144531,-0.149169921875,0.92138671875
29682771973,-0.285339355469,0.233947753906,-0.139831542969,0.918823242188
29682794265,-0.289489746094,0.2451171875,-0.130249023438,0.916015625
29682810736,-0.292785644531,0.255798339844,-0.120788574219,0.913330078125
29682831919,-0.297058105469,0.266540527344,-0.110900878906,0.91015625
29682854447,-0.300537109375,0.277099609375,-0.100219726562,0.907104492188
29682872222,-0.304016113281,0.286926269531,-0.0892333984375,0.903991699219
29682891901,-0.307434082031,0.296142578125,-0.0787353515625,0.900817871094
29682914344,-0.31201171875,0.305297851562,-0.0679321289062,0.897094726562
29682932218,-0.316955566406,0.315063476562,-0.0563354492188,0.892761230469
29682951921,-0.322082519531,0.323852539062,-0.044677734375,0.888427734375
29682974446,-0.326232910156,0.331909179688,-0.0333862304688,0.884460449219
29682992237,-0.33056640625,0.340637207031,-0.0217895507812,0.8798828125
29683011890,-0.336486816406,0.347229003906,-0.0100708007812,0.875244140625
29683034420,-0.341918945312,0.353820800781,0.000732421875,0.870544433594
29683052228,-0.345397949219,0.363037109375,0.010009765625,0.865295410156
29683071924,-0.34716796875,0.372619628906,0.0208740234375,0.8603515625
29683094447,-0.349487304688,0.380310058594,0.0316772460938,0.855651855469
29683112194,-0.352355957031,0.387329101562,0.0398559570312,0.850952148438
29683131913,-0.35400390625,0.39501953125,0.0472412109375,0.846374511719
29683154431,-0.354919433594,0.402954101562,0.0556030273438,0.841735839844
29683172238,-0.357727050781,0.410217285156,0.0650024414062,0.836364746094
29683191944,-0.363342285156,0.415954589844,0.0745239257812,0.830261230469
29683214467,-0.369750976562,0.421691894531,0.0835571289062,0.823669433594
29683232194,-0.37548828125,0.427307128906,0.092041015625,0.817260742188
29683251942,-0.380432128906,0.432495117188,0.0995483398438,0.811279296875
29683274381,-0.384338378906,0.437561035156,0.106872558594,0.805786132812
29683292230,-0.388488769531,0.442810058594,0.113586425781,0.800048828125
29683311806,-0.391906738281,0.447875976562,0.118957519531,0.794738769531
29683334385,-0.393798828125,0.453063964844,0.121948242188,0.790405273438
29683352184,-0.393005371094,0.458618164062,0.122985839844,0.787414550781
29683374710,-0.391784667969,0.464416503906,0.123901367188,0.784484863281
29683389729,-0.391845703125,0.469665527344,0.125549316406,0.781066894531
29683412197,-0.393676757812,0.474426269531,0.128112792969,0.776794433594
29683431983,-0.39599609375,0.478149414062,0.130676269531,0.772888183594
29683449745,-0.397766113281,0.481567382812,0.132690429688,0.76953125
29683472182,-0.398864746094,0.484375,0.133911132812,0.767028808594
29683491783,-0.399597167969,0.486999511719,0.134338378906,0.764892578125
29683509734,-0.399597167969,0.4892578125,0.134643554688,0.763366699219
29683532199,-0.39990234375,0.491149902344,0.134887695312,0.761962890625
29683553245,-0.401062011719,0.492736816406,0.13525390625,0.760314941406
29683569694,-0.402038574219,0.494201660156,0.135437011719,0.758728027344
29683592244,-0.403259277344,0.495483398438,0.135803222656,0.757202148438
29683613254,-0.404663085938,0.496459960938,0.136474609375,0.755737304688
29683628948,-0.406616210938,0.496765136719,0.136962890625,0.75439453125
29683651421,-0.408569335938,0.496337890625,0.136840820312,0.753601074219
29683672593,-0.410095214844,0.495361328125,0.136291503906,0.753540039062
29683688900,-0.411315917969,0.494750976562,0.136840820312,0.753173828125
29683711399,-0.4140625,0.49365234375,0.138610839844,0.752075195312
29683732631,-0.418334960938,0.492004394531,0.140441894531,0.750427246094
29683755052,-0.421997070312,0.490173339844,0.141418457031,0.749389648438
29683771405,-0.423400878906,0.489013671875,0.140258789062,0.749572753906
29683792574,-0.423583984375,0.487976074219,0.138793945312,0.750427246094
29683808244,-0.423583984375,0.487365722656,0.13671875,0.751220703125
29683831384,-0.423522949219,0.48681640625,0.135925292969,0.751708984375
29683853668,-0.424865722656,0.486145019531,0.136474609375,0.751281738281
29683868919,-0.427062988281,0.485290527344,0.13671875,0.750549316406
29683891402,-0.427795410156,0.484375,0.135986328125,0.750854492188
29683913920,-0.426879882812,0.484008789062,0.134643554688,0.751892089844
29683928695,-0.425842285156,0.483825683594,0.133544921875,0.752746582031
29683958980,-0.425964355469,0.4833984375,0.133178710938,0.753051757812
29683973925,-0.426513671875,0.482971191406,0.132995605469,0.753051757812
29683988927,-0.42724609375,0.482482910156,0.132751464844,0.752990722656
29684011404,-0.427490234375,0.482177734375,0.131896972656,0.753173828125
29684033916,-0.427429199219,0.482238769531,0.13134765625,0.753295898438
29684048293,-0.428100585938,0.482238769531,0.131164550781,0.7529296875
29684071411,-0.428894042969,0.482116699219,0.130798339844,0.752624511719
29684093920,-0.4287109375,0.482299804688,0.129943847656,0.752746582031
29684108239,-0.428588867188,0.482360839844,0.129089355469,0.752990722656
29684137528,-0.428405761719,0.482788085938,0.128356933594,0.7529296875
29684153918,-0.428588867188,0.482971191406,0.127746582031,0.752746582031
29684168291,-0.4287109375,0.482971191406,0.126953125,0.752868652344
29684191400,-0.428100585938,0.483093261719,0.126647949219,0.753173828125
29684213919,-0.428466796875,0.483215332031,0.127014160156,0.752807617188
29684228259,-0.429626464844,0.483032226562,0.126953125,0.752258300781
29684251439,-0.429626464844,0.483032226562,0.1259765625,0.75244140625
29684274543,-0.428833007812,0.483154296875,0.124694824219,0.753051757812
29684288218,-0.428344726562,0.483703613281,0.123779296875,0.753112792969
29684311920,-0.428649902344,0.48388671875,0.123474121094,0.752868652344
29684333919,-0.429382324219,0.484130859375,0.123229980469,0.752319335938
29684355060,-0.429809570312,0.484375,0.122741699219,0.752014160156
29684371376,-0.429626464844,0.484802246094,0.122375488281,0.751892089844
29684393918,-0.429809570312,0.485046386719,0.122436523438,0.751586914062
29684415039,-0.430236816406,0.485473632812,0.12255859375,0.751098632812
29684431391,-0.4306640625,0.485412597656,0.122314453125,0.750915527344
29684453952,-0.430236816406,0.485534667969,0.121520996094,0.751220703125
29684475051,-0.429443359375,0.485900878906,0.120666503906,0.751586914062
29684491411,-0.42919921875,0.485717773438,0.120300292969,0.751892089844
29684513959,-0.429748535156,0.485473632812,0.120544433594,0.751708984375
29684535076,-0.431030273438,0.485046386719,0.121337890625,0.751098632812
29684551402,-0.432067871094,0.484619140625,0.121520996094,0.750732421875
29684573918,-0.432434082031,0.484191894531,0.121032714844,0.750915527344
29684595056,-0.432006835938,0.484069824219,0.120361328125,0.751342773438
29684611369,-0.431884765625,0.484130859375,0.120178222656,0.751342773438
29684633917,-0.432312011719,0.48388671875,0.120056152344,0.751281738281
29684655047,-0.432861328125,0.483703613281,0.119812011719,0.751159667969
29684671418,-0.433166503906,0.483581542969,0.119567871094,0.751098632812
29684693921,-0.433288574219,0.4833984375,0.119201660156,0.751220703125
29684715057,-0.432922363281,0.483276367188,0.118591308594,0.751586914062
29684730743,-0.4326171875,0.48291015625,0.118103027344,0.752075195312
29684753975,-0.432495117188,0.482421875,0.117980957031,0.752502441406
29684775056,-0.432739257812,0.482177734375,0.118103027344,0.752502441406
29684791391,-0.432800292969,0.481811523438,0.117797851562,0.752746582031
29684813890,-0.432861328125,0.481506347656,0.117431640625,0.7529296875
29684836372,-0.432983398438,0.481140136719,0.117797851562,0.753051757812
29684851426,-0.433837890625,0.480773925781,0.118225097656,0.752746582031
29684873918,-0.434020996094,0.480529785156,0.118103027344,0.752807617188
29684896376,-0.433471679688,0.480346679688,0.117858886719,0.753295898438
29684911354,-0.432983398438,0.479797363281,0.117492675781,0.753967285156
29684941366,-0.432556152344,0.479309082031,0.117431640625,0.754516601562
29684956346,-0.432678222656,0.478759765625,0.117919921875,0.754699707031
29684970801,-0.432983398438,0.478393554688,0.118469238281,0.754699707031
29684993926,-0.433227539062,0.47802734375,0.119140625,0.754699707031
29685016372,-0.43310546875,0.477783203125,0.119201660156,0.7548828125
29685030696,-0.432312011719,0.477661132812,0.119201660156,0.755432128906
29685053920,-0.431457519531,0.477661132812,0.119201660156,0.755920410156
29685076435,-0.431091308594,0.477722167969,0.119995117188,0.755920410156
29685090697,-0.431335449219,0.477661132812,0.120788574219,0.755737304688
29685113915,-0.431091308594,0.477600097656,0.121520996094,0.755798339844
29685136465,-0.430480957031,0.477416992188,0.122375488281,0.756103515625
29685150745,-0.429931640625,0.477111816406,0.123291015625,0.756469726562
29685173914,-0.429077148438,0.476684570312,0.123779296875,0.757141113281
29685196399,-0.427856445312,0.4765625,0.123657226562,0.757934570312
29685218925,-0.42724609375,0.476989746094,0.123107910156,0.758117675781
29685233924,-0.425598144531,0.476867675781,0.121826171875,0.75927734375
29685256401,-0.423217773438,0.475952148438,0.119384765625,0.761596679688
29685277552,-0.419372558594,0.475402832031,0.116027832031,0.764587402344
29685293889,-0.415344238281,0.474914550781,0.113159179688,0.767517089844
29685316321,-0.411560058594,0.474182128906,0.110595703125,0.770385742188
29685345077,-0.408203125,0.472961425781,0.108154296875,0.773254394531
29685355312,-0.404541015625,0.470397949219,0.105041503906,0.777160644531
29685376371,-0.400512695312,0.467163085938,0.100646972656,0.781799316406
29685397565,-0.396301269531,0.463439941406,0.0957641601562,0.786743164062
29685413913,-0.391662597656,0.460083007812,0.0907592773438,0.791625976562
29685436447,-0.388732910156,0.456115722656,0.0858154296875,0.7958984375
29685457492,-0.38671875,0.450378417969,0.0805053710938,0.800659179688
29685473943,-0.382507324219,0.444030761719,0.0738525390625,0.806884765625
29685496404,-0.377319335938,0.43798828125,0.0668334960938,0.813171386719
29685525093,-0.373229980469,0.431884765625,0.0601196289062,0.81884765625
29685533919,-0.370910644531,0.425048828125,0.0531005859375,0.823913574219
29685556390,-0.368225097656,0.416931152344,0.0459594726562,0.829711914062
29685577564,-0.363586425781,0.408447265625,0.038818359375,0.836303710938
29685593928,-0.359619140625,0.399719238281,0.031494140625,0.842529296875
29685616375,-0.357543945312,0.39111328125,0.024658203125,0.84765625
29685637546,-0.356262207031,0.383178710938,0.0176391601562,0.851989746094
29685653241,-0.354797363281,0.375305175781,0.00982666015625,0.856201171875
29685676399,-0.351745605469,0.366455078125,0.0010986328125,0.861328125
29685697552,-0.345825195312,0.357116699219,-0.00872802734375,0.867614746094
29685713206,-0.33740234375,0.347839355469,-0.0198364257812,0.874450683594
29685736367,-0.32861328125,0.338012695312,-0.03173828125,0.881286621094
29685758969,-0.320251464844,0.327697753906,-0.0442504882812,0.8876953125
29685773212,-0.311462402344,0.317138671875,-0.0570678710938,0.893920898438
29685802404,-0.301818847656,0.305236816406,-0.069580078125,0.900451660156
29685818922,-0.292907714844,0.292724609375,-0.0821533203125,0.906494140625
29685833154,-0.28466796875,0.279602050781,-0.0945434570312,0.912048339844
29685856350,-0.277587890625,0.266723632812,-0.1064453125,0.916748046875
29685879339,-0.27099609375,0.253723144531,-0.117614746094,0.921020507812
29685893196,-0.265441894531,0.240173339844,-0.128112792969,0.924865722656
29685916332,-0.26025390625,0.226379394531,-0.138366699219,0.928344726562
29685938913,-0.255432128906,0.212158203125,-0.148742675781,0.931457519531
29685953221,-0.250183105469,0.198364257812,-0.158386230469,0.934326171875
29685976395,-0.243103027344,0.184448242188,-0.167236328125,0.9375
29685998942,-0.236328125,0.170532226562,-0.175842285156,0.940246582031
29686020205,-0.230041503906,0.157287597656,-0.184020996094,0.942565917969
29686036401,-0.225036621094,0.145141601562,-0.191528320312,0.944213867188
29686058946,-0.221801757812,0.133972167969,-0.197937011719,0.9453125
29686080086,-0.219848632812,0.123168945312,-0.203247070312,0.946105957031
29686096380,-0.217590332031,0.112670898438,-0.208190917969,0.946899414062
29686118966,-0.215515136719,0.102722167969,-0.213012695312,0.947387695312
29686140019,-0.213439941406,0.0935668945312,-0.217590332031,0.947814941406
29686156303,-0.21044921875,0.0853271484375,-0.221252441406,0.948364257812
29686178967,-0.207458496094,0.07763671875,-0.224304199219,0.948974609375
29686199914,-0.205200195312,0.0702514648438,-0.227172851562,0.949401855469
29686216342,-0.20361328125,0.0634765625,-0.230224609375,0.949462890625
29686238966,-0.202941894531,0.0576171875,-0.232727050781,0.949340820312
29686260067,-0.202758789062,0.0520629882812,-0.234802246094,0.94921875
29686276389,-0.202575683594,0.0467529296875,-0.236755371094,0.949035644531
29686298909,-0.202514648438,0.0420532226562,-0.238464355469,0.948852539062
29686320050,-0.202453613281,0.0377197265625,-0.239868164062,0.948669433594
29686336393,-0.202514648438,0.0333251953125,-0.241455078125,0.948425292969
29686358967,-0.202209472656,0.0288696289062,-0.2431640625,0.9482421875
29686380015,-0.201293945312,0.0247192382812,-0.244689941406,0.948120117188
29686396315,-0.200439453125,0.0208740234375,-0.246154785156,0.948059082031
29686418976,-0.200927734375,0.017578125,-0.24755859375,0.947631835938
29686440149,-0.202026367188,0.0145263671875,-0.248779296875,0.947143554688
29686456347,-0.203491210938,0.0116577148438,-0.250061035156,0.946533203125
29686478955,-0.205017089844,0.0089111328125,-0.251342773438,0.945861816406
29686500055,-0.206848144531,0.00616455078125,-0.252563476562,0.945190429688
29686516347,-0.208618164062,0.00274658203125,-0.253845214844,0.944458007812
29686538964,-0.211059570312,-0.00140380859375,-0.255554199219,0.943481445312
29686560187,-0.206420898438,-0.00091552734375,-0.255920410156,0.944396972656
29686576367,-0.206909179688,-0.00482177734375,-0.257934570312,0.943725585938
29686598786,-0.210693359375,-0.00567626953125,-0.259155273438,0.942565917969
29686620039,-0.214416503906,-0.00341796875,-0.257507324219,0.942138671875
29686635813,-0.213500976562,-0.00201416015625,-0.255615234375,0.94287109375
29686658958,-0.211853027344,-0.0023193359375,-0.255737304688,0.943237304688
29686681345,-0.212341308594,-0.00408935546875,-0.256469726562,0.942932128906
29686695663,-0.214233398438,-0.005126953125,-0.256896972656,0.9423828125
29686718926,-0.216186523438,-0.0040283203125,-0.255920410156,0.942199707031
29686741324,-0.217407226562,-0.00341796875,-0.255126953125,0.942138671875
29686756311,-0.216979980469,-0.004638671875,-0.254821777344,0.942321777344
29686778921,-0.215576171875,-0.0062255859375,-0.254577636719,0.942687988281
29686801320,-0.215087890625,-0.007080078125,-0.254516601562,0.942810058594
