0.0,-12.0,-4.0,0.0,2.0,2.0,3.0,-3.0
-8.0,-11.0,-8.0,-3.0,-1.0,-2.0,-3.0,-2.0
-5.0,-9.0,9.0,-1.0,2.0,-1.0,1.0,-1.0
1.0,-4.0,-12.0,-10.0,-12.0,-3.0,-3.0,-1.0
3.0,3.0,-27.0,2.0,5.0,2.0,-1.0,1.0
-2.0,21.0,10.0,2.0,-2.0,-4.0,0.0,-1.0
-12.0,-15.0,-3.0,-9.0,-10.0,-2.0,-2.0,-3.0
12.0,7.0,4.0,11.0,17.0,5.0,-1.0,-1.0
-1.0,0.0,3.0,-5.0,-7.0,-4.0,-2.0,-2.0
-8.0,-25.0,-9.0,-10.0,-7.0,-1.0,-2.0,-2.0
5.0,13.0,-2.0,8.0,-1.0,0.0,1.0,2.0
-4.0,-11.0,6.0,-2.0,-9.0,-3.0,-3.0,-2.0
3.0,12.0,5.0,2.0,-5.0,-2.0,-2.0,-1.0
3.0,0.0,-2.0,1.0,3.0,0.0,-1.0,0.0
1.0,9.0,-1.0,-2.0,1.0,-1.0,-1.0,0.0
-9.0,-14.0,-14.0,-7.0,-5.0,0.0,0.0,-3.0
2.0,3.0,19.0,0.0,0.0,0.0,1.0,1.0
-2.0,4.0,-12.0,2.0,4.0,2.0,2.0,-2.0
1.0,7.0,9.0,1.0,-8.0,-1.0,-1.0,-2.0
-1.0,-3.0,-3.0,-2.0,0.0,1.0,-1.0,-2.0
-1.0,20.0,9.0,3.0,-3.0,0.0,1.0,0.0
-3.0,-27.0,-9.0,-9.0,-6.0,-1.0,-2.0,0.0
-1.0,5.0,0.0,8.0,3.0,-2.0,-2.0,-1.0
-5.0,28.0,3.0,1.0,3.0,1.0,0.0,1.0
8.0,-28.0,12.0,-8.0,0.0,-4.0,0.0,-1.0
-6.0,7.0,-5.0,1.0,5.0,-2.0,1.0,-1.0
8.0,7.0,-7.0,-1.0,-2.0,-1.0,-1.0,1.0
-2.0,10.0,24.0,10.0,-4.0,-1.0,-1.0,-1.0
-6.0,-7.0,-23.0,-4.0,1.0,0.0,-1.0,-1.0
1.0,19.0,14.0,10.0,-8.0,0.0,-1.0,1.0
6.0,2.0,-1.0,-4.0,3.0,-2.0,-1.0,-3.0
-5.0,-16.0,1.0,-2.0,12.0,-5.0,0.0,0.0
-2.0,7.0,-6.0,-2.0,-9.0,0.0,1.0,-1.0
1.0,-9.0,-24.0,-12.0,-2.0,1.0,-1.0,0.0
-2.0,2.0,13.0,5.0,3.0,-1.0,0.0,0.0
-1.0,4.0,19.0,15.0,3.0,-1.0,0.0,1.0
-4.0,12.0,-16.0,-9.0,-2.0,-5.0,-4.0,-4.0
-14.0,-1.0,15.0,-9.0,-1.0,-3.0,-1.0,-2.0
15.0,-12.0,-26.0,-2.0,-2.0,0.0,0.0,2.0
-11.0,-39.0,-9.0,-9.0,-14.0,-1.0,0.0,-2.0
0.0,31.0,8.0,10.0,30.0,-1.0,0.0,1.0
2.0,-18.0,8.0,-5.0,-5.0,-2.0,-2.0,-2.0
-8.0,-6.0,-10.0,-3.0,2.0,-2.0,0.0,-1.0
7.0,-11.0,-19.0,-12.0,-3.0,-4.0,-2.0,-1.0
-1.0,-10.0,18.0,-7.0,-10.0,0.0,-3.0,1.0
-6.0,-3.0,4.0,23.0,18.0,1.0,-1.0,-2.0
-5.0,-1.0,14.0,0.0,1.0,1.0,-1.0,1.0
10.0,8.0,-25.0,-12.0,-10.0,0.0,0.0,1.0
-5.0,-19.0,-15.0,-11.0,-41.0,1.0,1.0,-3.0
-23.0,-59.0,-22.0,-5.0,1.0,-6.0,-2.0,-6.0
1.0,18.0,36.0,3.0,1.0,-1.0,0.0,-4.0
-6.0,-25.0,-39.0,-1.0,1.0,-2.0,-1.0,0.0
1.0,-15.0,14.0,6.0,2.0,-1.0,-1.0,1.0
14.0,52.0,11.0,-6.0,-2.0,0.0,0.0,0.0
-16.0,-33.0,-7.0,-10.0,-11.0,0.0,-1.0,-2.0
1.0,38.0,25.0,13.0,4.0,2.0,-2.0,-3.0
-3.0,-18.0,-34.0,-2.0,8.0,1.0,-2.0,-3.0
34.0,63.0,13.0,-7.0,24.0,0.0,0.0,6.0
-17.0,-44.0,-41.0,-10.0,-9.0,-4.0,-2.0,-3.0
10.0,-5.0,10.0,5.0,-3.0,1.0,0.0,2.0
-19.0,-11.0,-2.0,-10.0,4.0,-2.0,-1.0,-3.0
-7.0,-37.0,-20.0,4.0,1.0,-1.0,-3.0,-8.0
-8.0,24.0,17.0,-2.0,5.0,2.0,-3.0,-3.0
7.0,-1.0,6.0,3.0,-11.0,-2.0,0.0,1.0
1.0,-26.0,-8.0,5.0,18.0,1.0,1.0,-1.0
2.0,8.0,11.0,-14.0,-22.0,0.0,0.0,1.0
22.0,58.0,26.0,23.0,14.0,2.0,1.0,4.0
-20.0,-50.0,10.0,7.0,-8.0,-1.0,0.0,-6.0
-1.0,12.0,0.0,-6.0,-5.0,-2.0,0.0,-1.0
0.0,-17.0,22.0,8.0,18.0,-3.0,0.0,4.0
0.0,-24.0,-24.0,-12.0,-1.0,-1.0,-1.0,-2.0
13.0,63.0,18.0,0.0,27.0,0.0,-2.0,4.0
-1.0,-10.0,2.0,-3.0,-18.0,-2.0,-3.0,-1.0
4.0,36.0,33.0,18.0,3.0,12.0,4.0,2.0
-6.0,-46.0,-66.0,-21.0,-14.0,-8.0,-6.0,-5.0
-7.0,-5.0,-7.0,0.0,2.0,-4.0,-1.0,-2.0
0.0,-5.0,14.0,-7.0,2.0,6.0,0.0,1.0
14.0,49.0,-7.0,4.0,4.0,-8.0,-1.0,0.0
11.0,-17.0,-22.0,-9.0,-13.0,2.0,-3.0,2.0
-28.0,-50.0,-23.0,-10.0,6.0,-6.0,-1.0,-2.0
-6.0,-35.0,-48.0,-11.0,2.0,-6.0,-4.0,-4.0
-2.0,11.0,11.0,-7.0,-22.0,-2.0,-2.0,4.0
-7.0,-3.0,20.0,15.0,39.0,4.0,3.0,-1.0
18.0,67.0,20.0,2.0,-17.0,2.0,2.0,1.0
-12.0,-7.0,17.0,6.0,-14.0,-3.0,-3.0,-3.0
-6.0,-59.0,-12.0,-6.0,10.0,3.0,3.0,6.0
-26.0,-38.0,-14.0,-16.0,6.0,3.0,-6.0,-9.0
26.0,-2.0,-22.0,-4.0,1.0,3.0,3.0,6.0
-39.0,-9.0,7.0,3.0,-5.0,-16.0,-2.0,-10.0
-11.0,-43.0,13.0,6.0,-15.0,0.0,-3.0,-8.0
-17.0,-1.0,-5.0,-9.0,-5.0,-13.0,-4.0,-3.0
20.0,-26.0,2.0,-1.0,-4.0,17.0,7.0,10.0
-31.0,40.0,15.0,8.0,5.0,16.0,-6.0,-8.0
31.0,71.0,-51.0,-33.0,-31.0,-31.0,-16.0,-8.0
30.0,67.0,50.0,14.0,5.0,24.0,6.0,6.0
-36.0,-40.0,-35.0,-8.0,-5.0,-26.0,-8.0,-11.0
0.0,-13.0,88.0,32.0,2.0,37.0,10.0,11.0
-10.0,-32.0,-16.0,-7.0,7.0,-4.0,12.0,-6.0
8.0,29.0,-50.0,-8.0,-15.0,-10.0,-10.0,2.0
-27.0,-16.0,13.0,-3.0,-5.0,-3.0,-5.0,-10.0
9.0,-29.0,-2.0,3.0,19.0,-8.0,2.0,9.0
-3.0,-6.0,9.0,5.0,5.0,14.0,-1.0,-4.0
2.0,2.0,-17.0,-13.0,-7.0,-12.0,2.0,-9.0
-2.0,50.0,28.0,6.0,-2.0,34.0,6.0,2.0
8.0,-22.0,-29.0,-5.0,-10.0,-15.0,-5.0,1.0
6.0,-2.0,-1.0,10.0,4.0,-5.0,0.0,-1.0
-40.0,-45.0,18.0,1.0,-10.0,-22.0,-5.0,-3.0
16.0,11.0,63.0,15.0,-18.0,1.0,-2.0,2.0
-33.0,-24.0,-82.0,-26.0,14.0,14.0,-8.0,-29.0
28.0,-23.0,-12.0,-5.0,-1.0,12.0,19.0,8.0
18.0,55.0,53.0,22.0,26.0,0.0,-3.0,5.0
10.0,16.0,20.0,8.0,9.0,-15.0,-8.0,-7.0
16.0,16.0,-6.0,9.0,35.0,6.0,-5.0,5.0
1.0,10.0,125.0,28.0,15.0,-3.0,2.0,5.0
-24.0,-66.0,-81.0,-21.0,11.0,-5.0,1.0,-11.0
-24.0,-41.0,0.0,-9.0,-18.0,-8.0,-4.0,-7.0
5.0,8.0,8.0,12.0,15.0,-3.0,4.0,3.0
26.0,89.0,-67.0,-22.0,15.0,0.0,-3.0,2.0
47.0,-33.0,39.0,21.0,10.0,2.0,7.0,3.0
83.0,127.0,5.0,-12.0,-55.0,-18.0,-3.0,4.0
28.0,-69.0,-19.0,-8.0,10.0,-21.0,5.0,1.0
-71.0,-69.0,-65.0,-16.0,-25.0,-17.0,-16.0,-10.0
-12.0,-9.0,-98.0,-22.0,-17.0,16.0,13.0,4.0
5.0,28.0,-4.0,-20.0,-15.0,11.0,-12.0,-6.0
20.0,52.0,124.0,45.0,17.0,-13.0,8.0,7.0
52.0,-36.0,15.0,12.0,-34.0,-19.0,1.0,15.0
-57.0,-52.0,-15.0,-30.0,-26.0,0.0,7.0,-13.0
-28.0,-128.0,-13.0,12.0,67.0,13.0,-5.0,1.0
4.0,47.0,-73.0,-43.0,42.0,-5.0,-17.0,-13.0
-3.0,63.0,34.0,16.0,-1.0,25.0,3.0,1.0
61.0,38.0,92.0,17.0,-37.0,-8.0,-2.0,20.0
-29.0,-56.0,-73.0,-18.0,-17.0,3.0,6.0,-8.0
30.0,79.0,17.0,-5.0,-5.0,3.0,-2.0,8.0
5.0,61.0,47.0,35.0,11.0,10.0,4.0,0.0
-5.0,20.0,14.0,9.0,-10.0,21.0,0.0,-1.0
17.0,114.0,60.0,25.0,44.0,6.0,3.0,11.0
-4.0,-38.0,-35.0,-11.0,-31.0,-7.0,6.0,0.0
55.0,-14.0,-90.0,-36.0,9.0,0.0,-1.0,4.0
6.0,71.0,94.0,19.0,-4.0,-7.0,-2.0,7.0
-22.0,13.0,-45.0,-5.0,3.0,-21.0,3.0,-4.0
-7.0,31.0,18.0,-4.0,-40.0,11.0,-6.0,2.0
-22.0,-24.0,-9.0,4.0,7.0,-4.0,0.0,7.0
-24.0,-30.0,28.0,13.0,7.0,-1.0,-10.0,-13.0
-11.0,72.0,-35.0,-30.0,-14.0,-19.0,-4.0,-8.0
-15.0,24.0,-34.0,-11.0,-106.0,-30.0,6.0,2.0
-22.0,-71.0,-9.0,13.0,63.0,3.0,-6.0,-8.0
20.0,29.0,-57.0,10.0,19.0,1.0,7.0,14.0
1.0,-33.0,24.0,20.0,36.0,-21.0,-13.0,-7.0
-3.0,7.0,16.0,-3.0,-12.0,11.0,2.0,-5.0
-47.0,-36.0,-67.0,-37.0,-77.0,1.0,-12.0,-5.0
-6.0,38.0,17.0,14.0,53.0,-3.0,10.0,-2.0
-57.0,-56.0,-9.0,-1.0,16.0,2.0,3.0,-10.0
39.0,55.0,21.0,6.0,-15.0,6.0,2.0,3.0
-48.0,-85.0,4.0,15.0,29.0,-18.0,-1.0,-14.0
11.0,14.0,-14.0,-23.0,10.0,19.0,-12.0,-7.0
14.0,-38.0,-24.0,-8.0,-34.0,7.0,1.0,4.0
-3.0,-10.0,-8.0,-7.0,36.0,-13.0,-12.0,0.0
25.0,71.0,90.0,23.0,-101.0,26.0,23.0,10.0
1.0,58.0,-35.0,-22.0,-18.0,2.0,-5.0,-7.0
2.0,-8.0,43.0,8.0,17.0,14.0,-2.0,3.0
2.0,16.0,5.0,-6.0,10.0,-17.0,-6.0,2.0
35.0,95.0,8.0,-3.0,-4.0,-4.0,-4.0,0.0
-49.0,-38.0,-22.0,-8.0,25.0,-4.0,2.0,-4.0
0.0,52.0,74.0,16.0,-38.0,-7.0,12.0,-3.0
-40.0,49.0,20.0,2.0,82.0,24.0,12.0,-10.0
16.0,44.0,5.0,-18.0,17.0,0.0,-35.0,-1.0
2.0,-74.0,21.0,5.0,-25.0,-2.0,-12.0,-4.0
43.0,55.0,14.0,11.0,8.0,-2.0,0.0,7.0
6.0,-45.0,8.0,17.0,-22.0,11.0,1.0,14.0
-27.0,-13.0,-8.0,-7.0,-18.0,-5.0,3.0,-13.0
0.0,-20.0,19.0,5.0,4.0,22.0,-2.0,-5.0
15.0,1.0,15.0,1.0,-46.0,-18.0,-5.0,13.0
26.0,64.0,-13.0,-9.0,28.0,-2.0,2.0,-1.0
-77.0,-98.0,-42.0,-21.0,11.0,4.0,6.0,-22.0
33.0,42.0,18.0,15.0,-47.0,-12.0,-6.0,13.0
-28.0,-58.0,-91.0,-26.0,-6.0,12.0,6.0,-12.0
-15.0,26.0,-39.0,-20.0,-15.0,-8.0,-4.0,-10.0
8.0,58.0,11.0,19.0,38.0,-1.0,6.0,8.0
-34.0,-23.0,34.0,-2.0,14.0,-8.0,7.0,-14.0
-26.0,-18.0,-54.0,-28.0,-6.0,15.0,-8.0,-12.0
-9.0,-66.0,0.0,13.0,3.0,-7.0,4.0,2.0
7.0,-52.0,38.0,-2.0,-5.0,-10.0,-1.0,1.0
12.0,8.0,-65.0,-14.0,54.0,-2.0,-12.0,-7.0
-10.0,-54.0,24.0,8.0,-16.0,12.0,0.0,3.0
-5.0,-62.0,-51.0,-25.0,-63.0,-5.0,-2.0,5.0
25.0,62.0,35.0,7.0,-19.0,13.0,13.0,19.0
23.0,36.0,30.0,16.0,-46.0,-12.0,-3.0,-7.0
-14.0,-37.0,-24.0,-17.0,24.0,-1.0,1.0,-3.0
15.0,14.0,65.0,21.0,17.0,13.0,2.0,-4.0
15.0,-31.0,-39.0,-13.0,-16.0,-2.0,-1.0,-3.0
51.0,107.0,58.0,13.0,20.0,-4.0,2.0,10.0
-36.0,18.0,-6.0,-4.0,-28.0,-3.0,2.0,1.0
2.0,81.0,-4.0,-11.0,-47.0,-10.0,-12.0,-8.0
4.0,52.0,-6.0,4.0,46.0,5.0,-7.0,-2.0
-22.0,-76.0,-73.0,-19.0,-16.0,16.0,6.0,-5.0
48.0,121.0,65.0,26.0,78.0,-12.0,-26.0,4.0
58.0,87.0,-11.0,10.0,-46.0,6.0,11.0,18.0
0.0,48.0,-36.0,-28.0,-20.0,-14.0,3.0,-14.0
37.0,55.0,23.0,6.0,-19.0,-6.0,20.0,11.0
32.0,52.0,-21.0,-18.0,-69.0,-7.0,-19.0,0.0
35.0,-9.0,22.0,12.0,37.0,11.0,-7.0,1.0
-25.0,-54.0,-19.0,-3.0,-1.0,6.0,-5.0,-5.0
-28.0,-21.0,31.0,6.0,-7.0,-6.0,0.0,1.0
10.0,-48.0,-28.0,4.0,6.0,13.0,12.0,1.0
-41.0,-14.0,63.0,16.0,17.0,-2.0,3.0,-2.0
24.0,-3.0,-14.0,10.0,66.0,7.0,5.0,7.0
-36.0,-28.0,-1.0,-13.0,-36.0,-16.0,-10.0,-9.0
33.0,73.0,8.0,-2.0,-6.0,-9.0,5.0,16.0
-24.0,-80.0,-33.0,4.0,20.0,19.0,-7.0,-15.0
-2.0,27.0,-22.0,-2.0,-45.0,-11.0,3.0,6.0
-54.0,-7.0,-36.0,-18.0,19.0,-7.0,-12.0,-17.0
-15.0,-27.0,-24.0,-18.0,2.0,-14.0,-2.0,-2.0
-4.0,-32.0,-6.0,-2.0,28.0,-4.0,5.0,4.0
12.0,46.0,55.0,12.0,8.0,3.0,-1.0,3.0
40.0,61.0,-16.0,-7.0,-40.0,-13.0,-1.0,10.0
-2.0,-5.0,16.0,8.0,-4.0,11.0,-6.0,-16.0
-10.0,-26.0,-10.0,-11.0,3.0,2.0,-5.0,2.0
-9.0,-20.0,21.0,19.0,33.0,-16.0,-10.0,-13.0
-17.0,-45.0,-19.0,-5.0,23.0,-4.0,-14.0,4.0
-45.0,-115.0,-27.0,-6.0,10.0,-4.0,14.0,-6.0
68.0,64.0,28.0,11.0,-4.0,-1.0,8.0,14.0
-41.0,19.0,-21.0,-19.0,18.0,-8.0,-8.0,6.0
-8.0,2.0,-8.0,-1.0,-6.0,-21.0,9.0,-10.0
-8.0,2.0,4.0,16.0,59.0,28.0,2.0,5.0
-9.0,36.0,22.0,2.0,8.0,-22.0,-3.0,-6.0
-4.0,-24.0,-15.0,-12.0,-47.0,-6.0,-3.0,-1.0
21.0,-16.0,17.0,10.0,68.0,12.0,-4.0,5.0
-2.0,-44.0,14.0,-3.0,-54.0,7.0,7.0,2.0
-27.0,7.0,-35.0,-13.0,18.0,-18.0,-10.0,-7.0
6.0,-82.0,-11.0,0.0,-59.0,12.0,3.0,8.0
20.0,29.0,11.0,2.0,28.0,-4.0,-19.0,-12.0
-23.0,-57.0,-22.0,-8.0,-5.0,5.0,-7.0,-11.0
-59.0,-51.0,-9.0,-3.0,-20.0,-13.0,-6.0,-10.0
7.0,55.0,8.0,2.0,-27.0,-9.0,-4.0,1.0
32.0,39.0,-23.0,-1.0,-3.0,10.0,12.0,11.0
-2.0,16.0,44.0,26.0,23.0,-6.0,5.0,-3.0
-12.0,-65.0,-38.0,-10.0,-29.0,0.0,16.0,-2.0
-21.0,13.0,33.0,7.0,32.0,30.0,-26.0,-8.0
-17.0,-44.0,-34.0,-15.0,-24.0,-12.0,-9.0,12.0
1.0,5.0,-11.0,-15.0,-76.0,-35.0,-3.0,-6.0
21.0,-36.0,13.0,7.0,6.0,29.0,2.0,17.0
13.0,38.0,-17.0,-6.0,-13.0,-10.0,7.0,-19.0
-40.0,-47.0,2.0,-8.0,-43.0,13.0,3.0,-15.0
4.0,12.0,0.0,7.0,36.0,9.0,-3.0,4.0
10.0,-5.0,-9.0,2.0,-10.0,10.0,0.0,-8.0
-3.0,-13.0,-22.0,-2.0,3.0,-7.0,2.0,0.0
-1.0,-30.0,18.0,0.0,-10.0,12.0,2.0,8.0
23.0,84.0,44.0,8.0,-20.0,-8.0,7.0,2.0
-57.0,-71.0,-47.0,-26.0,4.0,-6.0,-11.0,-20.0
-13.0,2.0,9.0,0.0,24.0,1.0,0.0,1.0
10.0,20.0,10.0,3.0,15.0,5.0,3.0,2.0
-1.0,15.0,-4.0,5.0,21.0,-1.0,1.0,5.0
-2.0,-15.0,7.0,-7.0,-37.0,-3.0,6.0,5.0
16.0,67.0,27.0,-4.0,-5.0,-14.0,-9.0,-5.0
29.0,61.0,5.0,1.0,-28.0,-2.0,1.0,-1.0
6.0,22.0,27.0,16.0,22.0,6.0,12.0,7.0
-3.0,16.0,-35.0,-4.0,16.0,-8.0,-34.0,-14.0
-6.0,-49.0,17.0,2.0,-52.0,-6.0,1.0,8.0
43.0,98.0,40.0,19.0,31.0,7.0,5.0,5.0
-49.0,-88.0,-30.0,-20.0,3.0,3.0,-7.0,-10.0
35.0,85.0,14.0,5.0,15.0,-14.0,10.0,2.0
-24.0,-58.0,-2.0,0.0,16.0,8.0,-2.0,-9.0
10.0,-31.0,9.0,16.0,29.0,-24.0,-2.0,2.0
-21.0,-9.0,-14.0,-7.0,-36.0,-13.0,-8.0,2.0
35.0,39.0,-2.0,0.0,-2.0,2.0,1.0,6.0
7.0,-6.0,-15.0,1.0,5.0,3.0,8.0,0.0
-12.0,13.0,-18.0,-5.0,-11.0,15.0,-1.0,-5.0
22.0,-18.0,-63.0,-13.0,15.0,3.0,4.0,1.0
-30.0,-17.0,-16.0,-10.0,-21.0,-17.0,-6.0,-10.0
20.0,15.0,7.0,2.0,13.0,1.0,2.0,16.0
-14.0,-5.0,-17.0,-11.0,-62.0,-2.0,-5.0,2.0
-12.0,21.0,9.0,-2.0,-24.0,-11.0,-5.0,-4.0
-17.0,8.0,9.0,3.0,1.0,13.0,0.0,-1.0
-19.0,-62.0,-6.0,2.0,44.0,-5.0,-2.0,-15.0
-9.0,-10.0,-4.0,-11.0,-33.0,4.0,-2.0,5.0
-19.0,-1.0,17.0,3.0,17.0,3.0,-4.0,-6.0
59.0,61.0,35.0,15.0,68.0,-17.0,4.0,6.0
-1.0,-12.0,22.0,-1.0,-35.0,-4.0,-1.0,-14.0
-15.0,-53.0,1.0,-3.0,19.0,-21.0,9.0,-1.0
21.0,26.0,-13.0,0.0,74.0,3.0,-14.0,-5.0
18.0,36.0,14.0,-1.0,-25.0,5.0,-5.0,-4.0
-23.0,-41.0,-29.0,-2.0,11.0,15.0,5.0,3.0
-7.0,-43.0,-3.0,-1.0,5.0,-6.0,-5.0,4.0
18.0,6.0,-12.0,-4.0,-22.0,-8.0,7.0,3.0
22.0,7.0,-9.0,-9.0,30.0,0.0,1.0,6.0
5.0,-14.0,-9.0,-2.0,16.0,-6.0,-3.0,1.0
-21.0,-33.0,-23.0,-8.0,-35.0,12.0,1.0,4.0
50.0,25.0,5.0,1.0,10.0,2.0,2.0,9.0
-8.0,6.0,15.0,12.0,19.0,6.0,2.0,2.0
12.0,11.0,-22.0,4.0,38.0,-1.0,11.0,11.0
-17.0,-47.0,-4.0,-8.0,-23.0,-21.0,-15.0,-19.0
-3.0,51.0,31.0,13.0,-19.0,0.0,-4.0,12.0
35.0,84.0,47.0,15.0,3.0,-4.0,-5.0,5.0
-72.0,-73.0,-61.0,-19.0,34.0,0.0,1.0,-16.0
25.0,52.0,-9.0,2.0,54.0,4.0,0.0,-6.0
-1.0,10.0,16.0,8.0,0.0,-5.0,4.0,6.0
-18.0,-41.0,-6.0,-10.0,-40.0,3.0,4.0,0.0
21.0,-16.0,0.0,6.0,17.0,-1.0,-2.0,3.0
11.0,36.0,3.0,-4.0,-13.0,0.0,0.0,1.0
-46.0,-56.0,-10.0,-4.0,17.0,7.0,-9.0,-18.0
-7.0,-51.0,-4.0,-4.0,-41.0,2.0,3.0,9.0
31.0,52.0,20.0,0.0,-16.0,-8.0,-3.0,4.0
11.0,28.0,6.0,-8.0,2.0,-8.0,14.0,0.0
-22.0,-71.0,-53.0,-12.0,-4.0,-9.0,-17.0,-12.0
-15.0,3.0,-22.0,-7.0,-16.0,-13.0,1.0,0.0
18.0,73.0,37.0,8.0,-89.0,11.0,-2.0,1.0
16.0,20.0,23.0,13.0,93.0,3.0,-3.0,2.0
-18.0,-16.0,-8.0,-9.0,-5.0,4.0,10.0,-3.0
-15.0,-31.0,-12.0,0.0,-2.0,-6.0,-5.0,-7.0
-31.0,-57.0,4.0,-6.0,27.0,3.0,-7.0,-6.0
-41.0,-24.0,-16.0,4.0,-22.0,-3.0,1.0,-9.0
61.0,31.0,1.0,-3.0,4.0,8.0,7.0,14.0
-45.0,-90.0,7.0,1.0,72.0,0.0,-11.0,-8.0
28.0,-3.0,-21.0,-16.0,-5.0,-8.0,-3.0,1.0
-6.0,26.0,14.0,6.0,-9.0,9.0,-5.0,-3.0
13.0,29.0,14.0,3.0,-21.0,-7.0,1.0,4.0
29.0,4.0,-2.0,-4.0,33.0,11.0,7.0,12.0
-13.0,13.0,-1.0,-5.0,-26.0,-25.0,-3.0,0.0
-11.0,-37.0,-8.0,-2.0,6.0,13.0,-1.0,-2.0
-14.0,-32.0,-16.0,-4.0,-10.0,-1.0,-17.0,-6.0
5.0,16.0,4.0,4.0,8.0,13.0,2.0,-5.0
17.0,80.0,22.0,11.0,27.0,10.0,1.0,-1.0
23.0,-30.0,-21.0,-7.0,7.0,-21.0,-5.0,7.0
11.0,30.0,8.0,-3.0,-9.0,-10.0,5.0,-1.0
-16.0,-6.0,-11.0,-1.0,-21.0,-2.0,2.0,-2.0
-12.0,74.0,35.0,1.0,9.0,-2.0,-5.0,-6.0
-30.0,-54.0,-3.0,3.0,-12.0,7.0,1.0,-6.0
0.0,12.0,-9.0,-9.0,8.0,11.0,3.0,2.0
2.0,25.0,4.0,1.0,-16.0,-15.0,-7.0,-1.0
13.0,38.0,5.0,2.0,-59.0,-3.0,7.0,0.0
-9.0,5.0,-2.0,-2.0,2.0,22.0,-1.0,-4.0
-2.0,-43.0,4.0,11.0,16.0,-13.0,1.0,1.0
-8.0,4.0,-12.0,-7.0,-34.0,0.0,1.0,-6.0
3.0,-10.0,9.0,5.0,-3.0,-6.0,-3.0,0.0
2.0,13.0,-20.0,-17.0,-70.0,-10.0,-7.0,-4.0
21.0,-25.0,-6.0,0.0,33.0,2.0,-3.0,1.0
-14.0,1.0,4.0,0.0,-17.0,-4.0,8.0,-6.0
9.0,-26.0,-13.0,-5.0,0.0,4.0,1.0,7.0
-27.0,-16.0,14.0,11.0,16.0,-3.0,-1.0,-7.0
-14.0,1.0,-6.0,-11.0,7.0,-4.0,-4.0,-10.0
-34.0,-24.0,-18.0,-1.0,-13.0,-4.0,-2.0,-2.0
-10.0,-24.0,3.0,-3.0,-1.0,-1.0,-3.0,-4.0
-1.0,15.0,24.0,-1.0,2.0,-3.0,0.0,4.0
29.0,45.0,14.0,6.0,-24.0,7.0,5.0,2.0
-53.0,-94.0,-8.0,0.0,-8.0,0.0,-5.0,-10.0
5.0,-22.0,-14.0,-2.0,9.0,3.0,0.0,2.0
4.0,8.0,8.0,1.0,-10.0,1.0,-1.0,3.0
-3.0,56.0,27.0,-1.0,-20.0,-6.0,2.0,7.0
20.0,31.0,-3.0,-6.0,21.0,-4.0,-4.0,2.0
-8.0,-51.0,-18.0,-1.0,-1.0,1.0,-3.0,-1.0
2.0,-7.0,0.0,2.0,-22.0,-1.0,0.0,5.0
-4.0,10.0,-1.0,-3.0,17.0,0.0,-2.0,-2.0
22.0,20.0,-13.0,-6.0,-29.0,3.0,0.0,3.0
-5.0,-17.0,-13.0,-6.0,15.0,-2.0,-1.0,-4.0
11.0,13.0,4.0,1.0,13.0,-1.0,-2.0,-5.0
-9.0,-15.0,-1.0,-4.0,-7.0,-8.0,-5.0,-5.0
25.0,39.0,13.0,2.0,-1.0,-2.0,0.0,5.0
-5.0,1.0,-6.0,-6.0,-7.0,1.0,1.0,1.0
8.0,-12.0,-13.0,-1.0,2.0,-28.0,-5.0,0.0
-1.0,5.0,1.0,-1.0,-15.0,26.0,8.0,-6.0
14.0,14.0,4.0,-4.0,-4.0,-5.0,0.0,3.0
-4.0,-37.0,-5.0,2.0,0.0,0.0,0.0,-5.0
9.0,17.0,19.0,4.0,6.0,-2.0,-5.0,4.0
32.0,14.0,9.0,2.0,-2.0,-7.0,-2.0,4.0
-22.0,-73.0,-15.0,1.0,23.0,3.0,-1.0,-6.0
-12.0,15.0,-9.0,1.0,-19.0,-5.0,-4.0,-1.0
42.0,37.0,2.0,-8.0,23.0,4.0,2.0,6.0
2.0,2.0,9.0,15.0,15.0,-4.0,-1.0,-3.0
0.0,-4.0,-8.0,-5.0,-8.0,8.0,1.0,-5.0
9.0,15.0,6.0,-6.0,5.0,-5.0,-1.0,-1.0
-33.0,-13.0,-8.0,1.0,-4.0,2.0,0.0,-3.0
-18.0,25.0,2.0,-6.0,13.0,5.0,-1.0,1.0
35.0,0.0,8.0,3.0,-3.0,-2.0,1.0,8.0
-19.0,33.0,0.0,-4.0,1.0,-1.0,-1.0,0.0
12.0,-33.0,-12.0,-5.0,-21.0,0.0,-1.0,-2.0
-10.0,-15.0,-12.0,1.0,2.0,-4.0,0.0,-5.0
12.0,16.0,10.0,2.0,-4.0,-1.0,-1.0,5.0
-8.0,15.0,1.0,-3.0,-12.0,1.0,-2.0,-10.0
-4.0,20.0,6.0,3.0,-2.0,3.0,-1.0,1.0
-16.0,-48.0,-15.0,-5.0,-16.0,-5.0,-3.0,-4.0
9.0,33.0,5.0,-2.0,-4.0,0.0,0.0,-3.0
4.0,-7.0,-4.0,-2.0,-7.0,1.0,0.0,-2.0
5.0,-14.0,-2.0,1.0,13.0,0.0,-2.0,-3.0
-12.0,7.0,4.0,-7.0,10.0,-5.0,-1.0,-8.0
-22.0,-12.0,-14.0,-6.0,-9.0,-4.0,-3.0,-5.0
14.0,13.0,7.0,3.0,-1.0,0.0,-2.0,3.0
-17.0,-12.0,-12.0,-4.0,-3.0,3.0,-2.0,-4.0
18.0,52.0,10.0,1.0,-4.0,-3.0,2.0,4.0
-34.0,-36.0,-23.0,-6.0,7.0,-3.0,-5.0,-9.0
32.0,29.0,22.0,5.0,6.0,-3.0,0.0,9.0
-5.0,-16.0,-13.0,-3.0,-5.0,2.0,1.0,0.0
5.0,30.0,13.0,1.0,-13.0,-3.0,-2.0,-2.0
-6.0,15.0,5.0,-3.0,7.0,-3.0,3.0,0.0
-8.0,8.0,7.0,9.0,16.0,4.0,-2.0,-5.0
-6.0,-9.0,-3.0,3.0,4.0,0.0,1.0,0.0
-19.0,-36.0,-10.0,-4.0,-15.0,-2.0,-5.0,-2.0
-10.0,13.0,9.0,6.0,-3.0,-3.0,-2.0,-3.0
9.0,-24.0,-4.0,-2.0,4.0,-3.0,1.0,3.0
7.0,36.0,4.0,-1.0,-9.0,-4.0,-1.0,1.0
-2.0,3.0,1.0,2.0,-6.0,1.0,1.0,-2.0
-1.0,-9.0,-10.0,-8.0,-8.0,-2.0,-3.0,-5.0
7.0,21.0,-4.0,2.0,11.0,-1.0,0.0,1.0
-23.0,-3.0,1.0,-3.0,-1.0,0.0,-1.0,-2.0
7.0,-58.0,-8.0,-4.0,-12.0,-1.0,2.0,5.0
-3.0,13.0,3.0,7.0,-10.0,3.0,1.0,-1.0
23.0,0.0,3.0,-2.0,-10.0,-1.0,-2.0,3.0
11.0,6.0,2.0,-3.0,7.0,2.0,1.0,-2.0
7.0,14.0,-1.0,-2.0,-1.0,-3.0,-1.0,-3.0
-4.0,-6.0,10.0,5.0,28.0,1.0,0.0,0.0
-13.0,-11.0,-5.0,-6.0,-5.0,-3.0,-1.0,-2.0
-2.0,12.0,4.0,2.0,12.0,1.0,-2.0,1.0
-2.0,5.0,-2.0,0.0,-9.0,-3.0,-1.0,0.0
-2.0,-6.0,3.0,-1.0,11.0,1.0,0.0,0.0
4.0,35.0,9.0,0.0,18.0,1.0,1.0,2.0
-15.0,-53.0,-12.0,-3.0,-1.0,-2.0,-2.0,-10.0
22.0,3.0,-1.0,1.0,-2.0,-8.0,0.0,4.0
2.0,37.0,8.0,7.0,-5.0,1.0,-3.0,0.0
-11.0,-38.0,-13.0,-5.0,-4.0,-2.0,-4.0,-3.0
-24.0,-5.0,-4.0,-1.0,-6.0,-2.0,-3.0,-6.0
-30.0,-34.0,-6.0,-4.0,6.0,1.0,-3.0,-4.0
28.0,2.0,3.0,6.0,21.0,1.0,2.0,5.0
15.0,-7.0,-4.0,-10.0,-19.0,-2.0,-1.0,4.0
6.0,11.0,5.0,1.0,9.0,-4.0,0.0,0.0
-17.0,1.0,3.0,4.0,-7.0,2.0,0.0,0.0
-3.0,11.0,1.0,-3.0,-12.0,-1.0,-1.0,3.0
-6.0,2.0,-9.0,0.0,0.0,-1.0,1.0,-4.0
8.0,-5.0,6.0,-1.0,-10.0,-3.0,0.0,4.0
2.0,4.0,-5.0,-5.0,-3.0,-3.0,2.0,-1.0
3.0,-12.0,-1.0,-8.0,-10.0,-1.0,-4.0,-3.0
3.0,12.0,-2.0,6.0,5.0,0.0,1.0,1.0
7.0,3.0,8.0,3.0,-12.0,0.0,-2.0,2.0
-3.0,-29.0,-12.0,-3.0,9.0,0.0,0.0,-3.0
-1.0,6.0,9.0,-3.0,-15.0,-3.0,1.0,-6.0
-10.0,-3.0,-6.0,0.0,-1.0,0.0,-1.0,1.0
7.0,11.0,6.0,4.0,5.0,1.0,4.0,3.0
-8.0,10.0,0.0,-1.0,-12.0,-2.0,-3.0,-5.0
3.0,-34.0,-10.0,0.0,3.0,1.0,0.0,-2.0
-10.0,-20.0,9.0,2.0,4.0,-2.0,-1.0,-3.0
-14.0,19.0,-2.0,0.0,0.0,0.0,4.0,8.0
9.0,16.0,-2.0,-3.0,4.0,2.0,-2.0,-1.0
5.0,10.0,-2.0,0.0,-15.0,-3.0,-1.0,2.0
10.0,-17.0,-7.0,-4.0,-2.0,-1.0,-1.0,1.0
2.0,16.0,0.0,-4.0,-3.0,0.0,-4.0,-3.0
-4.0,0.0,1.0,2.0,7.0,0.0,-1.0,-1.0
-8.0,-9.0,0.0,0.0,4.0,1.0,-1.0,-2.0
-9.0,18.0,-4.0,-5.0,-8.0,-1.0,-3.0,-3.0
-1.0,-16.0,2.0,-1.0,-5.0,2.0,-1.0,-3.0
-1.0,-16.0,-12.0,8.0,20.0,-2.0,-1.0,-2.0
1.0,15.0,5.0,2.0,2.0,1.0,-1.0,0.0
-9.0,-22.0,-7.0,0.0,-7.0,-3.0,1.0,0.0
