60952158393,-0.701477050781,-0.524169921875,-0.191284179688,0.443420410156
60952181903,-0.701477050781,-0.524169921875,-0.191345214844,0.443420410156
60952196084,-0.701416015625,-0.523864746094,-0.191101074219,0.444030761719
60952220292,-0.701171875,-0.522216796875,-0.191040039062,0.4462890625
60952240991,-0.69677734375,-0.522155761719,-0.198059082031,0.4501953125
60952256115,-0.695739746094,-0.522033691406,-0.199462890625,0.451354980469
60952286687,-0.695251464844,-0.52099609375,-0.199035644531,0.453430175781
60952301088,-0.699157714844,-0.520751953125,-0.192443847656,0.450561523438
60952316116,-0.7001953125,-0.520935058594,-0.191101074219,0.449340820312
60952354337,-0.700012207031,-0.521850585938,-0.192810058594,0.447814941406
60952364975,-0.69580078125,-0.521850585938,-0.199829101562,0.451293945312
60952379932,-0.694946289062,-0.521606445312,-0.200866699219,0.452392578125
60952398661,-0.692443847656,-0.52197265625,-0.204956054688,0.453979492188
60952422219,-0.6923828125,-0.521301269531,-0.20556640625,0.454528808594
60952439985,-0.692443847656,-0.521362304688,-0.20556640625,0.454467773438
60952480929,-0.692504882812,-0.521362304688,-0.205505371094,0.454406738281
60952491104,-0.692565917969,-0.521362304688,-0.205383300781,0.454345703125
60952497429,-0.692565917969,-0.521362304688,-0.205322265625,0.454345703125
60952519031,-0.692993164062,-0.522888183594,-0.205078125,0.452026367188
60952541480,-0.695068359375,-0.521850585938,-0.201171875,0.451843261719
60952565384,-0.698181152344,-0.521362304688,-0.195556640625,0.450073242188
60952579827,-0.699340820312,-0.521484375,-0.19384765625,0.448791503906
60952610425,-0.700927734375,-0.522521972656,-0.192749023438,0.445617675781
60952625451,-0.697570800781,-0.522827148438,-0.198852539062,0.447875976562
60952639764,-0.696533203125,-0.522644042969,-0.200256347656,0.449096679688
60952662897,-0.697021484375,-0.521728515625,-0.198181152344,0.450317382812
60952685425,-0.701477050781,-0.52197265625,-0.190795898438,0.446228027344
60952699791,-0.702270507812,-0.522155761719,-0.189819335938,0.445251464844
60952722920,-0.701904296875,-0.521545410156,-0.190246582031,0.4462890625
60952745464,-0.701782226562,-0.521667480469,-0.188232421875,0.447265625
60952767986,-0.700744628906,-0.521911621094,-0.184875488281,0.449951171875
60952782968,-0.700622558594,-0.522338867188,-0.178588867188,0.4521484375
60952805451,-0.701904296875,-0.523193359375,-0.170959472656,0.4521484375
60952826584,-0.704223632812,-0.52392578125,-0.162170410156,0.450927734375
60952842991,-0.706787109375,-0.524475097656,-0.150817871094,0.4501953125
60952865440,-0.710754394531,-0.524230957031,-0.138549804688,0.4482421875
60952886489,-0.715576171875,-0.523559570312,-0.124572753906,0.445373535156
60952902918,-0.720397949219,-0.522705078125,-0.108276367188,0.442810058594
60952925402,-0.725463867188,-0.521301269531,-0.0897216796875,0.4404296875
60952946549,-0.731323242188,-0.518920898438,-0.0687255859375,0.437255859375
60952963012,-0.737915039062,-0.515380859375,-0.0458374023438,0.433349609375
60952985414,-0.744750976562,-0.510314941406,-0.0209350585938,0.429626464844
60953006464,-0.752197265625,-0.503479003906,0.00555419921875,0.425109863281
60953023018,-0.760925292969,-0.494689941406,0.0326538085938,0.418640136719
60953045395,-0.770202636719,-0.484802246094,0.0594482421875,0.410278320312
60953067993,-0.779418945312,-0.474060058594,0.0859375,0.400451660156
60953082386,-0.788391113281,-0.462524414062,0.112426757812,0.389770507812
60953105449,-0.797485351562,-0.449523925781,0.138366699219,0.3779296875
60953126639,-0.806213378906,-0.435485839844,0.163146972656,0.365783691406
60953142334,-0.814331054688,-0.420715332031,0.187133789062,0.353393554688
60953165414,-0.821166992188,-0.405944824219,0.210021972656,0.341735839844
60953186625,-0.827392578125,-0.391418457031,0.231018066406,0.329956054688
60953209138,-0.832885742188,-0.377380371094,0.250610351562,0.318115234375
60953225440,-0.83740234375,-0.363464355469,0.269348144531,0.306762695312
60953246690,-0.841735839844,-0.349975585938,0.286743164062,0.294555664062
60953262338,-0.845642089844,-0.336853027344,0.302917480469,0.282287597656
60953285415,-0.848815917969,-0.323181152344,0.318542480469,0.271362304688
60953307938,-0.851684570312,-0.309204101562,0.333435058594,0.260681152344
60953322415,-0.854125976562,-0.295715332031,0.346923828125,0.250427246094
60953345445,-0.855834960938,-0.282653808594,0.359802246094,0.241333007812
60953367940,-0.857421875,-0.270935058594,0.370178222656,0.233276367188
60953382690,-0.858947753906,-0.260925292969,0.379272460938,0.224304199219
60953405436,-0.860107421875,-0.252075195312,0.387145996094,0.216491699219
60953427860,-0.860961914062,-0.244812011719,0.393432617188,0.2099609375
60953449037,-0.861450195312,-0.2392578125,0.398315429688,0.205017089844
60953471585,-0.86181640625,-0.235290527344,0.402099609375,0.20068359375
60953487955,-0.861999511719,-0.232543945312,0.404846191406,0.197387695312
60953510438,-0.862060546875,-0.230895996094,0.406616210938,0.195678710938
60953531573,-0.862243652344,-0.229858398438,0.407470703125,0.194213867188
60953547889,-0.862365722656,-0.2294921875,0.407775878906,0.193481445312
60953570436,-0.862426757812,-0.229858398438,0.407653808594,0.192932128906
60953591465,-0.862365722656,-0.230590820312,0.407043457031,0.193542480469
60953607935,-0.862243652344,-0.231201171875,0.406372070312,0.194702148438
60953630894,-0.862365722656,-0.231994628906,0.405578613281,0.195068359375
60953651596,-0.862365722656,-0.232971191406,0.405395507812,0.194213867188
60953667920,-0.861877441406,-0.234130859375,0.40576171875,0.194152832031
60953690461,-0.861328125,-0.23486328125,0.406188964844,0.19482421875
60953719066,-0.861083984375,-0.235168457031,0.406372070312,0.195190429688
60953727946,-0.860961914062,-0.235107421875,0.406311035156,0.196044921875
60953750460,-0.860900878906,-0.235229492188,0.405883789062,0.196838378906
60953771624,-0.861145019531,-0.235656738281,0.404663085938,0.197998046875
60953788009,-0.861694335938,-0.235656738281,0.403137207031,0.198547363281
60953810419,-0.8623046875,-0.235168457031,0.401489257812,0.199829101562
60953832906,-0.862731933594,-0.23486328125,0.400024414062,0.201354980469
60953847906,-0.863037109375,-0.235168457031,0.3984375,0.20263671875
60953870439,-0.863098144531,-0.23583984375,0.397094726562,0.204345703125
60953892903,-0.862915039062,-0.236694335938,0.395751953125,0.206665039062
60953907880,-0.862426757812,-0.238037109375,0.394653320312,0.209411621094
60953930378,-0.861694335938,-0.240051269531,0.39306640625,0.213073730469
60953952938,-0.860900878906,-0.242980957031,0.390075683594,0.21826171875
60953974093,-0.85986328125,-0.24658203125,0.386413574219,0.224914550781
60953990470,-0.858825683594,-0.250549316406,0.382141113281,0.231689453125
60954012940,-0.85791015625,-0.255249023438,0.376953125,0.23828125
60954034064,-0.857482910156,-0.26123046875,0.369506835938,0.244934082031
60954040861,-0.85693359375,-0.269104003906,0.359497070312,0.253051757812
60954055948,-0.855712890625,-0.279174804688,0.347229003906,0.263122558594
60954078398,-0.853332519531,-0.29150390625,0.33349609375,0.275024414062
60954100818,-0.850524902344,-0.305603027344,0.318725585938,0.285766601562
60954115822,-0.847900390625,-0.320739746094,0.302734375,0.294128417969
60954138579,-0.845092773438,-0.336547851562,0.285400390625,0.301940917969
60954156247,-0.840881347656,-0.353210449219,0.266845703125,0.311340332031
60954175914,-0.835571289062,-0.370056152344,0.247009277344,0.322326660156
60954198391,-0.829772949219,-0.386047363281,0.225830078125,0.333862304688
60954216210,-0.823608398438,-0.400634765625,0.204040527344,0.345825195312
60954235965,-0.81640625,-0.4150390625,0.181945800781,0.357971191406
60954258484,-0.808410644531,-0.429260253906,0.159362792969,0.369934082031
60954276259,-0.800109863281,-0.442138671875,0.13671875,0.381713867188
60954295936,-0.791748046875,-0.453247070312,0.115661621094,0.392883300781
60954318391,-0.783386230469,-0.463989257812,0.0948486328125,0.402526855469
60954336223,-0.774780273438,-0.474914550781,0.073486328125,0.410827636719
60954355806,-0.765686035156,-0.484985351562,0.0525512695312,0.419250488281
60954378540,-0.757507324219,-0.493835449219,0.0325317382812,0.42578125
60954394705,-0.750793457031,-0.501342773438,0.0126342773438,0.429931640625
60954415789,-0.74462890625,-0.507385253906,-0.00701904296875,0.433715820312
60954438565,-0.738464355469,-0.511901855469,-0.0255737304688,0.438232421875
60954454783,-0.732543945312,-0.515258789062,-0.0424194335938,0.442932128906
60954475781,-0.727111816406,-0.51806640625,-0.058349609375,0.446716308594
60954498479,-0.722229003906,-0.520385742188,-0.0741577148438,0.449584960938
60954514760,-0.717895507812,-0.522216796875,-0.0894165039062,0.45166015625
60954535983,-0.714050292969,-0.523803710938,-0.104797363281,0.452575683594
60954558607,-0.710205078125,-0.52490234375,-0.121032714844,0.453308105469
60954574790,-0.706909179688,-0.525085449219,-0.138366699219,0.453308105469
60954595881,-0.703552246094,-0.526245117188,-0.152648925781,0.452575683594
60954618368,-0.703491210938,-0.530700683594,-0.159057617188,0.445251464844
60954634783,-0.705078125,-0.533447265625,-0.157043457031,0.440185546875
60954655945,-0.705383300781,-0.535339355469,-0.154541015625,0.438171386719
60954678435,-0.702270507812,-0.538024902344,-0.152099609375,0.440734863281
60954694736,-0.698669433594,-0.539184570312,-0.150756835938,0.445495605469
60954715887,-0.696044921875,-0.539733886719,-0.151794433594,0.448608398438
60954738303,-0.694946289062,-0.540100097656,-0.15478515625,0.448852539062
60954756173,-0.695556640625,-0.540222167969,-0.158325195312,0.446533203125
60954775887,-0.697509765625,-0.539672851562,-0.161926269531,0.442749023438
60954798438,-0.69970703125,-0.538391113281,-0.164978027344,0.439758300781
60954816202,-0.700866699219,-0.537109375,-0.167053222656,0.438781738281
60954835941,-0.700622558594,-0.536010742188,-0.168090820312,0.440002441406
60954858534,-0.699523925781,-0.535766601562,-0.168701171875,0.44189453125
60954876227,-0.698059082031,-0.536193847656,-0.169372558594,0.443359375
60954895779,-0.697082519531,-0.536743164062,-0.169677734375,0.444152832031
60954918304,-0.696899414062,-0.537231445312,-0.170166015625,0.443664550781
60954936214,-0.696899414062,-0.537536621094,-0.1708984375,0.443054199219
60954955989,-0.697082519531,-0.537231445312,-0.171203613281,0.442932128906
60954981181,-0.697387695312,-0.537048339844,-0.171203613281,0.442687988281
60954996212,-0.697265625,-0.537109375,-0.170959472656,0.442932128906
60955015781,-0.69677734375,-0.537353515625,-0.170715332031,0.443420410156
60955038255,-0.696411132812,-0.53759765625,-0.170715332031,0.443786621094
60955062236,-0.696350097656,-0.53759765625,-0.170776367188,0.443786621094
60955075884,-0.696411132812,-0.537536621094,-0.171081542969,0.443725585938
