60870387412,-0.65673828125,-0.588806152344,-0.123291015625,0.454833984375
60870411192,-0.65673828125,-0.588806152344,-0.123291015625,0.454833984375
60870427278,-0.65673828125,-0.588806152344,-0.123229980469,0.454833984375
60870447544,-0.65625,-0.587463378906,-0.124084472656,0.457092285156
60870471854,-0.657104492188,-0.587280273438,-0.12255859375,0.456481933594
60870486275,-0.657287597656,-0.587036132812,-0.122009277344,0.456665039062
60870507707,-0.660766601562,-0.586791992188,-0.116027832031,0.453491210938
60870531380,-0.661804199219,-0.587036132812,-0.114624023438,0.452087402344
60870585215,-0.661804199219,-0.587280273438,-0.114868164062,0.45166015625
60870585898,-0.660766601562,-0.587280273438,-0.116516113281,0.452758789062
60870598867,-0.659851074219,-0.587036132812,-0.11767578125,0.4541015625
60870606960,-0.660827636719,-0.586242675781,-0.114990234375,0.454406738281
60870624014,-0.661926269531,-0.586303710938,-0.113342285156,0.453125
60870642419,-0.660278320312,-0.58642578125,-0.116455078125,0.45458984375
60870660463,-0.660400390625,-0.586730957031,-0.115905761719,0.454162597656
60870704977,-0.660400390625,-0.586730957031,-0.115966796875,0.454162597656
60870706569,-0.660339355469,-0.586730957031,-0.116027832031,0.454162597656
60870718757,-0.660339355469,-0.586730957031,-0.116027832031,0.454162597656
60870747938,-0.660339355469,-0.586791992188,-0.116088867188,0.4541015625
60870762466,-0.6630859375,-0.586059570312,-0.111022949219,0.452270507812
60870780178,-0.662109375,-0.585876464844,-0.112365722656,0.45361328125
60870799759,-0.661376953125,-0.585632324219,-0.113220214844,0.454833984375
60870822440,-0.662658691406,-0.584838867188,-0.110046386719,0.454711914062
60870840150,-0.663757324219,-0.584899902344,-0.1083984375,0.453369140625
60870859761,-0.664306640625,-0.585205078125,-0.10791015625,0.452331542969
60870882388,-0.661499023438,-0.585754394531,-0.11328125,0.454406738281
60870900200,-0.660400390625,-0.585632324219,-0.114868164062,0.455871582031
60870919839,-0.660278320312,-0.585327148438,-0.11474609375,0.456359863281
60870942283,-0.661315917969,-0.584350585938,-0.112731933594,0.456665039062
60870960161,-0.661560058594,-0.585144042969,-0.112060546875,0.455505371094
60870979902,-0.661376953125,-0.585021972656,-0.112487792969,0.455810546875
60871002300,-0.661315917969,-0.585021972656,-0.112548828125,0.455810546875
60871020190,-0.661315917969,-0.585083007812,-0.112609863281,0.455810546875
60871039893,-0.661315917969,-0.585083007812,-0.112670898438,0.455810546875
60871062437,-0.661254882812,-0.585083007812,-0.112731933594,0.455810546875
60871080147,-0.661254882812,-0.585083007812,-0.11279296875,0.455810546875
60871101184,-0.661193847656,-0.585144042969,-0.112854003906,0.455810546875
60871122409,-0.661071777344,-0.585144042969,-0.113037109375,0.455993652344
60871140226,-0.660888671875,-0.5849609375,-0.113098144531,0.456420898438
60871161221,-0.660827636719,-0.584716796875,-0.113159179688,0.456726074219
60871182428,-0.660949707031,-0.58447265625,-0.11328125,0.456909179688
60871200157,-0.661010742188,-0.583923339844,-0.11279296875,0.457641601562
60871221194,-0.660949707031,-0.583129882812,-0.111511230469,0.459106445312
60871242338,-0.661315917969,-0.582336425781,-0.10986328125,0.4599609375
60871260219,-0.6630859375,-0.581115722656,-0.107971191406,0.459350585938
60871281280,-0.666748046875,-0.579040527344,-0.105834960938,0.457153320312
60871302335,-0.67138671875,-0.576538085938,-0.102905273438,0.454223632812
60871320152,-0.677185058594,-0.5732421875,-0.100158691406,0.450439453125
60871341184,-0.684814453125,-0.569396972656,-0.0987548828125,0.443908691406
60871362230,-0.693969726562,-0.565490722656,-0.098876953125,0.434631347656
60871380127,-0.703735351562,-0.560363769531,-0.0996704101562,0.425231933594
60871401219,-0.715087890625,-0.553100585938,-0.0972900390625,0.416320800781
60871422394,-0.728820800781,-0.545043945312,-0.0921630859375,0.404113769531
60871440153,-0.740905761719,-0.538452148438,-0.083984375,0.392578125
60871461260,-0.750915527344,-0.531555175781,-0.072021484375,0.385314941406
60871482334,-0.76171875,-0.523620605469,-0.05908203125,0.376953125
60871500162,-0.772399902344,-0.514953613281,-0.0487670898438,0.36865234375
60871522681,-0.782470703125,-0.506713867188,-0.039306640625,0.359802246094
60871542339,-0.793334960938,-0.497680664062,-0.028076171875,0.349670410156
60871560172,-0.805297851562,-0.4873046875,-0.0159912109375,0.33740234375
60871583054,-0.8154296875,-0.477478027344,-0.00244140625,0.327392578125
60871602412,-0.824157714844,-0.467834472656,0.0115356445312,0.318969726562
60871626260,-0.832641601562,-0.4580078125,0.0255126953125,0.310363769531
60871642639,-0.840637207031,-0.448852539062,0.0377197265625,0.300903320312
60871662369,-0.848266601562,-0.439880371094,0.0479736328125,0.291076660156
60871685527,-0.856506347656,-0.43017578125,0.0582885742188,0.279235839844
60871701883,-0.865051269531,-0.420288085938,0.068603515625,0.265258789062
60871724340,-0.872985839844,-0.410766601562,0.0791625976562,0.251037597656
60871745391,-0.8798828125,-0.401489257812,0.0897216796875,0.237854003906
60871761964,-0.886352539062,-0.392578125,0.0990600585938,0.224609375
60871784373,-0.892700195312,-0.384216308594,0.107666015625,0.209533691406
60871805411,-0.898315429688,-0.376831054688,0.117309570312,0.193176269531
60871821198,-0.902893066406,-0.37060546875,0.127014160156,0.177001953125
60871844344,-0.907104492188,-0.364562988281,0.13671875,0.160217285156
60871865365,-0.910522460938,-0.359008789062,0.146484375,0.143859863281
60871881186,-0.912963867188,-0.354248046875,0.155578613281,0.129821777344
60871904391,-0.915161132812,-0.349426269531,0.16357421875,0.116882324219
60871925525,-0.917053222656,-0.345092773438,0.171142578125,0.103576660156
60871941211,-0.91845703125,-0.341247558594,0.178649902344,0.0901489257812
60871964327,-0.919494628906,-0.337707519531,0.185852050781,0.0773315429688
60871985423,-0.920227050781,-0.334716796875,0.192199707031,0.0653686523438
60872001219,-0.920654296875,-0.332153320312,0.197692871094,0.0554809570312
60872031843,-0.921020507812,-0.32958984375,0.202331542969,0.046875
60872046793,-0.921447753906,-0.327209472656,0.205932617188,0.038330078125
60872061213,-0.921752929688,-0.3251953125,0.209167480469,0.0305786132812
60872091886,-0.921997070312,-0.3232421875,0.211975097656,0.02392578125
60872106844,-0.922241210938,-0.321350097656,0.214294433594,0.018310546875
60872135448,-0.922485351562,-0.319580078125,0.216186523438,0.0135498046875
60872144360,-0.922729492188,-0.318115234375,0.217529296875,0.00933837890625
60872166865,-0.922973632812,-0.317016601562,0.218139648438,0.005859375
60872187990,-0.92333984375,-0.316162109375,0.217956542969,0.00262451171875
60872204337,-0.923706054688,-0.3154296875,0.217468261719,0.0003662109375
60872233059,-0.924133300781,-0.315002441406,0.216430664062,-0.0008544921875
60872247905,-0.924621582031,-0.31494140625,0.214416503906,-0.00213623046875
60872264091,-0.925109863281,-0.315002441406,0.212219238281,-0.00335693359375
60872286875,-0.925537109375,-0.315185546875,0.2099609375,-0.0037841796875
60872301175,-0.925964355469,-0.315673828125,0.207397460938,-0.00439453125
60872324336,-0.92626953125,-0.316101074219,0.205322265625,-0.0045166015625
60872346809,-0.926330566406,-0.316589355469,0.204284667969,-0.00323486328125
60872361173,-0.926391601562,-0.317260742188,0.202941894531,-0.0025634765625
60872390621,-0.926452636719,-0.31787109375,0.201721191406,-0.002685546875
60872406845,-0.926452636719,-0.318176269531,0.201232910156,-0.00238037109375
60872421196,-0.926330566406,-0.318420410156,0.201477050781,-0.00140380859375
60872444354,-0.926208496094,-0.318786621094,0.201354980469,-0.00079345703125
60872466893,-0.926147460938,-0.318969726562,0.201416015625,0.0001220703125
60872481165,-0.926025390625,-0.319030761719,0.201782226562,0.00091552734375
60872504339,-0.925964355469,-0.319030761719,0.202270507812,0.00115966796875
60872526847,-0.925842285156,-0.319030761719,0.202575683594,0.00115966796875
60872547904,-0.925842285156,-0.319030761719,0.202758789062,0.00128173828125
60872564347,-0.92578125,-0.319030761719,0.202880859375,0.0018310546875
60872586822,-0.925842285156,-0.319091796875,0.202697753906,0.0023193359375
60872608003,-0.925842285156,-0.319396972656,0.202270507812,0.00238037109375
60872624343,-0.92578125,-0.319763183594,0.201843261719,0.00250244140625
60872646836,-0.925659179688,-0.320251464844,0.20166015625,0.00286865234375
60872667961,-0.925476074219,-0.320861816406,0.201416015625,0.003173828125
60872691832,-0.925170898438,-0.321899414062,0.201293945312,0.004638671875
60872706810,-0.9248046875,-0.323181152344,0.200744628906,0.006591796875
60872728046,-0.924560546875,-0.324401855469,0.199829101562,0.00811767578125
60872744331,-0.924133300781,-0.326171875,0.198852539062,0.010009765625
60872766839,-0.923522949219,-0.328308105469,0.198059082031,0.0135498046875
60872787963,-0.922485351562,-0.331176757812,0.19775390625,0.0193481445312
60872803667,-0.921142578125,-0.334289550781,0.197631835938,0.02685546875
60872826839,-0.919982910156,-0.337524414062,0.196472167969,0.0340576171875
60872848019,-0.919067382812,-0.340698242188,0.194274902344,0.0401000976562
60872863686,-0.917907714844,-0.343688964844,0.192626953125,0.0479125976562
60872886843,-0.915954589844,-0.346618652344,0.193298339844,0.06005859375
60872907965,-0.913330078125,-0.350341796875,0.194274902344,0.0737915039062
60872930435,-0.910949707031,-0.354187011719,0.193054199219,0.086669921875
60872946811,-0.908203125,-0.357482910156,0.192138671875,0.102600097656
60872969389,-0.904174804688,-0.360595703125,0.193725585938,0.12255859375
60872983683,-0.89892578125,-0.365051269531,0.195861816406,0.142639160156
60873006838,-0.894714355469,-0.370727539062,0.193420410156,0.157348632812
60873029304,-0.890075683594,-0.375366210938,0.190856933594,0.174499511719
60873043687,-0.884460449219,-0.378784179688,0.1904296875,0.195190429688
60873066906,-0.877380371094,-0.382507324219,0.191345214844,0.217468261719
60873089355,-0.871337890625,-0.387634277344,0.187866210938,0.235229492188
60873110548,-0.864624023438,-0.392028808594,0.184143066406,0.254699707031
60873126851,-0.8564453125,-0.395568847656,0.18212890625,0.27734375
60873155460,-0.847595214844,-0.400146484375,0.180480957031,0.298278808594
60873170488,-0.838989257812,-0.406127929688,0.177795410156,0.315551757812
60873186839,-0.832092285156,-0.412658691406,0.172119140625,0.328247070312
60873209334,-0.824829101562,-0.418518066406,0.166137695312,0.342041015625
60873230492,-0.81640625,-0.424499511719,0.1611328125,0.35693359375
60873246844,-0.807983398438,-0.432250976562,0.155151367188,0.369262695312
60873269379,-0.800354003906,-0.441162109375,0.146728515625,0.378540039062
60873290554,-0.792663574219,-0.449645996094,0.137573242188,0.388122558594
60873306904,-0.7841796875,-0.457824707031,0.128784179688,0.398620605469
60873329315,-0.775695800781,-0.466735839844,0.119567871094,0.407653808594
60873350492,-0.767395019531,-0.476379394531,0.109497070312,0.414978027344
60873366813,-0.759033203125,-0.486267089844,0.0990600585938,0.421508789062
60873389318,-0.750549316406,-0.49560546875,0.0890502929688,0.427978515625
60873410481,-0.741943359375,-0.504577636719,0.0796508789062,0.434326171875
60873426812,-0.733337402344,-0.513793945312,0.069580078125,0.439758300781
60873449343,-0.725891113281,-0.523071289062,0.0574340820312,0.442932128906
60873470518,-0.719360351562,-0.530883789062,0.045166015625,0.445678710938
60873486841,-0.713562011719,-0.537536621094,0.0330810546875,0.448181152344
60873509336,-0.708068847656,-0.543518066406,0.0206909179688,0.450439453125
60873530555,-0.70263671875,-0.548950195312,0.00885009765625,0.452697753906
60873546854,-0.697387695312,-0.553955078125,-0.002197265625,0.454772949219
60873569337,-0.692077636719,-0.558471679688,-0.012939453125,0.457214355469
60873590470,-0.6865234375,-0.562622070312,-0.023193359375,0.460083007812
60873606772,-0.68115234375,-0.566833496094,-0.0337524414062,0.462219238281
60873629328,-0.675659179688,-0.570861816406,-0.0444946289062,0.46435546875
60873650445,-0.670349121094,-0.574645996094,-0.055908203125,0.466125488281
60873666760,-0.665466308594,-0.578125,-0.0687866210938,0.467163085938
60873689389,-0.660522460938,-0.581420898438,-0.083251953125,0.467712402344
60873710558,-0.65625,-0.583679199219,-0.099609375,0.4677734375
60873726149,-0.652099609375,-0.586547851562,-0.111145019531,0.467346191406
60873755515,-0.654296875,-0.588989257812,-0.114379882812,0.460327148438
60873770566,-0.661315917969,-0.586791992188,-0.112976074219,0.453491210938
60873786136,-0.662048339844,-0.587951660156,-0.110717773438,0.451416015625
60873809374,-0.657287597656,-0.589538574219,-0.106384277344,0.457336425781
60873830421,-0.652465820312,-0.590576171875,-0.103210449219,0.463562011719
60873846169,-0.649780273438,-0.591613769531,-0.1044921875,0.465759277344
60873869343,-0.649230957031,-0.592468261719,-0.109924316406,0.464172363281
60873890435,-0.65087890625,-0.592468261719,-0.116027832031,0.460327148438
60873906143,-0.653930664062,-0.591491699219,-0.120727539062,0.4560546875
60873929313,-0.65673828125,-0.589904785156,-0.123779296875,0.453308105469
60873951804,-0.657592773438,-0.588623046875,-0.124755859375,0.453430175781
60873966148,-0.656555175781,-0.587951660156,-0.124450683594,0.455932617188
60873989390,-0.65478515625,-0.588012695312,-0.1240234375,0.458374023438
60874011837,-0.653503417969,-0.588500976562,-0.124328613281,0.459594726562
60874026841,-0.652893066406,-0.589050292969,-0.125,0.459533691406
60874049350,-0.653015136719,-0.589294433594,-0.125732421875,0.458862304688
60874079339,-0.653259277344,-0.589294433594,-0.126220703125,0.458312988281
60874086163,-0.653381347656,-0.589233398438,-0.126342773438,0.458251953125
60874109347,-0.653259277344,-0.589172363281,-0.126281738281,0.45849609375
