60764549981,-0.647766113281,-0.599060058594,-0.10595703125,0.458618164062
60764556825,-0.647766113281,-0.599060058594,-0.10595703125,0.458618164062
60764580672,-0.647827148438,-0.599060058594,-0.10595703125,0.458557128906
60764601873,-0.646057128906,-0.598083496094,-0.1083984375,0.461669921875
60764616928,-0.648132324219,-0.599243164062,-0.106140136719,0.457885742188
60764640491,-0.648376464844,-0.599548339844,-0.106018066406,0.457153320312
60764661958,-0.647644042969,-0.599609375,-0.107238769531,0.457763671875
60764676952,-0.646545410156,-0.599426269531,-0.108764648438,0.459228515625
60764731168,-0.645446777344,-0.598327636719,-0.109008789062,0.462158203125
60764733330,-0.649108886719,-0.59814453125,-0.102966308594,0.458679199219
60764745425,-0.650146484375,-0.598327636719,-0.101623535156,0.457214355469
60764763239,-0.650024414062,-0.599304199219,-0.103210449219,0.455749511719
60764783254,-0.649169921875,-0.599365234375,-0.104614257812,0.456604003906
60764812795,-0.649047851562,-0.599975585938,-0.104431152344,0.455932617188
60764856749,-0.648986816406,-0.599670410156,-0.104858398438,0.456359863281
60764866891,-0.648986816406,-0.599670410156,-0.104858398438,0.456359863281
60764867584,-0.648986816406,-0.599670410156,-0.104858398438,0.456359863281
60764883493,-0.648986816406,-0.599670410156,-0.104858398438,0.456420898438
60764901693,-0.649108886719,-0.601196289062,-0.104675292969,0.454284667969
60764918118,-0.648010253906,-0.601013183594,-0.106262207031,0.455688476562
60764942060,-0.646911621094,-0.600830078125,-0.107788085938,0.457092285156
60764961777,-0.646301269531,-0.600524902344,-0.108337402344,0.458190917969
60764979543,-0.64697265625,-0.600402832031,-0.107238769531,0.457763671875
60765001986,-0.648071289062,-0.600524902344,-0.105651855469,0.456298828125
60765024503,-0.648315429688,-0.600830078125,-0.105529785156,0.455627441406
60765039498,-0.647338867188,-0.600830078125,-0.107055664062,0.456604003906
60765062067,-0.646423339844,-0.6005859375,-0.108215332031,0.4580078125
60765081790,-0.647766113281,-0.599792480469,-0.105163574219,0.457885742188
60765099531,-0.646423339844,-0.600708007812,-0.107299804688,0.458068847656
60765122003,-0.646606445312,-0.6005859375,-0.105895996094,0.458312988281
60765141845,-0.646423339844,-0.599792480469,-0.104187011719,0.4599609375
60765159528,-0.645935058594,-0.599243164062,-0.101684570312,0.462036132812
60765182023,-0.645263671875,-0.598876953125,-0.0974731445312,0.464233398438
60765201854,-0.645141601562,-0.598449707031,-0.0912475585938,0.466186523438
60765219517,-0.646789550781,-0.597717285156,-0.0841674804688,0.466186523438
60765242026,-0.649963378906,-0.596557617188,-0.0770263671875,0.464538574219
60765261834,-0.653930664062,-0.594909667969,-0.06982421875,0.462219238281
60765279539,-0.658630371094,-0.592834472656,-0.0626831054688,0.459228515625
60765308061,-0.6630859375,-0.590881347656,-0.05517578125,0.456237792969
60765322438,-0.668395996094,-0.588195800781,-0.0477294921875,0.452819824219
60765344775,-0.676574707031,-0.583618164062,-0.0403442382812,0.447326660156
60765361198,-0.687561035156,-0.5771484375,-0.0326538085938,0.439514160156
60765382429,-0.701171875,-0.568420410156,-0.0234985351562,0.429809570312
60765398038,-0.716125488281,-0.558532714844,-0.012451171875,0.41845703125
60765421196,-0.732360839844,-0.54736328125,0.00048828125,0.405090332031
60765442433,-0.749145507812,-0.534606933594,0.015869140625,0.390808105469
60765458086,-0.764343261719,-0.520935058594,0.0341796875,0.378479003906
60765481231,-0.77783203125,-0.506469726562,0.0538940429688,0.368225097656
60765502230,-0.792236328125,-0.490600585938,0.0733032226562,0.355407714844
60765518722,-0.808044433594,-0.472778320312,0.093017578125,0.338989257812
60765541232,-0.822814941406,-0.455505371094,0.111572265625,0.320983886719
60765562229,-0.836730957031,-0.437866210938,0.130981445312,0.3017578125
60765578064,-0.849853515625,-0.418518066406,0.151000976562,0.282592773438
60765601199,-0.861877441406,-0.398681640625,0.170349121094,0.263305664062
60765622494,-0.8720703125,-0.379211425781,0.189147949219,0.244934082031
60765638037,-0.880859375,-0.360290527344,0.207824707031,0.226135253906
60765661217,-0.888488769531,-0.342834472656,0.225524902344,0.20556640625
60765682344,-0.894470214844,-0.327575683594,0.241943359375,0.184631347656
60765698062,-0.89892578125,-0.314208984375,0.257263183594,0.164611816406
60765721181,-0.901977539062,-0.30322265625,0.271118164062,0.144958496094
60765742215,-0.903747558594,-0.295104980469,0.28271484375,0.127563476562
60765764734,-0.904602050781,-0.289245605469,0.292358398438,0.112243652344
60765781243,-0.904479980469,-0.285766601562,0.300659179688,0.099365234375
60765809876,-0.90380859375,-0.284729003906,0.307189941406,0.0883178710938
60765818062,-0.902404785156,-0.286865234375,0.311706542969,0.079345703125
60765854809,-0.900024414062,-0.291748046875,0.3154296875,0.0737915039062
60765863716,-0.896545410156,-0.298583984375,0.318786621094,0.073974609375
60765886265,-0.891967773438,-0.307739257812,0.321472167969,0.0797729492188
60765907361,-0.886413574219,-0.318786621094,0.3232421875,0.09033203125
60765923728,-0.880126953125,-0.331115722656,0.323608398438,0.105224609375
60765946192,-0.872741699219,-0.343811035156,0.322875976562,0.126220703125
60765967345,-0.863891601562,-0.356994628906,0.321411132812,0.151489257812
60765983744,-0.853942871094,-0.371154785156,0.318908691406,0.17724609375
60766006181,-0.842895507812,-0.386962890625,0.315063476562,0.201477050781
60766027345,-0.830932617188,-0.403564453125,0.309997558594,0.225036621094
60766043034,-0.81884765625,-0.41943359375,0.3037109375,0.247802734375
60766066250,-0.807189941406,-0.433044433594,0.296691894531,0.269958496094
60766087391,-0.794982910156,-0.444213867188,0.290344238281,0.2939453125
60766103093,-0.782104492188,-0.452331542969,0.285339355469,0.31982421875
60766125967,-0.769409179688,-0.458190917969,0.280334472656,0.345703125
60766147415,-0.758666992188,-0.460815429688,0.274597167969,0.369812011719
60766163042,-0.749877929688,-0.459777832031,0.269592285156,0.391906738281
60766186208,-0.742614746094,-0.454956054688,0.266479492188,0.412963867188
60766208742,-0.738037109375,-0.446166992188,0.265502929688,0.430969238281
60766223095,-0.736694335938,-0.435607910156,0.26513671875,0.444091796875
60766246227,-0.737915039062,-0.4228515625,0.265502929688,0.4541015625
60766268720,-0.741516113281,-0.408142089844,0.266784667969,0.460815429688
60766283121,-0.746337890625,-0.392395019531,0.269775390625,0.465087890625
60766305948,-0.75146484375,-0.375854492188,0.273986816406,0.467956542969
60766328702,-0.757690429688,-0.358459472656,0.280029296875,0.468017578125
60766343042,-0.763366699219,-0.34033203125,0.287963867188,0.467468261719
60766366216,-0.768493652344,-0.321350097656,0.297729492188,0.466430664062
60766388731,-0.773864746094,-0.302429199219,0.308532714844,0.463195800781
60766409866,-0.779907226562,-0.284362792969,0.319458007812,0.456970214844
60766426218,-0.785522460938,-0.268188476562,0.329956054688,0.449645996094
60766448690,-0.789978027344,-0.253356933594,0.339294433594,0.443481445312
60766469986,-0.794006347656,-0.241149902344,0.346313476562,0.437622070312
60766486176,-0.797912597656,-0.231628417969,0.3515625,0.431457519531
60766508674,-0.801330566406,-0.224853515625,0.355163574219,0.425720214844
60766537392,-0.804077148438,-0.219970703125,0.357360839844,0.421142578125
60766546239,-0.806274414062,-0.21728515625,0.357971191406,0.417846679688
60766568693,-0.807495117188,-0.216125488281,0.357482910156,0.416442871094
60766589930,-0.808288574219,-0.215759277344,0.356323242188,0.416137695312
60766606191,-0.808776855469,-0.21630859375,0.3544921875,0.41650390625
60766628726,-0.809020996094,-0.2177734375,0.352783203125,0.416625976562
60766643045,-0.808654785156,-0.220092773438,0.351196289062,0.417541503906
60766666240,-0.807800292969,-0.223022460938,0.349426269531,0.419067382812
60766688712,-0.806640625,-0.226013183594,0.347839355469,0.421020507812
60766709892,-0.805358886719,-0.229064941406,0.346008300781,0.423278808594
60766726187,-0.804321289062,-0.232238769531,0.34423828125,0.425048828125
60766748623,-0.803527832031,-0.236389160156,0.342529296875,0.425598144531
60766769846,-0.803100585938,-0.242126464844,0.340393066406,0.424987792969
60766786220,-0.802856445312,-0.249633789062,0.337585449219,0.423217773438
60766808689,-0.803283691406,-0.259460449219,0.333129882812,0.420043945312
60766829819,-0.8046875,-0.271484375,0.326293945312,0.415100097656
60766846251,-0.807067871094,-0.285888671875,0.315979003906,0.408813476562
60766868691,-0.809326171875,-0.302795410156,0.301086425781,0.4033203125
60766889951,-0.810852050781,-0.321350097656,0.282165527344,0.399658203125
60766906130,-0.810119628906,-0.340209960938,0.260803222656,0.39990234375
60766928687,-0.807922363281,-0.358825683594,0.238586425781,0.401916503906
60766949712,-0.804565429688,-0.377380371094,0.215759277344,0.404663085938
60766965507,-0.799255371094,-0.396362304688,0.192016601562,0.408996582031
60766988685,-0.793090820312,-0.415710449219,0.167114257812,0.412719726562
60767009676,-0.786315917969,-0.434997558594,0.141235351562,0.415405273438
60767025634,-0.778991699219,-0.454040527344,0.115051269531,0.416931152344
60767048964,-0.771484375,-0.472778320312,0.0886840820312,0.416442871094
60767069691,-0.763244628906,-0.49072265625,0.0631713867188,0.41552734375
60767085566,-0.75439453125,-0.507141113281,0.0393676757812,0.414978027344
60767108694,-0.744323730469,-0.521118164062,0.0189208984375,0.417236328125
60767129916,-0.733154296875,-0.533447265625,0.0015869140625,0.421813964844
60767152258,-0.722106933594,-0.544494628906,-0.0135498046875,0.426574707031
60767168717,-0.711608886719,-0.554260253906,-0.0265502929688,0.430969238281
60767189834,-0.702697753906,-0.5625,-0.037841796875,0.434020996094
60767205539,-0.694946289062,-0.569702148438,-0.0480346679688,0.436096191406
60767228682,-0.687683105469,-0.575988769531,-0.0572509765625,0.438293457031
60767251222,-0.681030273438,-0.581237792969,-0.0660400390625,0.440490722656
60767265561,-0.674987792969,-0.585571289062,-0.0746459960938,0.442687988281
60767288671,-0.669677734375,-0.5888671875,-0.0836181640625,0.444702148438
60767311198,-0.664428710938,-0.591491699219,-0.0906372070312,0.44775390625
60767333691,-0.663330078125,-0.592468261719,-0.0973510742188,0.446716308594
60767348681,-0.666137695312,-0.591613769531,-0.101745605469,0.442626953125
60767371215,-0.668579101562,-0.591003417969,-0.103576660156,0.439453125
60767392472,-0.667053222656,-0.592041015625,-0.103576660156,0.440307617188
60767408692,-0.662719726562,-0.594116210938,-0.102722167969,0.444213867188
60767431623,-0.658386230469,-0.595947265625,-0.102416992188,0.4482421875
60767452482,-0.6552734375,-0.597473144531,-0.104187011719,0.450378417969
60767468720,-0.653625488281,-0.598876953125,-0.106994628906,0.450317382812
60767491162,-0.653381347656,-0.600036621094,-0.109680175781,0.448425292969
60767512010,-0.653930664062,-0.600402832031,-0.111267089844,0.446716308594
60767528647,-0.654602050781,-0.600280761719,-0.111328125,0.445861816406
60767551176,-0.654724121094,-0.60009765625,-0.110412597656,0.446228027344
60767565535,-0.654113769531,-0.599975585938,-0.10888671875,0.447570800781
60767588642,-0.653259277344,-0.600036621094,-0.107666015625,0.449096679688
60767611164,-0.652526855469,-0.60009765625,-0.106872558594,0.450256347656
60767625541,-0.652221679688,-0.600158691406,-0.106750488281,0.45068359375
60767648713,-0.652526855469,-0.599975585938,-0.107421875,0.450317382812
60767671162,-0.653015136719,-0.599609375,-0.107971191406,0.449951171875
60767685520,-0.653198242188,-0.599365234375,-0.108154296875,0.450012207031
60767708662,-0.653015136719,-0.599243164062,-0.10791015625,0.450439453125
60767731190,-0.652648925781,-0.599243164062,-0.107604980469,0.451049804688
60767754324,-0.65234375,-0.599304199219,-0.107421875,0.451416015625
60767755976,-0.65234375,-0.599304199219,-0.107482910156,0.451477050781
60767774071,-0.65234375,-0.599304199219,-0.107482910156,0.451477050781
60767798070,-0.652404785156,-0.599182128906,-0.107482910156,0.451477050781
60767814501,-0.652404785156,-0.59912109375,-0.107482910156,0.451538085938
60767834301,-0.652404785156,-0.59912109375,-0.107482910156,0.451599121094
60767856657,-0.652404785156,-0.59912109375,-0.107482910156,0.451599121094
60767873016,-0.652404785156,-0.59912109375,-0.107482910156,0.45166015625
60767894082,-0.65234375,-0.59912109375,-0.107482910156,0.45166015625
60767916569,-0.65234375,-0.599060058594,-0.107482910156,0.45166015625
60767932964,-0.65234375,-0.599060058594,-0.107482910156,0.451721191406
60767954161,-0.65234375,-0.599060058594,-0.107482910156,0.451721191406
60767976639,-0.65234375,-0.599060058594,-0.107788085938,0.45166015625
60767993013,-0.652404785156,-0.598937988281,-0.107971191406,0.45166015625
60768014119,-0.652404785156,-0.598876953125,-0.108276367188,0.451721191406
60768036613,-0.652465820312,-0.598754882812,-0.108520507812,0.451782226562
60768053009,-0.652465820312,-0.598571777344,-0.108764648438,0.451965332031
60768081669,-0.652465820312,-0.598510742188,-0.108764648438,0.451965332031
60768096697,-0.652404785156,-0.598388671875,-0.108947753906,0.452209472656
60768112973,-0.65234375,-0.598388671875,-0.108947753906,0.452270507812
60768134157,-0.652404785156,-0.598266601562,-0.109252929688,0.452270507812
60768156667,-0.652404785156,-0.598205566406,-0.109497070312,0.452331542969
60768174464,-0.652404785156,-0.59814453125,-0.109497070312,0.452392578125
60768195490,-0.652404785156,-0.59814453125,-0.109497070312,0.452392578125
60768216603,-0.65234375,-0.59814453125,-0.109558105469,0.452453613281
60768234462,-0.65234375,-0.59814453125,-0.109558105469,0.452453613281
60768254073,-0.652404785156,-0.598022460938,-0.109741210938,0.452453613281
60768276699,-0.652404785156,-0.597961425781,-0.109741210938,0.452514648438
60768294472,-0.652404785156,-0.597961425781,-0.109741210938,0.452575683594
60768314175,-0.652404785156,-0.597961425781,-0.109802246094,0.452575683594
60768336669,-0.652404785156,-0.597961425781,-0.109802246094,0.452575683594
60768354935,-0.652404785156,-0.597961425781,-0.109802246094,0.45263671875
60768374143,-0.65234375,-0.597900390625,-0.109802246094,0.45263671875
