60583992745,0,-9,-3,-2,-1,-2,-2,4
60583992745,0,-6,-2,1,-3,-3,-3,0
60583993415,2,-4,-3,-2,-4,0,-1,-7
60583993415,-2,-4,-1,0,-1,-2,1,-8
60583994186,-2,-9,-2,1,-2,-3,1,-6
60583994186,-1,-13,-1,-1,-1,0,0,-6
60583997954,-2,-22,-1,-2,-1,-3,-1,-4
60583997954,-1,-18,-2,0,-1,0,-2,-6
60584005108,1,-12,1,-3,-3,-2,1,-20
60584005108,0,-8,-2,-4,0,-2,2,-110
60584016524,-2,-5,-1,0,-1,-2,2,-102
60584016524,-1,-5,0,-3,-2,-2,0,17
60584020018,-4,-6,-4,-1,0,1,0,65
60584020018,-2,-8,-1,0,-2,-2,-1,108
60584036373,-2,-6,-2,0,0,-1,0,78
60584036373,-2,-8,-1,-1,-4,-1,-1,38
60584043699,-2,4,-1,-2,0,-1,2,25
60584043699,1,5,0,0,-2,0,0,18
60584065807,0,3,0,-1,-2,-1,-2,8
60584065807,1,-3,-1,-1,0,-1,-2,-1
60584066441,0,-3,-1,0,-3,0,-2,-10
60584066441,-3,0,-3,-2,1,2,-2,-13
60584112247,-2,0,-1,-2,1,1,-1,-12
60584112247,-1,0,2,-2,-1,-1,-1,-10
60584112980,-2,-2,1,0,-1,1,-1,-25
60584112980,-1,1,0,-1,-2,0,-2,-3
60584113779,1,-14,-1,-1,1,-3,2,1
60584113779,-1,-16,-1,-1,-1,-3,0,10
60584117288,-2,-2,-2,-2,0,0,-2,8
60584117288,-1,-7,-1,0,0,0,-4,-2
60584133710,-1,3,0,-2,0,-1,0,2
60584133710,0,-4,-1,-1,-1,-1,0,-5
60584135175,-1,-17,-1,-2,-1,-3,-2,-1
60584135175,1,-8,-1,-3,3,-1,-1,-5
60584139740,0,-2,-1,-2,1,1,-1,3
60584139740,2,7,0,0,2,-1,-1,-5
60584156205,1,11,-2,1,-2,-5,0,-1
60584156205,1,9,-2,-1,-5,-3,-1,0
60584162350,0,-10,-3,1,-7,-3,-3,-5
60584162350,-2,-15,-3,-3,-2,0,0,2
60584185507,-1,-11,-3,-2,-6,0,3,0
60584185507,-2,-19,-4,-2,-3,-1,2,-2
60584186127,-1,-6,-3,-1,-4,-5,1,-1
60584186127,-2,-3,-4,-1,-4,-2,2,-7
60584200463,-3,-5,0,-1,-2,-5,0,-4
60584200463,-2,-9,-2,1,0,-1,1,-6
60584201157,-2,2,1,0,-2,1,-2,-7
60584201157,-1,5,0,1,0,1,1,-5
60584222954,-2,12,-1,0,-1,0,0,-1
60584222954,-2,9,0,-2,-1,-3,3,-4
60584223636,-2,3,-4,-2,1,-1,1,-5
60584223636,-3,0,-1,-1,0,0,1,-6
60584245518,-4,0,-3,-1,-2,1,-2,-3
60584245518,-5,4,-3,0,-1,0,-1,-6
60584246196,-3,5,-1,-2,1,-2,-1,-6
60584246196,-4,0,-1,-1,-2,-1,-2,-6
60584260445,-2,-5,-3,0,-1,-2,-1,-6
60584260445,-3,-9,-2,-1,-2,-1,-1,-6
60584261216,-4,-8,-1,0,-1,-1,-1,-6
60584261216,0,1,-3,1,-1,0,-2,-4
60584283109,-1,10,-2,-1,-1,1,1,-3
60584283109,0,18,-1,-1,1,-2,-2,-4
60584283701,-3,12,-2,-2,0,-1,-1,-5
60584283701,-4,9,-2,-1,0,0,-1,-4
60584305381,-2,8,-2,-1,-1,-3,-2,-2
60584305381,-1,12,1,-1,-2,0,1,-1
60584306223,-3,-9,-1,-1,1,2,-1,1
60584306223,-1,-12,1,-2,0,0,1,0
60584320348,-1,-11,1,-1,2,0,-2,-1
60584320348,1,-8,1,-2,1,-1,-3,-3
60584321091,-1,2,0,-1,-1,-1,1,0
60584321091,-1,1,0,1,0,2,-3,-1
60584342881,0,-1,0,0,1,0,-3,-1
60584342881,-3,2,0,0,-1,-1,-3,3
60584343691,0,1,1,-2,-3,-2,-3,-7
60584343691,0,5,-1,1,-4,-5,0,-4
60584365325,0,6,-2,0,-2,-1,2,-12
60584365325,-1,-3,-3,-1,-4,-1,2,2
60584366144,-1,5,-2,-2,-1,2,-2,4
60584366144,-1,2,-2,-1,0,-1,-2,8
60584380484,0,3,2,1,-1,-1,-2,5
60584380484,0,12,-3,-1,-1,2,1,1
60584381162,0,13,0,1,2,-3,0,2
60584381162,-2,12,0,-1,-1,-1,-3,0
60584402896,-3,14,0,-3,1,-3,-2,3
60584402896,-2,0,-1,-3,2,1,-3,-2
60584403703,0,10,-2,-1,-2,-1,-2,-1
60584403703,-1,2,-2,-1,2,-1,0,-2
60584425634,-1,3,-1,-1,-1,1,0,-2
60584425634,-1,13,0,-2,-1,-1,-3,-26
60584426160,-2,7,-5,-1,1,0,1,-61
60584426160,-2,17,-1,-1,0,-5,-1,-53
60584440513,0,-1,0,-2,-2,-1,-1,-117
60584440513,-2,2,0,0,-2,-1,-2,-118
60584441196,0,-11,5,1,-1,-1,-1,-24
60584441196,0,-20,1,0,-2,-2,-1,80
60584462973,0,-15,0,-3,2,-3,-2,127
60584462973,0,-20,2,-4,-1,-4,2,127
60584463746,-1,-11,-1,-3,1,0,0,56
60584463746,1,-4,-2,-2,-2,0,-2,74
60584485479,-2,-6,-3,0,-1,0,-1,79
60584485479,-2,6,-2,2,0,-1,-2,60
60584486186,-1,9,0,0,-3,-1,0,35
60584486186,-1,11,-4,-3,-3,1,0,-9
60584500272,-1,9,1,-1,1,-1,-2,-22
60584500272,-1,7,0,0,-4,-2,-1,-8
60584507257,-1,5,-4,0,-3,0,0,22
60584507257,2,-1,-3,-3,-1,0,0,-10
60584523067,0,-14,-3,-1,0,-3,0,-11
60584523067,-2,-20,-2,0,-1,-1,0,-12
60584523675,-1,-13,0,1,-2,-4,-2,-20
60584523675,-1,-8,1,-2,-3,-3,-3,-30
60584545476,-2,1,-4,-1,-2,1,0,-14
60584545476,0,14,-1,-2,0,-3,-3,2
60584546159,-2,47,-1,-1,-1,0,-1,13
60584546159,-2,57,-1,0,1,-1,-2,-6
60584560475,1,43,-1,-1,0,1,0,-6
60584560475,-1,24,-2,-2,0,0,-1,-8
60584561188,1,3,-2,1,-2,-3,-1,-5
60584561188,-1,-8,0,1,4,-3,-1,-18
60584582984,1,1,-1,0,-1,-1,0,-8
60584582984,-1,-5,-2,-1,0,-1,-3,-7
60584583665,-2,-24,0,-1,-2,1,-1,-5
60584583665,0,-29,3,1,-3,-2,-1,-3
60584605876,-2,-35,1,-1,-1,-1,-1,-4
60584605876,0,-32,-1,-3,0,-1,0,-11
60584606634,0,-26,-1,-1,-4,-4,-1,0
60584606634,0,-20,0,-1,-4,-1,1,-8
60584620374,-2,-9,-1,-1,-3,-1,2,-8
60584620374,-2,7,0,2,-3,0,2,-5
60584621204,0,4,-2,-1,0,0,0,1
60584621204,1,-6,-1,-1,0,-3,-2,-5
60584643015,1,-5,0,-2,-3,1,-3,-2
60584643015,-7,-9,-2,0,0,0,-1,-4
60584643674,4,-11,-1,-2,-4,0,0,0
60584643674,-8,-11,1,0,0,-1,-1,-5
60584665384,2,0,-2,-2,-4,-3,-1,-7
60584665384,-3,-17,-1,-1,2,-4,-3,-1
60584666161,-8,-22,1,-3,-1,2,-3,-2
60584666161,1,-13,-5,-1,1,3,0,1
60584679702,-5,-9,-2,1,3,-3,-2,-3
60584679702,6,0,2,-1,1,-2,-2,-3
60584687311,5,13,-1,-1,4,-5,2,-1
60584687311,-2,5,1,-2,0,-1,-1,0
60584702999,-3,0,2,0,0,-2,2,-1
60584702999,3,-4,-1,-2,-1,1,0,-3
60584703660,-7,-4,-2,-2,0,0,-7,1
60584703660,1,3,-2,-2,-3,-3,-2,3
60584725449,-3,-2,-3,-1,1,-2,4,-2
60584725449,-13,13,-1,1,3,-7,-15,-6
60584726166,49,27,-1,-2,-1,8,14,8
60584726166,-15,24,-3,-2,0,-3,-11,-6
60584739835,4,22,3,-2,-2,-2,-2,-4
60584739835,7,-6,-2,-1,-3,0,2,5
60584747443,-29,-21,-4,-2,-3,-7,-5,-5
60584747443,8,-19,-3,0,-2,1,0,-4
60584763032,-12,-8,-2,0,-2,1,-4,2
60584763032,31,-3,-2,0,-1,1,2,10
60584763692,-18,0,4,-1,0,-3,-1,0
60584763692,16,0,-1,-1,-1,-2,4,2
60584785501,-11,-8,-3,-4,2,0,-6,1
60584785501,-21,-7,0,-1,1,-1,0,-5
60584786169,-4,-4,-1,0,3,3,-4,-1
60584786169,-2,1,-2,-2,2,1,4,5
60584799750,2,6,0,-2,0,1,4,-2
60584799750,-10,10,0,-1,-3,1,-4,-2
60584807238,28,12,2,0,-1,-4,-5,5
60584807238,-27,8,-2,-1,-4,-3,-7,-9
60584822790,3,9,-2,0,-4,-2,-1,-1
60584822790,-9,7,-4,-3,-5,-7,-1,3
60584823595,-19,16,2,-1,1,9,-16,-11
60584823595,12,29,0,0,1,4,1,2
60584845447,-9,11,-5,0,1,2,1,4
60584845447,21,13,0,-1,-1,-5,-3,2
60584846072,-22,-6,-2,-2,-6,-6,0,-11
60584846072,4,-4,2,-2,-4,3,5,22
60584859766,9,-29,-1,-1,-5,2,-3,-30
60584859766,-16,-30,2,-1,-2,-1,-1,-13
60584867301,-3,-34,-5,-1,-1,-3,1,-2
60584867301,-12,-6,1,0,0,-3,-9,-7
60584882917,22,4,-1,0,0,-4,14,25
60584882917,7,-15,-3,-1,-2,2,-6,5
60584883616,18,-14,-1,-2,-1,-4,0,-2
60584883616,-10,-4,0,-1,-2,-7,-2,-11
60584905319,-13,-14,-1,-1,-2,-2,-8,3
60584905319,-8,1,-2,-4,-1,1,3,-2
60584906093,3,-9,0,0,0,-1,2,5
60584906093,0,-19,-2,-1,-4,-3,-6,0
60584919685,-30,-33,-5,-1,-2,-2,0,-2
60584919685,36,37,3,1,-2,-2,-5,-4
60584927172,-7,17,3,0,-3,-4,-4,4
60584927172,29,3,2,2,-3,4,2,-4
60584942963,-22,-46,-3,-1,-4,-2,-8,1
60584942963,3,-56,-4,-2,-5,-1,6,-10
60584943662,-14,-36,-6,-1,-3,-1,-5,1
60584943662,18,-64,-2,-1,1,-3,4,5
60584965510,14,7,9,0,2,-1,-10,-7
60584965510,-28,10,4,-2,3,2,12,6
60584966155,41,33,-1,0,2,0,-2,-4
60584966155,-26,-15,-8,-2,2,-3,2,-3
60584979710,13,43,2,1,1,-1,-5,-6
60584979710,-26,30,-2,0,-2,-3,3,-9
60584987413,-7,-2,0,0,1,3,4,14
60584987413,-5,17,-3,-2,-1,-3,-6,-5
60585002881,13,37,3,3,2,-1,-4,6
60585002881,10,31,6,0,-1,-3,8,9
60585003631,-14,-29,-6,-2,-2,4,-1,-15
60585003631,-15,4,-1,-2,0,-2,5,31
60585025365,4,-2,-10,-3,-1,2,-3,-10
60585025365,-20,32,7,0,-1,-3,-16,-17
60585026170,-23,-20,-6,-2,-4,-6,8,19
60585026170,15,24,-6,-4,0,4,3,-16
60585039785,-16,18,10,-3,-6,-5,-5,-8
60585039785,15,-16,-4,0,-1,8,7,28
60585047356,-14,11,-2,0,-9,-1,4,-14
60585047356,-16,28,0,-4,-17,-9,-13,-16
60585063096,-22,-20,-10,-1,-10,2,10,-18
60585063096,16,-5,9,-4,-10,-4,-8,19
60585063618,-4,-13,-4,-1,0,1,2,7
60585063618,55,10,-2,2,-1,3,7,-1
60585085362,3,-2,-8,-5,-4,-12,-12,4
60585085362,0,0,-8,-2,-1,-2,-4,-10
60585086119,-1,10,3,1,5,5,1,-5
60585086119,-16,31,8,2,6,0,0,-23
60585108109,5,23,-7,-1,2,-2,-1,16
60585108109,-22,28,0,3,1,-3,-4,-9
60585108656,84,89,4,-1,1,-4,-1,11
60585108656,-56,-56,-3,0,4,-1,-4,-28
60585131186,-1,14,-1,1,3,2,0,0
60585131186,4,-6,2,-1,1,1,-1,-6
60585131866,-10,-32,-9,-5,0,-8,-5,-7
60585131866,-14,-34,-7,-2,2,3,2,-5
60585145459,26,28,13,1,5,9,14,15
60585145459,-1,-79,-17,-2,3,-1,2,7
60585146137,1,33,9,0,0,-10,-13,-8
60585146137,35,-16,-9,-5,-1,-3,-5,25
60585167945,-22,2,-3,0,0,3,-4,0
60585167945,29,29,2,-2,2,2,3,-26
60585168631,-9,27,0,1,-1,-4,-6,3
60585168631,9,-34,-3,2,0,-4,-9,-1
60585192520,15,32,0,1,2,6,5,18
60585192520,0,-8,-1,-2,-4,-3,2,-21
60585193380,24,8,-6,-2,2,2,7,8
60585193380,9,46,3,-1,-1,5,5,2
60585205435,-5,-29,-1,-1,-2,-6,-3,-4
60585205435,23,14,5,3,2,0,1,12
60585206176,-41,-62,-5,-4,-6,-8,-3,-16
60585206176,36,-20,-4,-3,0,3,6,-1
60585227844,21,-36,15,3,0,-2,-2,10
60585227844,-37,-46,-10,-4,-5,-6,2,-15
60585228646,3,20,1,3,0,6,-1,-2
60585228646,-33,25,1,-2,-3,-5,-7,1
60585251154,-1,36,-4,-2,-1,-4,-4,-43
60585251154,2,-8,-8,-3,0,0,5,12
60585251807,-11,-22,6,0,1,1,-8,10
60585251807,21,-33,-3,0,-2,-4,-4,14
60585264802,-11,-25,-4,-2,0,5,9,23
60585264802,-32,-9,5,2,-2,-8,-6,3
60585273061,-19,-23,1,0,-1,0,4,-2
60585273061,31,21,3,1,1,3,3,15
60585287903,-20,-41,-11,-4,-3,-9,-8,-2
60585287903,14,1,-1,1,-2,0,-2,1
60585288656,-11,-18,0,-4,-5,-8,-12,10
60585288656,-28,-12,4,0,-1,1,-1,11
60585311035,8,21,0,0,3,-4,-6,-8
60585311035,17,-9,-1,0,4,-1,0,1
60585311805,3,-7,-4,0,4,-2,-3,11
60585311805,-4,48,6,2,-2,-5,-8,8
60585324685,-36,-15,-3,-2,0,-2,-4,-24
60585324685,-20,37,-4,-1,1,3,2,8
60585332842,-2,23,0,-1,0,4,6,47
60585332842,-2,48,5,0,7,-3,-3,110
60585347854,-20,-16,4,-2,5,0,1,108
60585347854,-11,15,5,-1,4,-1,-6,17
60585348712,8,-43,-7,-1,2,-1,5,-78
60585348712,-17,20,3,0,2,1,6,-119
60585386745,2,0,-11,-1,-4,-1,-1,-113
60585386745,6,-13,-3,0,-4,-3,-1,-92
60585387525,-27,28,0,-1,-4,1,1,-86
60585387525,10,-3,2,0,-4,-3,0,-55
60585389101,16,-51,-3,-2,-5,1,5,-48
60585389101,-24,-9,-1,-2,-4,-1,-5,-34
60585393015,5,21,3,-2,-2,3,5,-13
60585393015,11,-56,-6,-4,-6,-1,1,-12
60585416109,1,12,2,-4,-6,-3,-3,-6
60585416109,18,12,-4,0,1,4,2,6
60585416811,14,-32,0,0,-5,-8,-9,15
60585416811,-16,-12,2,1,-3,-3,-5,-9
60585431173,3,-6,-7,-3,-2,2,6,16
60585431173,24,-2,2,0,-2,-1,-2,12
60585432727,11,7,-1,-2,-3,-4,-7,13
60585432727,5,-11,-8,-2,-1,4,7,19
60585444655,3,-7,-1,1,2,0,-1,9
60585444655,-20,10,-1,-4,-3,-2,-7,1
60585452875,-1,9,-4,-3,-3,-2,7,15
60585452875,-13,7,1,3,-1,0,3,-5
60585475886,-1,25,3,1,-1,-3,-1,6
60585475886,-16,2,-3,-1,-1,-2,1,-1
60585476591,29,9,0,1,1,2,-3,4
60585476591,-14,42,2,-1,-2,-1,-1,-9
60585491131,48,19,0,-1,-3,-1,-3,-33
60585491131,-27,60,0,0,0,1,-2,-42
60585492642,-10,0,-7,-3,-1,1,8,-59
60585492642,-4,-38,1,0,-4,0,3,-83
60585504807,15,-15,-7,-3,-2,-4,2,-58
60585504807,-4,-26,-2,-2,-2,3,0,-33
60585513671,11,20,1,-1,-1,-3,-8,10
60585513671,-15,-22,-6,-6,2,6,3,58
60585527313,-3,-24,4,2,-1,-3,-5,68
60585527313,23,-31,-1,-1,-3,-3,-4,109
60585542303,-64,-4,-1,1,3,2,3,68
60585542303,21,40,5,2,-1,-5,-8,77
60585551198,-15,-3,-4,-2,-2,0,4,74
60585551198,21,14,7,1,2,1,-7,69
60585552664,-2,14,2,-2,-6,-6,-5,30
60585552664,-12,28,-2,-2,-1,0,0,16
60585564822,-1,37,3,0,0,-1,-4,7
60585564822,-8,22,-1,0,1,0,0,-7
60585573647,1,-28,-1,1,-1,-1,5,-11
60585573647,2,4,-2,-2,-1,-2,-3,-32
60585587477,-12,12,0,-2,1,-2,1,-44
60585587477,36,-25,-6,-3,-3,-3,1,-51
60585596208,10,23,1,1,0,4,0,-19
60585596208,-3,-22,0,0,-1,-2,3,1
60585611241,13,-27,-3,-3,-4,-4,-6,2
60585611241,-8,23,-4,-3,0,0,5,25
60585612710,-2,5,-2,-1,0,5,-6,7
60585612710,5,17,5,0,0,-2,5,21
60585633506,27,73,-7,0,0,2,-4,2
60585633506,-12,3,-2,1,-1,0,7,-3
60585635104,8,19,1,-3,-3,-2,0,-4
60585635104,-31,-8,-3,-1,1,-2,-1,-9
60585647908,11,-19,4,0,2,2,-3,-3
60585647908,-25,-36,-3,-1,-6,-4,-5,-4
60585654843,3,-17,-1,1,1,1,-1,-13
60585654843,-18,-51,-1,-1,-4,-2,-1,-31
60585671106,-8,4,1,-1,-10,-7,-6,17
60585671106,-9,7,-2,-2,-14,0,-2,-4
60585672622,-21,-52,-3,-2,-12,5,-7,-3
60585672622,5,-18,0,-1,-12,-2,-2,-14
60585693626,-1,-19,2,-2,-6,-2,-1,-2
60585693626,5,-34,-2,0,4,-1,0,-3
60585695157,-9,20,1,-4,1,-7,-3,8
60585695157,5,-15,-7,0,4,0,1,-20
60585707861,-14,-8,1,0,3,2,4,-6
60585707861,-4,-13,2,-2,0,-1,-7,2
60585714647,-3,-8,-4,0,1,-4,0,-10
60585714647,42,-7,-1,0,-1,-1,0,0
60585731092,-21,-25,-6,-3,2,-5,-4,-3
60585731092,-28,-23,0,-1,0,3,1,-6
60585732634,0,-9,-2,0,2,5,7,0
60585732634,-1,2,2,-3,-1,-5,-6,-1
60585761175,-17,13,-3,0,-1,3,2,-5
60585761175,10,-29,0,-1,4,-2,-4,4
60585762658,-7,26,-1,-5,5,-5,-4,-5
60585762658,0,-1,0,-2,5,-2,-1,12
60585767209,-1,7,-4,-1,9,0,-2,-5
60585767209,-3,-18,2,-1,10,3,1,-6
60585782314,-15,-17,2,1,7,-1,1,-5
60585782314,32,21,-7,-2,8,3,6,-1
60585791161,2,8,3,0,4,-2,-5,-6
60585791161,-1,9,-2,-2,-2,-7,-1,7
60585792673,3,-18,0,2,-2,-2,-3,1
60585792673,-20,13,3,1,0,-1,-2,-4
60585813532,-14,-26,-2,0,-7,1,3,7
60585813532,18,15,-6,-1,-5,4,0,-17
60585815166,10,21,3,-2,-5,0,0,19
60585815166,-1,34,0,0,-5,0,-7,2
60585827187,-6,30,-1,-3,-8,-2,8,-7
60585827187,-10,107,9,1,-4,-4,-4,-8
60585836138,15,-21,-7,-3,-5,-3,-3,-11
60585836138,-4,1,2,-1,-6,2,-6,-10
60585850959,31,20,-3,-2,-5,-1,-3,-3
60585850959,-47,14,-5,-3,-6,1,0,2
60585852601,6,14,2,0,-1,0,-7,5
60585852601,1,-13,-1,-3,-3,1,-1,16
60585873730,4,-45,0,3,2,2,-3,-11
60585873730,4,-52,-4,-2,-2,-5,-6,-14
60585875162,11,-11,0,1,-1,1,-3,8
60585875162,-12,-6,-4,-3,-4,-3,1,10
60585888041,1,-64,0,-4,1,-1,5,8
60585888041,14,-42,-1,-2,-2,0,-2,11
60585894761,-46,-69,-4,-2,1,-2,0,-7
60585894761,61,-58,-2,1,-1,-5,-4,-4
60585911038,-20,-59,0,1,-1,-3,4,-6
60585911038,13,-32,-3,-2,3,5,12,-6
60585912666,10,-11,0,1,-3,2,-8,6
60585912666,-17,7,0,1,0,-4,-8,-1
60585933619,0,23,0,-1,0,-2,0,0
60585933619,7,8,0,0,4,1,-3,-7
60585935107,-2,38,1,1,0,-3,3,-10
60585935107,1,35,0,0,-2,0,2,-1
60585947855,6,21,2,-3,-6,-6,-7,-5
60585947855,-20,17,-11,-2,-1,-2,-3,0
60585954648,7,34,2,-3,0,-4,-2,-2
60585954648,5,0,-3,-2,1,5,0,-2
60585971035,-18,27,-4,-3,-3,-4,1,2
60585971035,27,27,7,0,1,-2,-2,5
60585972647,-7,3,-3,2,2,1,0,-1
60585972647,-38,24,-7,-3,-3,-3,-5,-4
60585994199,19,70,6,3,1,2,-7,7
60585994199,3,-46,-9,-3,0,0,-4,3
60585995568,34,18,0,-1,-3,-2,7,1
60585995568,-16,6,-3,-3,1,-2,3,-6
60586008020,-8,24,-2,-2,4,4,6,7
60586008020,2,10,1,-1,-1,-5,-1,-12
60586014796,7,10,0,0,4,6,2,1
60586014796,-45,-12,4,1,3,-3,7,-2
60586030244,39,-15,0,-1,0,-1,-1,4
60586030244,-4,1,-1,-1,-2,0,-3,-6
60586038676,-5,-20,-2,-1,-4,1,12,0
60586038676,9,3,-6,0,-4,-1,-4,-3
60586053797,-15,-17,-4,0,-3,-4,5,6
60586053797,12,2,4,0,-1,3,-9,0
60586055119,28,23,-4,-2,-4,-3,-1,-8
60586055119,-14,-26,0,0,2,2,-3,2
60586067905,-10,-26,-3,-3,0,-4,-3,-13
60586067905,12,-9,0,-1,3,-3,-4,15
60586074800,-4,7,0,-2,2,-1,-1,-9
60586074800,21,-7,-4,0,1,-2,-1,6
60586091082,-18,26,5,1,4,5,-3,0
60586091082,-10,-6,-5,1,0,-9,3,-2
60586092634,-10,-6,-4,-1,-1,7,2,2
60586092634,13,18,3,-2,-5,-4,-5,-12
60586113663,-36,-43,-4,3,3,4,2,7
60586113663,5,13,-4,-3,-7,-3,11,0
60586115153,6,0,2,0,-2,-8,-10,9
60586115153,-15,3,0,-2,-3,-3,-4,-12
60586127237,16,10,-1,-1,-5,1,5,-10
60586127237,-25,-6,-1,-2,-7,-1,2,-8
60586136151,-6,-13,-1,-2,-3,-2,0,3
60586136151,-13,-13,2,0,-2,-1,0,0
60586151131,-19,11,2,-1,-9,-1,-6,-2
60586151131,19,6,1,-1,-15,-5,-1,-2
60586152620,20,5,3,-3,-10,2,-8,-4
60586152620,-18,-20,-5,-1,-6,2,-1,-4
60586173562,-10,24,-1,-1,-2,-1,-3,-11
60586173562,10,16,-1,1,2,0,5,4
60586175153,-21,-14,-1,1,1,-4,-7,1
60586175153,1,-11,-6,-2,0,-2,6,7
60586187250,24,-9,3,3,1,3,-3,-4
60586187250,-1,-7,2,0,6,-5,-4,4
60586196178,-18,0,-6,-4,9,-8,-1,-4
60586196178,10,-4,0,-2,14,0,1,-4
60586211045,7,-17,2,-1,12,2,-8,-4
60586211045,0,-19,-2,1,7,0,-7,1
60586212636,-9,-14,-4,-1,0,0,3,-2
60586212636,6,-8,-1,-2,-2,0,-4,13
60586233617,17,-3,-4,-4,-3,-8,-7,6
60586233617,-20,-16,-7,0,2,6,7,4
60586235102,1,-11,5,-1,-2,-5,-3,-12
60586235102,2,20,1,-1,-3,0,8,6
60586247330,-23,2,4,-2,-1,-3,-3,-4
60586247330,-8,-6,-9,-3,-6,-5,-2,-4
60586256180,1,20,0,1,-4,-3,5,1
60586256180,-2,-5,-5,-1,0,1,-17,-9
60586271162,-23,-30,-5,-1,-3,2,1,-1
60586271162,5,3,3,-2,2,3,3,7
60586272645,4,7,-3,1,-3,2,3,-3
60586272645,13,-7,-6,0,-2,0,7,-3
60586293616,1,28,-3,-1,-3,-2,-7,0
60586293616,-4,4,1,0,-4,1,0,-7
60586295149,38,2,1,-1,0,-1,-1,14
60586295149,-12,10,4,-1,-2,-2,1,2
60586307366,19,-10,3,0,-2,-3,2,-5
60586307366,-2,2,1,0,-6,0,0,5
60586316154,-40,-11,-4,-3,-2,0,0,-14
60586316154,-3,-11,-2,1,-6,-3,1,1
60586330982,18,-10,-4,-2,-2,-4,-5,0
60586330982,7,16,3,3,-3,-3,-3,9
60586332580,4,-24,-2,1,-1,-1,-3,-4
60586332580,-6,25,5,-1,-2,-4,4,-1
60586353542,-34,12,2,0,2,-2,-2,0
60586353542,5,22,-3,-4,3,2,-4,-5
60586355139,-6,11,-4,-2,1,-2,-3,0
60586355139,13,-18,-1,0,1,-1,2,-6
60586367313,2,-26,-2,1,0,-3,7,2
60586367313,-18,-32,-7,1,-3,-5,-12,-10
60586376124,2,2,-2,-2,-2,2,-1,4
60586376124,3,-1,1,-3,0,-2,3,11
60586391112,-22,-20,-4,-1,0,2,3,-17
60586391112,20,9,2,-2,-2,-3,0,-1
60586392619,21,2,-1,-2,0,-4,0,2
60586392619,2,-2,-1,0,-4,0,-10,-14
60586413689,6,-2,-5,-2,-1,0,5,18
60586413689,-3,14,1,-1,2,2,-6,-10
60586415153,-35,-25,-3,-1,-1,-2,-5,-11
60586415153,-3,4,2,-1,-2,2,-4,-4
60586427246,13,13,1,-4,-3,-5,-1,1
60586427246,-31,-5,2,-1,-1,-3,-4,-6
60586436152,0,6,-3,2,0,3,4,-3
60586436152,-6,21,0,2,0,-3,-6,1
60586451110,-6,-2,-3,-1,0,2,-2,0
60586451110,3,13,2,-1,0,-2,7,8
60586452621,8,7,7,2,-1,1,-3,5
60586452621,-16,1,-4,0,0,0,1,-8
60586473635,3,-2,-4,0,-2,1,-3,-3
60586473635,-20,17,2,-1,-1,-4,12,0
60586475154,16,21,-1,-3,-6,-3,-15,4
60586475154,13,-17,-6,-1,-2,-1,7,5
60586487129,-31,-5,-5,-2,-4,2,-1,-9
60586487129,28,-4,-3,-2,-2,2,-3,-1
60586503645,-3,-7,0,-3,0,-4,3,10
60586503645,-13,18,0,-4,-2,5,8,-16
60586511105,3,4,2,2,-5,-9,-4,8
60586511105,-14,-7,0,-1,2,2,-4,-6
60586512642,-6,-1,-3,-1,-3,-1,2,2
60586512642,5,6,2,2,1,-4,-5,2
60586533606,-16,-3,0,-2,-5,4,4,-6
60586533606,12,-7,-2,-3,1,-1,-1,-6
60586535101,-7,-10,-3,-3,1,-3,-1,5
60586535101,-7,-21,0,-1,-7,-5,-4,-6
60586556040,2,31,2,0,2,0,-2,-11
60586556040,2,-4,1,1,-2,-2,-2,9
60586557653,-6,-7,-1,-1,-2,-2,1,-2
60586557653,21,40,2,-2,3,2,-10,3
60586571173,-11,18,-2,-4,0,-3,5,-1
60586571173,9,-4,-1,0,-1,1,1,0
60586572625,-22,-1,1,1,0,0,1,-7
60586572625,-15,22,-3,-1,-2,0,2,3
60586593743,-4,17,1,-1,0,-4,-1,0
60586593743,1,7,-3,-1,-3,-3,-5,5
60586595069,6,14,2,-1,-1,1,1,-8
60586595069,-8,-30,-2,-1,-1,-3,-2,4
60586616150,6,-13,-2,-3,-1,1,-3,-6
60586616150,-8,-10,0,1,-2,-1,0,-1
60586617625,-9,-16,-3,0,0,8,8,-1
60586617625,8,16,-2,-4,-3,-8,-7,4
60586631157,0,-21,-3,0,-1,3,0,0
60586631157,16,3,-3,-3,-1,-4,-10,2
60586632619,-13,-18,-3,0,1,3,-7,-4
60586632619,13,8,1,0,1,-2,-4,-3
60586653660,3,-4,-1,-3,-2,-1,-1,13
60586653660,8,6,-1,-1,-1,-1,0,6
60586655153,-14,-2,-2,0,-3,-6,1,-8
60586655153,7,-22,-2,-2,-3,0,0,1
60586676271,30,6,3,0,-1,-1,-8,0
60586676271,-11,13,2,0,-1,2,8,-5
60586677622,22,15,-1,1,2,0,-3,-10
60586677622,-16,-12,-2,2,-1,-1,-1,8
60586690391,10,4,0,0,-1,-5,-1,-18
60586690391,-16,-2,-1,-1,-1,-1,0,0
60586697262,22,-4,1,-1,-1,-3,1,3
60586697262,-19,-24,-2,-1,0,-4,0,4
60586713565,-6,-5,-1,-2,1,2,6,5
60586713565,-6,6,1,-1,1,-1,-3,-3
60586715101,-11,-1,-2,-4,-2,1,-3,-3
60586715101,2,-7,0,-2,3,2,1,11
60586736133,3,6,-3,0,-2,-1,-3,2
60586736133,0,15,1,1,-1,0,-3,-12
60586737618,15,39,1,-1,-4,-3,2,7
60586737618,-12,12,0,-1,-2,3,3,-8
60586750433,4,1,-1,-1,-2,-1,-3,-2
60586750433,-2,-26,-6,-1,-2,-1,-1,2
60586757359,2,-22,5,2,-1,-3,1,1
60586757359,11,-4,-4,1,1,2,-2,-10
60586773542,-16,-27,0,0,0,-2,1,1
60586773542,22,-21,0,-2,2,-1,0,9
60586775141,-18,-12,-4,-4,-1,-5,-1,1
60586775141,17,-7,-1,-1,1,2,1,1
60586796042,-11,2,3,0,1,1,-1,-1
60586796042,-13,1,-2,-1,-3,-2,4,22
60586797652,8,-8,-6,0,-1,0,-8,-35
60586797652,-11,1,-2,-1,-3,-3,1,-4
60586809812,4,-19,-2,-4,-2,-1,1,4
60586809812,2,-14,38,0,-4,-5,-7,-11
60586818679,5,47,-71,-2,0,1,5,27
60586818679,-5,55,-17,2,-2,-2,-2,-43
60586833506,12,81,5,0,0,0,2,10
60586833506,8,63,-12,0,1,3,0,0
60586835098,-16,51,22,0,-1,-1,-1,9
60586835098,12,-5,6,-1,-1,-1,-1,3
60586856063,-14,-40,-16,1,0,-3,-1,-16
60586856063,-5,-87,0,-1,0,0,-3,-9
60586857596,-8,-77,12,-1,0,-3,-2,9
60586857596,7,-48,-3,-1,-1,-3,3,9
60586869657,7,-39,7,-1,1,-1,1,-4
60586869657,-7,3,-6,0,-2,-1,-3,3
60586878674,6,-44,9,-2,-1,0,-2,-15
60586878674,-2,-49,5,-5,-1,-4,1,0
60586893690,6,-49,0,-2,-3,-2,-2,12
60586893690,-9,-30,-7,1,0,-4,0,-25
60586895147,0,-16,-2,-3,-1,-4,-3,7
60586895147,-6,-2,4,0,-4,-4,-10,-12
60586916081,7,14,-2,1,-2,-1,-1,-6
60586916081,-2,9,-6,-1,-1,0,4,16
60586917637,0,9,11,0,-3,-1,-1,5
60586917637,-1,2,-2,-2,-2,2,3,17
60586929789,0,5,-3,0,1,-3,-4,-15
60586929789,-8,10,-5,-2,-1,0,-3,3
60586938612,3,-1,2,0,-1,-1,2,-3
60586938612,-7,4,0,-2,1,0,0,0
60586961053,5,-4,-6,1,-2,-1,-1,13
60586961053,9,9,4,-2,0,-2,0,-3
60586962640,-14,8,0,-3,-2,-2,-5,0
60586962640,-4,9,0,2,0,2,-1,-9
60586976096,-1,20,0,-2,-1,-1,0,-10
60586976096,2,19,-3,-1,3,-2,1,1
60586977624,9,25,1,-2,-1,-4,-1,8
60586977624,-6,15,1,-1,0,3,2,-2
60586989826,6,12,3,-2,-2,0,-1,5
60586989826,-2,-1,-9,-1,-1,0,-1,10
60586998652,-9,-7,-1,-1,-2,-2,-5,-14
60586998652,-1,0,-1,-1,-2,-3,-1,6
60587013624,-4,3,-1,-1,-1,0,2,-8
60587013624,-2,10,0,-4,-2,2,3,-11
60587015107,7,9,1,2,2,0,0,7
60587015107,15,-3,1,-3,-3,0,-1,0
60587036054,0,0,-3,1,-2,-2,-1,11
60587036054,-5,-4,-2,-1,0,-3,-1,-11
60587037617,-5,-11,0,1,1,1,-1,5
60587037617,9,-4,2,0,-2,0,-4,11
60587049774,5,-6,1,0,-1,-2,-1,0
60587049774,-16,-8,-2,-2,-3,-4,-2,-25
60587058655,-2,4,0,-2,0,0,3,-3
60587058655,-3,4,-2,-1,2,0,4,6
60587073611,-2,0,1,-1,-4,-1,0,-8
60587073611,8,-6,-1,0,0,1,-4,4
60587075108,4,-5,0,-3,-1,0,-3,7
60587075108,-5,-6,-2,-1,0,0,-4,-17
60587096063,-3,-3,-2,-2,-2,-3,-4,1
60587096063,0,1,1,-2,1,3,3,-7
60587097667,1,-4,3,-1,-1,-3,-2,-8
60587097667,4,-3,-1,0,-2,-3,2,5
60587109733,-1,2,-1,-1,2,-1,-1,13
60587109733,-1,5,0,0,-1,2,-4,-25
60587118650,3,4,-2,-2,-3,1,1,19
60587118650,3,5,-1,-2,-4,-2,-1,11
60587133609,-12,1,0,-1,2,-2,-2,-10
60587133609,3,-1,-2,-1,-3,-3,2,19
60587135137,6,-2,-2,-1,0,1,-4,-14
60587135137,4,1,-3,2,2,0,-1,12
60587156060,-7,-2,-5,0,-3,-1,0,-4
60587156060,6,7,-2,0,-3,0,0,29
60587157596,-4,5,1,2,1,1,4,-25
60587157596,-9,2,0,-3,0,-3,-5,-9
60587169795,6,9,2,-1,-3,0,2,-11
60587169795,-4,3,-1,-1,2,-3,-2,-2
60587178680,6,3,0,1,-1,-4,0,1
60587178680,-8,-4,0,0,-1,-4,-7,-3
60587193660,0,-5,0,-1,2,7,5,3
60587193660,0,-2,-2,-2,-4,-3,-2,9
60587195123,-2,2,1,-1,-1,-2,2,-7
60587195123,5,8,-4,0,-2,0,-1,-2
60587216110,-5,3,-1,0,-1,-4,-8,-5
60587216110,-7,4,0,-2,2,5,-1,2
60587217609,-2,2,-1,-2,-1,1,0,-13
60587217609,-9,1,-1,-1,-3,-4,5,17
60587229787,9,0,-4,-1,-2,-6,-1,25
60587229787,-2,-1,-1,2,0,2,-2,-31
60587238618,-1,0,-2,0,3,0,0,-4
60587238618,-17,-3,-1,-1,-2,-2,-1,-27
60587253592,3,-5,2,-1,1,3,2,12
60587253592,14,-8,0,-1,-2,-2,4,12
60587255084,-9,-8,0,-2,-1,-3,-3,-4
60587255084,20,-2,-1,-2,0,2,-1,-2
60587276208,4,0,-2,1,1,2,1,-13
60587276208,-5,0,-5,-3,-1,-3,0,-3
60587277628,6,1,0,1,0,5,-1,4
60587277628,0,0,-2,-1,-3,-3,-1,17
60587289786,-3,-2,0,-3,-3,-4,-2,-18
60587289786,-8,-4,-1,0,-2,-5,0,8
60587298623,-2,-3,1,-1,-2,-1,-6,-14
60587298623,-10,0,2,1,1,3,1,-7
60587312960,-3,-5,0,-1,-1,-2,-1,9
60587312960,-1,-8,-4,-1,-1,-1,-3,12
60587319840,-3,-5,-5,-1,-3,-4,0,-20
60587319840,-3,1,-4,-2,-2,-2,2,-14
60587336057,5,3,-2,-2,-2,-1,-1,5
60587336057,0,-1,-1,-3,-2,-5,4,5
60587337631,2,-2,2,-1,-1,-2,-7,20
60587337631,4,-2,2,-3,1,-3,-6,-4
60587349746,3,-5,1,-2,-2,0,1,-2
60587349746,9,-5,0,1,-2,-2,-5,-2
60587358679,2,-5,0,0,-5,-2,2,3
60587358679,2,-6,0,1,-3,0,-1,3
60587372893,-7,-10,-2,-1,-5,-1,-1,-11
60587372893,7,-7,2,0,-6,4,7,1
60587379735,-13,-2,-1,-3,-7,1,1,13
60587379735,9,-4,0,-1,-7,-1,2,4
60587396175,-17,-2,-2,-1,-3,-2,-2,-15
60587396175,-6,8,0,-2,-4,-3,-3,-8
60587397629,-5,2,-2,1,-3,-3,-1,-14
60587397629,-15,3,-3,-1,1,4,3,-5
60587409691,9,6,1,1,-4,-1,-1,13
60587409691,-8,7,0,3,4,1,-5,-1
60587418627,1,7,0,-1,1,-4,-3,7
60587418627,-2,3,-1,-2,2,-4,-1,-4
60587432907,-9,2,-4,-2,0,-2,-3,-7
60587432907,2,-13,-1,-1,4,0,2,-5
60587439713,6,-14,3,0,1,1,3,3
60587439713,-1,-15,-2,-2,0,-7,-4,-1
60587456087,2,-14,-2,-2,3,-1,0,5
60587456087,-2,-9,-4,-4,1,-3,-3,-21
60587457641,-14,-4,-1,-1,3,-1,-1,7
60587457641,-7,-4,1,1,4,2,8,-10
60587469778,3,-3,0,0,4,1,-11,-20
60587469778,3,-1,0,1,2,0,1,3
60587478677,-6,-2,-2,1,1,-6,-2,-12
60587478677,-5,-2,0,0,0,-3,-3,-11
60587492956,0,5,-1,-2,1,-2,1,-10
60587492956,-6,2,-2,-3,-2,-1,-1,-21
60587499888,1,4,1,0,0,2,1,-6
60587499888,-6,4,-2,-4,-5,-6,1,16
60587516154,-3,2,0,2,1,-1,0,5
60587516154,6,5,3,1,4,1,1,7
60587517635,-9,-2,-1,-3,-1,-5,-3,-35
60587517635,9,4,1,0,5,8,1,-10
60587538605,2,-3,-3,-2,-3,2,2,4
60587538605,-10,2,-3,-1,-1,-3,-6,-8
60587540106,13,5,-3,-2,0,-1,3,17
60587540106,-5,3,-2,0,-1,-2,-5,-29
60587552970,1,2,-1,-4,-3,-2,2,6
60587552970,-2,-1,-2,0,-4,-1,2,-9
60587559957,2,0,-1,-1,-1,-1,0,13
60587559957,9,0,-3,-2,-3,-2,-3,15
60587577406,-7,1,-2,-2,-4,-2,2,1
60587577406,6,1,0,0,-1,-1,1,8
60587579052,-14,1,-2,0,2,0,-8,-31
60587579052,13,0,2,-1,-4,2,0,6
60587598642,6,1,-2,0,0,0,1,14
60587598642,0,-1,-1,-3,-3,-3,-6,-10
60587600107,5,2,-3,-1,1,0,5,34
60587600107,-5,4,1,1,1,-3,2,22
60587612307,0,1,1,-1,-1,0,-5,-21
60587612307,5,-1,-1,-1,-4,-3,0,33
60587621151,1,2,2,-1,-5,-3,-3,11
60587621151,-2,-1,-2,-1,-2,2,2,4
60587636223,-9,0,-3,0,1,1,-1,-10
60587636223,-3,0,0,-1,-2,0,0,3
60587637588,2,1,-3,-1,0,0,2,2
60587637588,-4,1,-2,-1,-1,-3,-3,15
60587658713,0,3,-2,-2,-2,0,0,-17
60587658713,-6,0,-2,1,-1,1,-2,12
60587660126,-7,1,1,-3,-2,-1,1,7
60587660126,9,2,-3,-3,-1,-2,-4,9
60587672205,14,1,1,-1,2,0,-1,31
60587672205,1,-2,-3,-3,-1,-5,-4,-2
60587681129,0,-4,-2,0,-2,3,1,-17
60587681129,4,1,0,-1,0,1,0,6
60587696123,-4,-6,0,0,-2,-4,1,27
60587696123,-3,-1,1,1,0,2,-1,16
60587697589,0,-6,-3,-3,-4,-3,-5,-9
60587697589,-9,-9,-1,-1,-1,-1,0,-9
60587718677,-1,-4,-1,1,-1,-4,-1,-1
60587718677,-2,0,-1,-1,-2,0,1,25
60587720186,-6,-3,-2,-1,1,-4,-1,11
60587720186,-1,2,1,1,0,0,-3,-18
60587732260,-2,1,1,-1,-4,-3,0,5
60587732260,17,1,-3,-2,0,2,2,-9
60587741150,15,3,1,1,2,2,0,6
60587741150,-10,-3,-4,-1,1,-4,-3,2
60587756038,-16,0,0,-3,-1,-1,-5,-30
60587756038,-17,1,-2,0,-4,-2,1,-9
60587757605,-5,-4,-1,0,-1,0,0,31
60587757605,-4,-4,0,-2,-1,-2,-2,8
60587778470,3,-3,-2,-3,-3,-1,-2,-7
60587778470,-1,-4,1,-1,0,-3,-1,-13
60587780065,0,2,1,-3,-1,-1,-1,9
60587780065,-4,2,4,1,0,-1,0,-5
60587792302,-4,3,4,1,3,-1,-1,-13
60587792302,1,2,-3,-2,-1,-3,-6,0
60587801226,-12,-3,9,2,-1,1,-1,-23
60587801226,7,3,2,-3,-5,-1,0,0
60587815971,0,-1,-11,-2,-1,-1,0,9
60587815971,-1,-1,-4,2,0,0,2,10
60587817609,1,-1,0,0,-1,-2,-4,-12
60587817609,2,-2,-3,0,-3,2,-3,0
60587838698,1,2,2,-1,-2,-1,1,-5
60587838698,1,7,5,-1,-1,-2,-4,-11
60587840138,-1,1,-8,-2,1,-2,0,-1
60587840138,1,-4,-3,-2,-2,-3,-3,20
60587852300,-2,-3,-4,0,1,1,0,-3
60587852300,0,-6,-3,-3,-2,-1,-3,-5
60587861103,1,0,1,-1,-4,0,-1,-11
60587861103,3,-7,-3,0,-1,-2,-1,2
60587876133,3,1,9,-1,-1,-1,-1,12
60587876133,-8,-7,-1,-3,-1,-3,-1,-12
60587877629,1,-5,-1,-2,-2,-1,1,0
60587877629,-5,-3,1,-3,-2,-1,1,-27
60587898629,-1,-17,7,1,0,0,1,0
60587898629,3,-6,-2,0,-2,-1,-1,-5
60587900103,1,0,-4,-4,0,0,2,6
60587900103,2,-4,-8,1,1,-1,1,3
60587912252,-2,-1,0,-1,2,0,-4,-5
60587912252,-8,-2,1,2,0,-1,0,-2
60587921132,-1,-4,-2,-4,-2,-3,-5,16
60587921132,-1,2,4,-2,-2,-1,1,-2
60587936092,4,2,-3,-1,-9,0,0,-5
60587936092,0,3,-1,-2,-7,-1,-2,-2
60587937594,3,4,0,0,-4,3,1,-13
60587937594,-2,3,-1,0,0,0,1,-8
60587958608,-1,-1,-3,-2,6,-1,0,16
60587958608,-2,-3,-5,-2,9,0,0,-9
60587960139,3,2,-2,2,9,1,0,8
60587960139,5,0,-2,2,6,-1,0,-20
60587972234,-2,-2,-4,-1,3,-3,-1,26
60587972234,-2,2,2,0,0,-2,0,-3
60587981135,-3,-1,-1,0,0,-2,0,-17
60587981135,0,2,7,0,-3,-2,-3,-44
60587996106,2,7,-7,-1,-2,-3,-3,-21
60587996106,-5,-3,14,0,-5,0,-2,-29
60587997624,-2,-1,-2,0,-7,-2,-1,-70
60587997624,-3,-5,-6,-1,-5,0,-3,-109
60588018697,-1,-5,-6,1,-1,-3,-2,-128
60588018697,7,3,3,-3,0,0,0,-66
60588020127,-5,-8,-8,-3,-3,-1,0,49
60588020127,-6,0,0,-1,0,-1,-2,17
60588032207,1,-3,6,0,-2,0,-2,21
60588032207,-2,-3,-6,-1,-2,-1,1,67
60588041175,3,1,1,0,-3,1,1,92
60588041175,3,4,0,-1,-1,1,2,127
60588056210,-6,1,-5,-2,-3,-4,-1,127
60588056210,-1,3,-1,-2,-2,1,-1,111
60588057617,1,4,-2,-1,-1,-3,-2,70
60588057617,1,3,2,-1,-2,0,-1,80
60588078618,-2,4,1,-1,-4,-1,0,29
60588078618,2,3,-3,1,-1,-3,-2,-3
60588080078,-6,2,3,0,2,0,-4,-29
60588080078,0,5,-3,-3,-3,-1,-1,-2
60588092237,-1,5,0,0,0,1,0,-19
60588092237,-6,0,-6,-2,-1,-2,-4,-31
60588101168,-1,2,8,-2,0,2,0,-34
60588101168,0,-5,-3,-2,1,-2,-3,-32
60588116011,0,-3,1,-2,-2,0,1,-20
60588116011,-1,7,-1,1,0,0,2,-15
60588117644,-1,9,-1,-3,1,-2,-3,-36
60588117644,-5,4,-5,-1,-1,2,-1,-19
60588138682,1,6,1,-1,1,-2,0,-15
60588138682,0,-3,-4,-1,-3,-4,1,-6
60588140105,-2,-7,-5,0,-2,-2,0,-21
60588140105,-2,-3,-1,0,0,-1,-2,-11
60588152234,-1,-5,-5,1,-2,-1,-4,-12
60588152234,-2,0,-1,-1,-2,1,-1,-19
60588168616,0,5,0,-4,-3,-3,0,-25
60588168616,3,-11,-2,-3,-2,-3,1,12
60588176071,-1,-7,2,-1,-1,-2,-1,-9
60588176071,0,-10,-1,1,-2,-2,0,-7
60588177568,-1,-8,0,-1,-2,0,-1,-11
60588177568,-4,-5,-1,-2,0,-1,-4,-6
60588198741,-3,1,-5,-2,0,2,0,-10
60588198741,1,5,-1,2,-1,-2,0,5
60588200102,2,-5,-1,2,-1,-1,-3,-6
60588200102,-6,0,-1,0,1,-2,-1,-10
60588212236,0,2,1,-1,-2,1,2,-7
60588212236,-8,-3,-2,-3,-1,-3,0,-7
60588221125,1,-3,-1,-1,-1,-1,-1,17
60588221125,-1,-6,-3,-4,-4,-2,-3,-3
60588236051,1,-7,-6,-4,0,-2,-3,-2
60588236051,1,7,-3,-3,0,-1,-5,0
60588237580,0,-1,-6,-1,-1,-4,-2,-5
60588237580,-2,4,2,1,0,0,1,-4
60588258610,-2,1,-3,1,0,-1,0,-4
60588258610,3,-4,0,0,-3,1,-1,1
60588260100,0,-3,1,-1,-4,0,0,3
60588260100,2,-5,12,1,-2,-2,0,-2
60588272177,6,-6,-8,-2,-3,-3,-2,6
60588272177,-11,-12,1,-1,-2,0,-2,-9
60588281131,-2,-12,0,0,0,2,1,-6
60588281131,-6,-8,-1,-1,-1,-2,-1,0
60588296140,1,-2,1,0,0,1,0,-7
60588296140,4,-1,-2,0,1,1,0,8
60588297596,1,4,-2,-1,0,-2,-2,6
60588297596,0,0,-5,-1,0,0,-4,-14
60588318677,-3,1,2,-2,-2,-2,-1,1
60588318677,-1,2,-2,0,0,-1,0,2
60588320118,3,12,-2,-1,1,0,0,-6
60588320118,1,3,-3,-3,-2,-3,0,-1
60588332136,-1,-4,2,-1,0,-1,-1,3
60588332136,1,-2,3,0,1,-1,0,-4
60588341163,-8,-7,-2,-2,1,-1,-2,-5
60588341163,3,-4,-5,-1,-1,1,-1,2
60588356013,-3,-5,-1,-2,-3,-1,-1,1
60588356013,0,-4,-1,-1,-2,-2,-1,-1
60588357624,2,-3,0,-1,-2,-4,0,-3
60588357624,-1,3,-7,2,-2,-1,-1,0
60588378629,-3,-1,-1,-2,0,2,1,2
60588378629,3,2,-2,-3,-5,1,0,-4
60588380076,-3,1,2,-1,-1,-2,-1,-4
60588380076,-1,0,0,0,1,1,-2,0
60588392286,-2,-11,2,1,2,1,-1,-2
60588392286,-1,-7,-2,-2,0,-2,-1,2
60588401198,0,-10,3,1,-3,0,1,-5
60588401198,-3,-7,-19,-2,0,-5,1,-6
60588416086,1,-1,-4,0,0,-2,-1,1
60588416086,0,2,1,-2,-1,-3,1,-7
60588417628,5,7,-2,-2,-1,-1,-2,4
60588417628,-8,13,5,-1,0,-1,-1,-10
60588438585,-5,20,1,-1,-2,-1,-2,1
60588438585,6,18,-2,-1,-1,-2,-2,-1
60588440086,-2,20,-1,-1,-6,-3,-2,2
60588440086,0,4,2,0,1,-3,0,5
60588461137,-3,-13,-1,0,-3,1,-2,-1
60588461137,-1,-22,-1,-2,2,0,-3,-10
60588462627,0,-23,-1,-1,-1,2,-4,9
60588462627,2,-15,2,-2,0,3,-1,-5
60588476072,-4,-6,-2,1,-1,-3,-2,0
60588476072,-1,-7,-2,-1,-1,1,1,2
60588477615,-2,-8,-4,-3,0,-3,1,-3
60588477615,4,-7,0,0,-6,1,-3,-1
60588498703,25,2,-6,-3,-1,-2,3,2
60588498703,41,1,1,-1,1,0,-2,3
60588500098,26,3,-4,1,2,1,1,-3
60588500098,-2,9,4,-2,-1,-3,-2,1
60588521092,-26,1,2,1,-3,1,0,2
60588521092,-42,1,-3,-2,-4,-2,-3,3
60588522621,-30,-11,-3,-3,-4,-2,-1,4
60588522621,-13,-6,-2,-4,-3,-1,-3,-7
60588536569,-6,-1,1,-2,-1,-4,-1,-1
60588536569,-12,-3,11,1,-2,-1,-2,-8
60588538027,-1,1,-2,2,-3,-1,1,1
60588538027,1,1,0,-1,0,-1,2,8
60588558588,0,4,-1,-2,-1,-1,0,2
60588558588,-2,-2,0,2,-2,0,0,-6
60588560024,-2,0,-1,-1,1,-2,0,-9
60588560024,4,-4,-1,1,-1,-3,-2,0
60588581081,4,-1,0,0,1,2,1,-5
60588581081,0,-2,-2,-2,3,-1,0,3
60588582609,-3,3,-3,1,1,2,-2,-7
60588582609,6,4,-3,-1,1,0,1,6
60588595502,3,3,1,-1,-1,-1,-3,-2
60588595502,6,9,-4,-1,1,-4,1,6
60588602236,-9,-4,-3,0,1,-1,-2,-1
60588602236,-1,-4,1,-1,2,-1,-2,-7
60588618627,-2,-10,-1,0,-2,-1,-1,-4
60588618627,-8,-9,-3,1,1,1,0,-10
60588620087,6,-1,-3,-2,-3,-1,-2,15
60588620087,1,8,-2,-3,-2,1,0,3
60588641050,-5,9,-1,-3,-1,-3,-3,-1
60588641050,-1,1,-4,-1,-1,-3,-2,2
60588642615,1,1,-2,0,0,-1,-1,-8
60588642615,-1,-6,2,-1,-1,-2,0,-1
60588655362,4,-2,-5,-1,-1,-5,-2,5
60588655362,-3,-14,0,-3,1,-1,-2,6
60588662207,3,2,9,1,-4,1,-1,-5
60588662207,-3,-2,-19,-3,-2,0,-1,0
60588678585,-2,5,-1,0,0,-1,0,-6
60588678585,8,5,-4,0,-2,-4,0,4
60588680096,-3,9,1,-2,3,-2,0,-4
60588680096,-8,7,1,1,-2,-4,1,-9
60588700974,2,1,6,-1,-1,2,-2,5
60588700974,0,-6,-5,0,-3,-1,0,0
60588702568,-2,-11,1,-3,-1,-1,-3,-1
60588702568,0,-9,3,-2,-1,-1,0,-1
60588715372,15,-12,-1,0,-1,-2,0,-9
60588715372,9,3,0,-2,-1,-1,1,13
60588722291,1,5,-5,-1,0,0,-1,2
60588722291,-3,4,1,-2,-3,-2,-1,3
60588738698,-11,4,1,0,0,1,0,-2
60588738698,-7,5,-1,-1,-4,0,-1,2
60588740104,-5,-4,-2,1,-1,-1,-1,-7
60588740104,-4,-7,-2,0,2,-2,-2,2
60588760341,-4,-7,-1,0,0,-2,-2,4
60588760341,-3,-2,0,-2,-2,1,-2,-6
60588761086,-9,0,-3,-1,-2,-1,-2,-9
60588761086,8,1,3,-1,-4,-2,-2,0
60588774740,-9,0,-1,-2,-2,-1,-3,-5
60588774740,-2,-3,-2,0,-1,-2,0,-2
60588782904,1,-3,-3,-3,-4,0,2,0
60588782904,2,2,-2,-1,0,1,0,4
60588797895,-1,2,-2,-4,1,-3,0,0
60588797895,-4,2,-2,-2,0,-1,-1,-9
60588798602,2,-5,-1,-1,-2,-2,0,5
60588798602,0,-7,2,1,-1,-1,-3,-5
