61007606305,-0.65283203125,-0.593200683594,-0.138366699219,0.450317382812
61007627623,-0.65283203125,-0.593200683594,-0.138366699219,0.450378417969
61007642763,-0.653381347656,-0.594177246094,-0.137329101562,0.448608398438
61007666260,-0.653076171875,-0.595458984375,-0.138427734375,0.446960449219
61007687777,-0.653991699219,-0.595703125,-0.137145996094,0.445678710938
61007702541,-0.654357910156,-0.596008300781,-0.136840820312,0.444885253906
61007726394,-0.651611328125,-0.59619140625,-0.141967773438,0.447082519531
61007747775,-0.650512695312,-0.595947265625,-0.143493652344,0.448547363281
61007792698,-0.6494140625,-0.594665527344,-0.143859863281,0.45166015625
61007803324,-0.650329589844,-0.594665527344,-0.142395019531,0.450866699219
61007805295,-0.6513671875,-0.594909667969,-0.140869140625,0.449462890625
61007824467,-0.651794433594,-0.595764160156,-0.141540527344,0.447448730469
61007837686,-0.653991699219,-0.595825195312,-0.137634277344,0.445373535156
61007854062,-0.653930664062,-0.596252441406,-0.137084960938,0.445129394531
61007879101,-0.653930664062,-0.59619140625,-0.137084960938,0.445190429688
61007904967,-0.653869628906,-0.59619140625,-0.137145996094,0.445251464844
61007916784,-0.653869628906,-0.59619140625,-0.137084960938,0.4453125
61007935636,-0.654174804688,-0.596252441406,-0.136596679688,0.444946289062
61007958136,-0.65283203125,-0.594848632812,-0.138244628906,0.448181152344
61007972522,-0.65185546875,-0.595825195312,-0.140319824219,0.447692871094
61007995081,-0.6513671875,-0.595947265625,-0.141296386719,0.447937011719
61008017473,-0.650268554688,-0.595825195312,-0.142944335938,0.449279785156
61008032340,-0.6474609375,-0.594421386719,-0.145812988281,0.454162597656
61008054863,-0.6494140625,-0.593627929688,-0.140319824219,0.454162597656
61008077505,-0.653198242188,-0.593994140625,-0.131042480469,0.450988769531
61008099850,-0.653137207031,-0.594421386719,-0.125793457031,0.451965332031
61008114956,-0.648376464844,-0.593505859375,-0.124938964844,0.460205078125
61008137579,-0.644836425781,-0.590698242188,-0.120056152344,0.469970703125
61008159871,-0.645935058594,-0.587463378906,-0.103515625,0.476501464844
61008174994,-0.646545410156,-0.581604003906,-0.082275390625,0.48681640625
61008197501,-0.647827148438,-0.5732421875,-0.0614624023438,0.497985839844
61008212544,-0.653930664062,-0.561096191406,-0.0393676757812,0.505981445312
61008234998,-0.665771484375,-0.544738769531,-0.0164794921875,0.509704589844
61008257488,-0.682250976562,-0.525390625,0.00885009765625,0.508422851562
61008272509,-0.702819824219,-0.503967285156,0.03564453125,0.500854492188
61008294992,-0.724731445312,-0.481872558594,0.0633544921875,0.488464355469
61008317480,-0.744079589844,-0.459045410156,0.094482421875,0.476196289062
61008332442,-0.761962890625,-0.435729980469,0.127990722656,0.461669921875
61008354976,-0.77734375,-0.412902832031,0.162963867188,0.44580078125
61008377502,-0.789367675781,-0.390319824219,0.19970703125,0.429870605469
61008392468,-0.797912597656,-0.36767578125,0.237243652344,0.414611816406
61008415014,-0.802978515625,-0.346435546875,0.274353027344,0.399963378906
61008437465,-0.805908203125,-0.327575683594,0.309753417969,0.3837890625
61008452419,-0.806945800781,-0.312194824219,0.343078613281,0.365661621094
61008475068,-0.8056640625,-0.300598144531,0.374389648438,0.346923828125
61008497465,-0.802551269531,-0.293701171875,0.402526855469,0.328063964844
61008512462,-0.797729492188,-0.290710449219,0.427795410156,0.310119628906
61008534837,-0.791442871094,-0.290161132812,0.450012207031,0.294860839844
61008557429,-0.784912109375,-0.29052734375,0.469055175781,0.281921386719
61008575355,-0.77880859375,-0.290954589844,0.485046386719,0.271301269531
61008594964,-0.772338867188,-0.291381835938,0.498718261719,0.264282226562
61008617467,-0.766296386719,-0.291870117188,0.510314941406,0.259094238281
61008632488,-0.761535644531,-0.292297363281,0.519348144531,0.254821777344
61008662406,-0.7587890625,-0.291687011719,0.525085449219,0.251831054688
61008677469,-0.758361816406,-0.287902832031,0.527587890625,0.252319335938
61008692490,-0.760375976562,-0.281616210938,0.526733398438,0.255065917969
61008714991,-0.76611328125,-0.272888183594,0.521118164062,0.259033203125
61008737493,-0.775573730469,-0.26123046875,0.510375976562,0.264221191406
61008752419,-0.787536621094,-0.24658203125,0.495361328125,0.271362304688
61008774877,-0.800659179688,-0.231323242188,0.47607421875,0.28076171875
61008797486,-0.814636230469,-0.216552734375,0.453552246094,0.289428710938
61008812461,-0.82861328125,-0.203369140625,0.428588867188,0.297302246094
61008834948,-0.841186523438,-0.191284179688,0.402404785156,0.306579589844
61008857573,-0.851867675781,-0.180725097656,0.375610351562,0.317138671875
61008872488,-0.860595703125,-0.172424316406,0.350952148438,0.326416015625
61008896389,-0.866943359375,-0.167724609375,0.330444335938,0.333312988281
61008917420,-0.871704101562,-0.16796875,0.313903808594,0.336730957031
61008941370,-0.873229980469,-0.173095703125,0.303588867188,0.339599609375
61008956351,-0.87158203125,-0.18359375,0.299987792969,0.341613769531
61008977535,-0.866516113281,-0.199401855469,0.302490234375,0.343383789062
61008995342,-0.858520507812,-0.219360351562,0.309265136719,0.34521484375
61009017743,-0.847290039062,-0.241821289062,0.319396972656,0.348815917969
61009037329,-0.834106445312,-0.265747070312,0.330505371094,0.352844238281
61009055275,-0.820007324219,-0.290405273438,0.341064453125,0.356323242188
61009076332,-0.805908203125,-0.315612792969,0.349914550781,0.358459472656
61009097483,-0.792236328125,-0.340942382812,0.355895996094,0.359802246094
61009115333,-0.779357910156,-0.365173339844,0.359191894531,0.360900878906
61009137726,-0.767883300781,-0.387268066406,0.359680175781,0.361938476562
61009157411,-0.7578125,-0.406616210938,0.357849121094,0.363830566406
61009175365,-0.748657226562,-0.423461914062,0.353942871094,0.367370605469
61009197782,-0.740417480469,-0.435913085938,0.350158691406,0.373046875
61009217482,-0.734985351562,-0.443786621094,0.345336914062,0.379028320312
61009235290,-0.731994628906,-0.447387695312,0.339782714844,0.385498046875
61009257782,-0.731628417969,-0.447570800781,0.332336425781,0.392395019531
61009278129,-0.734741210938,-0.443908691406,0.321960449219,0.399353027344
61009295232,-0.741882324219,-0.435974121094,0.307983398438,0.405822753906
61009316972,-0.751525878906,-0.424255371094,0.290588378906,0.413269042969
61009338129,-0.763000488281,-0.409606933594,0.269653320312,0.421142578125
61009354460,-0.775390625,-0.392578125,0.246520996094,0.428833007812
61009376996,-0.787902832031,-0.374328613281,0.2216796875,0.435913085938
61009398592,-0.799682617188,-0.356018066406,0.196228027344,0.44189453125
61009414544,-0.81005859375,-0.337951660156,0.172485351562,0.447082519531
61009436724,-0.818786621094,-0.321350097656,0.151062011719,0.451110839844
61009458197,-0.825134277344,-0.306579589844,0.132690429688,0.45556640625
61009474436,-0.828918457031,-0.293579101562,0.1181640625,0.461242675781
61009497458,-0.831604003906,-0.283264160156,0.107238769531,0.465515136719
61009518151,-0.83349609375,-0.276428222656,0.0992431640625,0.468078613281
61009534422,-0.834228515625,-0.273254394531,0.0938720703125,0.469665527344
61009556958,-0.834350585938,-0.272766113281,0.090576171875,0.470458984375
61009578088,-0.833923339844,-0.274536132812,0.0887451171875,0.470458984375
61009594447,-0.833068847656,-0.277893066406,0.0880126953125,0.470153808594
61009616961,-0.831970214844,-0.282348632812,0.0875244140625,0.469604492188
61009638084,-0.8310546875,-0.287536621094,0.0872192382812,0.468017578125
61009654451,-0.830261230469,-0.293334960938,0.086669921875,0.465942382812
61009683106,-0.829467773438,-0.299743652344,0.0858764648438,0.463500976562
61009698138,-0.828491210938,-0.306640625,0.084716796875,0.4609375
61009714431,-0.827331542969,-0.314208984375,0.0828857421875,0.458251953125
61009736966,-0.825927734375,-0.322692871094,0.0801391601562,0.455322265625
61009758137,-0.823913574219,-0.332824707031,0.0760498046875,0.452392578125
61009774414,-0.821044921875,-0.345153808594,0.071044921875,0.449096679688
61009796938,-0.817077636719,-0.359497070312,0.0652465820312,0.446044921875
61009818065,-0.812072753906,-0.375610351562,0.058349609375,0.442810058594
61009834462,-0.806030273438,-0.392456054688,0.0507202148438,0.440185546875
61009856961,-0.79931640625,-0.409118652344,0.0416870117188,0.438232421875
61009878084,-0.790832519531,-0.42578125,0.03173828125,0.438537597656
61009893756,-0.781005859375,-0.442993164062,0.0206298828125,0.439819335938
61009916935,-0.770751953125,-0.460327148438,0.00927734375,0.440490722656
61009938224,-0.761962890625,-0.476318359375,-0.001708984375,0.438842773438
61009953845,-0.754699707031,-0.490234375,-0.0126342773438,0.435852050781
61009976969,-0.74755859375,-0.502502441406,-0.0239868164062,0.433776855469
61009998132,-0.737548828125,-0.514770507812,-0.0341796875,0.435791015625
61010013792,-0.726379394531,-0.526733398438,-0.0436401367188,0.439453125
61010036885,-0.716247558594,-0.536987304688,-0.0534057617188,0.442504882812
61010057920,-0.707214355469,-0.545776367188,-0.0629272460938,0.445007324219
61010073780,-0.698364257812,-0.553955078125,-0.0725708007812,0.447448730469
61010096945,-0.688049316406,-0.562438964844,-0.0838623046875,0.450866699219
61010119435,-0.677307128906,-0.569274902344,-0.0939331054688,0.456481933594
61010133791,-0.67041015625,-0.573791503906,-0.105041503906,0.458618164062
61010156911,-0.66943359375,-0.57568359375,-0.115173339844,0.455261230469
61010179393,-0.671508789062,-0.575622558594,-0.120422363281,0.450866699219
61010193779,-0.671020507812,-0.576782226562,-0.120971679688,0.450012207031
61010216934,-0.666687011719,-0.579895019531,-0.117980957031,0.453186035156
61010239476,-0.662353515625,-0.582397460938,-0.1142578125,0.457275390625
61010260626,-0.660034179688,-0.583740234375,-0.113159179688,0.459228515625
61010276944,-0.659118652344,-0.584838867188,-0.114318847656,0.458801269531
61010299497,-0.659301757812,-0.585571289062,-0.116394042969,0.457092285156
61010328093,-0.660278320312,-0.585693359375,-0.119018554688,0.454833984375
61010336937,-0.661437988281,-0.585632324219,-0.122375488281,0.452331542969
61010359411,-0.662048339844,-0.585205078125,-0.125244140625,0.451232910156
61010388154,-0.662414550781,-0.584350585938,-0.126770019531,0.451354980469
61010396962,-0.663208007812,-0.583251953125,-0.1279296875,0.451293945312
61010419433,-0.663635253906,-0.582580566406,-0.128723144531,0.451354980469
61010433758,-0.663391113281,-0.582275390625,-0.129272460938,0.451965332031
61010456965,-0.662902832031,-0.582275390625,-0.129577636719,0.452514648438
61010479435,-0.662658691406,-0.582275390625,-0.130065917969,0.452758789062
61010493744,-0.662658691406,-0.582275390625,-0.130493164062,0.452575683594
