60759270576,-0.653686523438,-0.596801757812,-0.107727050781,0.452758789062
60759291857,-0.653442382812,-0.5966796875,-0.108276367188,0.453125
60759306910,-0.655212402344,-0.595397949219,-0.104858398438,0.453002929688
60759330683,-0.654357910156,-0.595520019531,-0.106384277344,0.453796386719
60759345724,-0.6533203125,-0.595520019531,-0.108032226562,0.454895019531
60759366922,-0.65234375,-0.595336914062,-0.109313964844,0.456298828125
60759390749,-0.65234375,-0.595031738281,-0.108947753906,0.456665039062
60759405685,-0.653442382812,-0.595092773438,-0.107299804688,0.455444335938
60759457688,-0.654235839844,-0.595336914062,-0.106323242188,0.4541015625
60759458377,-0.653869628906,-0.595581054688,-0.107177734375,0.454223632812
60759480405,-0.652709960938,-0.595458984375,-0.108825683594,0.45556640625
60759488345,-0.652221679688,-0.59521484375,-0.109375,0.456604003906
60759513473,-0.652465820312,-0.594543457031,-0.109497070312,0.457092285156
60759541339,-0.652587890625,-0.594848632812,-0.108764648438,0.456604003906
60759569417,-0.652587890625,-0.594848632812,-0.108764648438,0.456604003906
60759579456,-0.652587890625,-0.594848632812,-0.108764648438,0.45654296875
60759585638,-0.652648925781,-0.594909667969,-0.108764648438,0.45654296875
60759607465,-0.65185546875,-0.593688964844,-0.110473632812,0.458679199219
60759630042,-0.653381347656,-0.592346191406,-0.107482910156,0.458984375
60759653825,-0.653015136719,-0.592102050781,-0.107849121094,0.459838867188
60759668788,-0.65478515625,-0.591491699219,-0.104064941406,0.458923339844
60759691304,-0.655944824219,-0.591613769531,-0.102416992188,0.45751953125
60759713813,-0.656433105469,-0.591918945312,-0.101989746094,0.45654296875
60759728174,-0.655639648438,-0.592041015625,-0.103393554688,0.457153320312
60759751333,-0.6513671875,-0.591125488281,-0.109252929688,0.463012695312
60759773778,-0.651733398438,-0.590209960938,-0.107543945312,0.464111328125
60759788112,-0.65625,-0.590393066406,-0.100769042969,0.458984375
60759811289,-0.654724121094,-0.590026855469,-0.103637695312,0.460998535156
60759833789,-0.65478515625,-0.589782714844,-0.102111816406,0.461547851562
60759848168,-0.654357910156,-0.589660644531,-0.100891113281,0.462585449219
60759871335,-0.654052734375,-0.589599609375,-0.0994262695312,0.46337890625
60759893826,-0.654052734375,-0.588989257812,-0.0965576171875,0.464782714844
60759914995,-0.654724121094,-0.587890625,-0.0922241210938,0.466064453125
60759931341,-0.656433105469,-0.586853027344,-0.0868530273438,0.466064453125
60759953806,-0.658813476562,-0.58544921875,-0.0810546875,0.465454101562
60759974875,-0.6611328125,-0.584167480469,-0.0740356445312,0.464965820312
60759991364,-0.664367675781,-0.582824707031,-0.0663452148438,0.463195800781
60760013799,-0.668823242188,-0.581359863281,-0.0584716796875,0.459716796875
60760035016,-0.674621582031,-0.5791015625,-0.0504150390625,0.454956054688
60760057450,-0.68212890625,-0.575561523438,-0.0409545898438,0.449279785156
60760073760,-0.69140625,-0.570129394531,-0.0298461914062,0.442749023438
60760095053,-0.702209472656,-0.5634765625,-0.0169677734375,0.434875488281
60760111736,-0.71435546875,-0.555236816406,-0.0025634765625,0.425964355469
60760133869,-0.727905273438,-0.544738769531,0.0132446289062,0.416259765625
60760154851,-0.743469238281,-0.531372070312,0.0303344726562,0.405029296875
60760178812,-0.760925292969,-0.51513671875,0.048095703125,0.3916015625
60760193786,-0.778137207031,-0.49755859375,0.0667724609375,0.377563476562
60760214963,-0.794921875,-0.478820800781,0.0860595703125,0.362670898438
60760231339,-0.810485839844,-0.459289550781,0.105590820312,0.347961425781
60760253903,-0.825866699219,-0.438659667969,0.12451171875,0.331726074219
60760274994,-0.840087890625,-0.417846679688,0.143310546875,0.314880371094
60760290620,-0.852844238281,-0.397033691406,0.162292480469,0.297912597656
60760314185,-0.8642578125,-0.376342773438,0.180908203125,0.280517578125
60760334805,-0.874084472656,-0.356567382812,0.199462890625,0.262817382812
60760357351,-0.882629394531,-0.337890625,0.2177734375,0.243713378906
60760373778,-0.889465332031,-0.320861816406,0.236145019531,0.22412109375
60760394873,-0.894287109375,-0.306640625,0.25390625,0.204406738281
60760410666,-0.897583007812,-0.295043945312,0.270874023438,0.184387207031
60760433843,-0.8994140625,-0.284606933594,0.287170410156,0.166198730469
60760455055,-0.89990234375,-0.277282714844,0.300964355469,0.151000976562
60760470604,-0.899108886719,-0.272583007812,0.313537597656,0.138122558594
60760493756,-0.897521972656,-0.269958496094,0.324890136719,0.126586914062
60760516304,-0.895141601562,-0.270629882812,0.334594726562,0.11669921875
60760537365,-0.891540527344,-0.275207519531,0.343200683594,0.108032226562
60760559999,-0.886962890625,-0.282958984375,0.350402832031,0.102478027344
60760576064,-0.881530761719,-0.293212890625,0.356262207031,0.100524902344
60760598826,-0.875427246094,-0.30517578125,0.360229492188,0.103820800781
60760619805,-0.868530273438,-0.318542480469,0.362548828125,0.113098144531
60760636337,-0.861083984375,-0.332458496094,0.363525390625,0.1259765625
60760658803,-0.853515625,-0.347045898438,0.361999511719,0.141784667969
60760679818,-0.84521484375,-0.362854003906,0.358825683594,0.158813476562
60760696337,-0.835510253906,-0.3798828125,0.354797363281,0.178344726562
60760718817,-0.824951171875,-0.398010253906,0.349304199219,0.197631835938
60760739934,-0.812866210938,-0.416931152344,0.343505859375,0.217834472656
60760756288,-0.799377441406,-0.435363769531,0.336853027344,0.240783691406
60760778778,-0.785888671875,-0.451477050781,0.328979492188,0.265197753906
60760799995,-0.772827148438,-0.464538574219,0.320861816406,0.289916992188
60760815613,-0.759765625,-0.474243164062,0.314147949219,0.31494140625
60760838755,-0.74658203125,-0.480224609375,0.309814453125,0.340637207031
60760859785,-0.73486328125,-0.48095703125,0.307495117188,0.366271972656
60760875582,-0.725036621094,-0.476928710938,0.307067871094,0.390563964844
60760898886,-0.716613769531,-0.468933105469,0.308898925781,0.413757324219
60760919965,-0.709411621094,-0.458618164062,0.312316894531,0.434631347656
60760935632,-0.704284667969,-0.446166992188,0.316223144531,0.45263671875
60760958805,-0.701843261719,-0.431640625,0.320556640625,0.467224121094
60760979985,-0.703063964844,-0.414794921875,0.325927734375,0.476867675781
60760995610,-0.706176757812,-0.395751953125,0.331970214844,0.484252929688
60761018768,-0.711547851562,-0.375122070312,0.339111328125,0.487915039062
60761041347,-0.717041015625,-0.353698730469,0.348205566406,0.489440917969
60761055619,-0.722778320312,-0.330810546875,0.35888671875,0.4892578125
60761078758,-0.728637695312,-0.30712890625,0.370300292969,0.487487792969
60761101323,-0.735046386719,-0.283630371094,0.382385253906,0.482788085938
60761115704,-0.741271972656,-0.261779785156,0.394409179688,0.475830078125
60761138815,-0.747131347656,-0.2421875,0.405395507812,0.4677734375
60761161361,-0.75244140625,-0.224975585938,0.414611816406,0.459655761719
60761182464,-0.757446289062,-0.209655761719,0.422668457031,0.451293945312
60761198770,-0.762023925781,-0.197570800781,0.428405761719,0.443542480469
60761221347,-0.765930175781,-0.188720703125,0.432006835938,0.437133789062
60761242495,-0.769287109375,-0.182739257812,0.433898925781,0.431884765625
60761258837,-0.772033691406,-0.17919921875,0.434875488281,0.427429199219
60761281342,-0.774108886719,-0.177490234375,0.434204101562,0.425109863281
60761302466,-0.775573730469,-0.1767578125,0.432495117188,0.424438476562
60761318739,-0.776672363281,-0.176635742188,0.430603027344,0.424438476562
60761341305,-0.777282714844,-0.177001953125,0.428588867188,0.42529296875
60761362369,-0.77783203125,-0.178833007812,0.42626953125,0.425842285156
60761378785,-0.777954101562,-0.181762695312,0.424072265625,0.426513671875
60761384275,-0.777587890625,-0.184692382812,0.422302246094,0.427734375
60761406791,-0.776611328125,-0.186889648438,0.421142578125,0.4296875
60761429274,-0.775329589844,-0.188049316406,0.421142578125,0.431396484375
60761444160,-0.774536132812,-0.18896484375,0.421691894531,0.431884765625
60761466619,-0.774291992188,-0.190368652344,0.422180175781,0.431274414062
60761484576,-0.774291992188,-0.191833496094,0.42236328125,0.430480957031
60761504240,-0.774291992188,-0.192749023438,0.422607421875,0.429809570312
60761526802,-0.774047851562,-0.192810058594,0.422668457031,0.430114746094
60761543256,-0.774230957031,-0.19287109375,0.422302246094,0.430114746094
60761564274,-0.775024414062,-0.193725585938,0.421325683594,0.429321289062
60761586795,-0.776245117188,-0.195739746094,0.419677734375,0.427734375
60761609150,-0.77783203125,-0.198974609375,0.417358398438,0.425720214844
60761624220,-0.779724121094,-0.203735351562,0.414245605469,0.423034667969
60761646855,-0.78173828125,-0.210510253906,0.410217285156,0.419921875
60761664561,-0.78369140625,-0.219116210938,0.405029296875,0.416870117188
60761691812,-0.785522460938,-0.229431152344,0.399230957031,0.413513183594
60761706799,-0.787414550781,-0.242065429688,0.391723632812,0.409790039062
60761724558,-0.789428710938,-0.256713867188,0.382019042969,0.40625
60761744383,-0.791198730469,-0.272338867188,0.369689941406,0.403991699219
60761766801,-0.792541503906,-0.287963867188,0.355773925781,0.403015136719
60761784639,-0.793640136719,-0.302917480469,0.340270996094,0.403259277344
60761804262,-0.794372558594,-0.317810058594,0.322998046875,0.404602050781
60761826650,-0.794494628906,-0.333374023438,0.303955078125,0.406616210938
60761844542,-0.793823242188,-0.349914550781,0.284057617188,0.408386230469
60761864181,-0.79248046875,-0.367431640625,0.264038085938,0.409057617188
60761886684,-0.791015625,-0.385437011719,0.243469238281,0.408020019531
60761904631,-0.788513183594,-0.403503417969,0.22265625,0.407287597656
60761924340,-0.784545898438,-0.421142578125,0.201599121094,0.408081054688
60761946691,-0.778747558594,-0.438110351562,0.181030273438,0.410949707031
60761972360,-0.771240234375,-0.45458984375,0.161560058594,0.415283203125
60761984120,-0.762634277344,-0.470642089844,0.142700195312,0.420227050781
60762006767,-0.75390625,-0.48583984375,0.12451171875,0.424438476562
60762024562,-0.7451171875,-0.5,0.106994628906,0.42822265625
60762044254,-0.736511230469,-0.513549804688,0.089599609375,0.431030273438
60762066716,-0.727844238281,-0.526428222656,0.0724487304688,0.433471679688
60762084596,-0.719299316406,-0.538024902344,0.0557250976562,0.435974121094
60762104235,-0.711303710938,-0.548156738281,0.040771484375,0.438110351562
60762126707,-0.7041015625,-0.556640625,0.027587890625,0.440002441406
60762144553,-0.697021484375,-0.564697265625,0.0140991210938,0.441772460938
60762164339,-0.689880371094,-0.572265625,0.0,0.443420410156
60762186834,-0.683654785156,-0.578247070312,-0.0131225585938,0.445129394531
60762204598,-0.67822265625,-0.582885742188,-0.0243530273438,0.446899414062
60762224244,-0.673095703125,-0.586975097656,-0.0354614257812,0.448547363281
60762249608,-0.667297363281,-0.590759277344,-0.0465698242188,0.451171875
60762264595,-0.66064453125,-0.593994140625,-0.0582885742188,0.455444335938
60762284162,-0.65478515625,-0.596069335938,-0.0709228515625,0.459350585938
60762306731,-0.650634765625,-0.59765625,-0.0835571289062,0.461059570312
60762324536,-0.651489257812,-0.598327636719,-0.0933227539062,0.457092285156
60762344352,-0.657043457031,-0.5966796875,-0.0978393554688,0.450256347656
60762366802,-0.660278320312,-0.595764160156,-0.0987548828125,0.446533203125
60762384615,-0.657653808594,-0.597229003906,-0.0968017578125,0.448913574219
60762404236,-0.652648925781,-0.598693847656,-0.0944213867188,0.454711914062
60762437049,-0.648803710938,-0.599548339844,-0.09423828125,0.459045410156
60762444578,-0.647277832031,-0.6005859375,-0.0968017578125,0.459350585938
60762464197,-0.647644042969,-0.601501464844,-0.100280761719,0.456848144531
60762486790,-0.649353027344,-0.601440429688,-0.103393554688,0.453857421875
60762504577,-0.651428222656,-0.600524902344,-0.105590820312,0.451538085938
60762527050,-0.652587890625,-0.599426269531,-0.106323242188,0.451171875
60762546780,-0.652404785156,-0.598693847656,-0.106201171875,0.452514648438
60762570619,-0.6513671875,-0.598327636719,-0.105529785156,0.454528808594
60762585600,-0.650573730469,-0.598388671875,-0.105590820312,0.455627441406
60762606813,-0.650207519531,-0.598571777344,-0.106079101562,0.455810546875
60762624562,-0.650268554688,-0.598693847656,-0.106506347656,0.455505371094
60762645656,-0.650390625,-0.598754882812,-0.106689453125,0.455200195312
60762662039,-0.650390625,-0.598693847656,-0.106689453125,0.455261230469
60762684554,-0.650024414062,-0.598815917969,-0.106140136719,0.455749511719
60762705599,-0.649780273438,-0.598876953125,-0.105773925781,0.4560546875
60762722080,-0.649597167969,-0.598999023438,-0.105651855469,0.456115722656
60762744522,-0.649597167969,-0.598999023438,-0.105712890625,0.456115722656
60762765615,-0.649597167969,-0.599060058594,-0.10595703125,0.4560546875
60762782046,-0.649597167969,-0.599060058594,-0.106140136719,0.4560546875
60762804533,-0.649475097656,-0.599060058594,-0.106262207031,0.456115722656
60762825570,-0.6494140625,-0.599060058594,-0.106384277344,0.456237792969
60762847534,-0.6494140625,-0.599060058594,-0.106384277344,0.456237792969
60762864634,-0.6494140625,-0.598999023438,-0.106750488281,0.456176757812
60762885610,-0.649353027344,-0.598999023438,-0.107055664062,0.456237792969
60762902044,-0.649291992188,-0.598937988281,-0.107421875,0.456298828125
60762924572,-0.649291992188,-0.598937988281,-0.107421875,0.456298828125
60762946368,-0.649230957031,-0.598937988281,-0.107421875,0.456359863281
60762967462,-0.649230957031,-0.598876953125,-0.107788085938,0.456359863281
60762983740,-0.649230957031,-0.598876953125,-0.107788085938,0.456420898438
60763006344,-0.649108886719,-0.598815917969,-0.107849121094,0.456604003906
60763020676,-0.649108886719,-0.598815917969,-0.107849121094,0.456604003906
60763043766,-0.649108886719,-0.598815917969,-0.10791015625,0.456604003906
60763066336,-0.649047851562,-0.598815917969,-0.10791015625,0.456665039062
60763080616,-0.649047851562,-0.598815917969,-0.10791015625,0.456665039062
60763103820,-0.649047851562,-0.598815917969,-0.10791015625,0.456726074219
60763126273,-0.649047851562,-0.598815917969,-0.10791015625,0.456726074219
60763140642,-0.649047851562,-0.598815917969,-0.10791015625,0.456726074219
