60632102938,0.6806640625,-0.513671875,-0.57373046875
60632117830,0.61328125,-0.5869140625,-0.4453125
60632139237,-0.06884765625,-0.66357421875,-0.77001953125
60632162975,0.28662109375,-0.6669921875,-0.615234375
60632177942,0.0166015625,-0.66845703125,-0.9638671875
60632199276,0.32373046875,-0.5068359375,-0.9794921875
60632222924,1.0849609375,-0.34521484375,-0.4873046875
60632237921,1.326171875,-0.3974609375,-0.09326171875
60632291904,0.6923828125,-0.6103515625,-0.35205078125
60632292578,0.044921875,-0.6875,-0.91748046875
60632300786,0.30322265625,-0.517578125,-0.99755859375
60632319209,0.46435546875,-0.615234375,-0.43408203125
60632343569,0.724609375,-0.53515625,-0.56689453125
60632366319,0.68701171875,-0.5146484375,-0.56982421875
60632401474,0.67919921875,-0.51953125,-0.5712890625
60632411668,0.68408203125,-0.5224609375,-0.578125
60632426100,0.626953125,-0.52880859375,-0.533203125
60632439615,1.33642578125,-0.3896484375,-0.3505859375
60632462229,0.53271484375,-0.43603515625,-0.8623046875
60632486033,0.9248046875,-0.36474609375,-0.61669921875
60632500364,1.349609375,-0.35595703125,-0.16357421875
60632523518,0.94677734375,-0.546875,-0.2041015625
60632546041,0.1689453125,-0.69580078125,-0.76904296875
60632560406,0.140625,-0.57177734375,-1.05712890625
60632583539,0.9306640625,-0.3603515625,-0.6162109375
60632613540,1.34033203125,-0.37451171875,-0.109375
60632620391,1.21630859375,-0.48486328125,-0.32861328125
60632643545,0.64111328125,-0.51025390625,-0.5947265625
60632666020,0.6591796875,-0.52294921875,-0.576171875
60632680406,0.68212890625,-0.50927734375,-0.56787109375
60632703543,0.6787109375,-0.50634765625,-0.56298828125
60632726011,0.68603515625,-0.5029296875,-0.56689453125
60632740337,0.68359375,-0.5087890625,-0.56787109375
60632763531,0.6826171875,-0.50927734375,-0.5732421875
60632786061,0.685546875,-0.50732421875,-0.57373046875
60632807211,0.6806640625,-0.50732421875,-0.57421875
60632823517,0.68359375,-0.5048828125,-0.5732421875
60632846106,0.68408203125,-0.50732421875,-0.57763671875
60632867054,0.681640625,-0.5,-0.59228515625
60632890987,0.68359375,-0.5,-0.60205078125
60632906096,0.68701171875,-0.50732421875,-0.59521484375
60632927165,0.68359375,-0.51953125,-0.59765625
60632943566,0.69091796875,-0.53125,-0.60986328125
60632966019,0.6884765625,-0.53515625,-0.62841796875
60632987211,0.68896484375,-0.517578125,-0.62841796875
60633003554,0.66943359375,-0.4833984375,-0.63525390625
60633026019,0.6181640625,-0.50927734375,-0.65771484375
60633047160,0.64111328125,-0.54345703125,-0.6611328125
60633063498,0.61865234375,-0.56591796875,-0.6669921875
60633086014,0.61767578125,-0.5478515625,-0.67724609375
60633107211,0.615234375,-0.56396484375,-0.66455078125
60633122863,0.64453125,-0.56494140625,-0.693359375
60633146009,0.65283203125,-0.58349609375,-0.73291015625
60633167224,0.64453125,-0.60888671875,-0.76123046875
60633182889,0.65185546875,-0.6064453125,-0.76220703125
60633212272,0.6669921875,-0.609375,-0.80029296875
60633228513,0.6748046875,-0.6103515625,-0.80908203125
60633242836,0.62158203125,-0.66455078125,-0.814453125
60633266030,0.576171875,-0.72412109375,-0.826171875
60633288544,0.5556640625,-0.7392578125,-0.81884765625
60633302881,0.509765625,-0.7626953125,-0.81884765625
60633326035,0.45751953125,-0.76611328125,-0.83642578125
60633348540,0.41162109375,-0.779296875,-0.8232421875
60633369561,0.34033203125,-0.78564453125,-0.818359375
60633392606,0.26611328125,-0.82177734375,-0.81201171875
60633408607,0.2099609375,-0.80322265625,-0.7919921875
60633431010,0.14990234375,-0.79541015625,-0.79150390625
60633452284,0.10791015625,-0.79248046875,-0.78173828125
60633468569,0.03076171875,-0.775390625,-0.74853515625
60633491042,-0.0439453125,-0.75439453125,-0.72509765625
60633512292,-0.08154296875,-0.7177734375,-0.6826171875
60633536042,-0.11962890625,-0.689453125,-0.64501953125
60633551030,-0.17626953125,-0.6708984375,-0.62353515625
60633572250,-0.2197265625,-0.63720703125,-0.61376953125
60633587842,-0.275390625,-0.61083984375,-0.5888671875
60633610998,-0.3232421875,-0.580078125,-0.57177734375
60633632273,-0.3642578125,-0.54345703125,-0.5576171875
60633647888,-0.3974609375,-0.50537109375,-0.5517578125
60633671035,-0.43310546875,-0.4716796875,-0.54052734375
60633693500,-0.4794921875,-0.4609375,-0.5439453125
60633707840,-0.52392578125,-0.43798828125,-0.5380859375
60633731038,-0.548828125,-0.40185546875,-0.5361328125
60633753506,-0.57470703125,-0.39306640625,-0.52001953125
60633767819,-0.61328125,-0.37890625,-0.53955078125
60633790996,-0.64697265625,-0.34912109375,-0.533203125
60633813540,-0.6708984375,-0.33056640625,-0.53857421875
60633827862,-0.69970703125,-0.3076171875,-0.54248046875
60633857104,-0.712890625,-0.2998046875,-0.53564453125
60633873492,-0.71435546875,-0.30322265625,-0.50927734375
60633894608,-0.7353515625,-0.318359375,-0.5224609375
60633911033,-0.75634765625,-0.31982421875,-0.5361328125
60633933516,-0.7724609375,-0.2861328125,-0.53271484375
60633954597,-0.78857421875,-0.265625,-0.53515625
60633970987,-0.787109375,-0.28173828125,-0.541015625
60633993497,-0.79052734375,-0.32763671875,-0.5400390625
60633998944,-0.806640625,-0.34814453125,-0.55078125
60634015295,-0.8076171875,-0.33837890625,-0.54345703125
60634036514,-0.8095703125,-0.32177734375,-0.54052734375
60634059046,-0.80517578125,-0.3134765625,-0.54052734375
60634075385,-0.80615234375,-0.32666015625,-0.54638671875
60634096524,-0.81396484375,-0.3486328125,-0.55029296875
60634119015,-0.818359375,-0.33740234375,-0.55029296875
60634135426,-0.8076171875,-0.33056640625,-0.55615234375
60634156345,-0.79931640625,-0.33056640625,-0.55224609375
60634178978,-0.787109375,-0.34912109375,-0.55712890625
60634195332,-0.7900390625,-0.3544921875,-0.55810546875
60634216374,-0.78564453125,-0.33056640625,-0.5458984375
60634238873,-0.78369140625,-0.32958984375,-0.552734375
60634255298,-0.7822265625,-0.3408203125,-0.56396484375
60634276425,-0.78173828125,-0.34521484375,-0.5517578125
60634299022,-0.7744140625,-0.34619140625,-0.56298828125
60634322795,-0.78466796875,-0.34814453125,-0.5673828125
60634336488,-0.78125,-0.35693359375,-0.5654296875
60634359002,-0.77880859375,-0.36669921875,-0.576171875
60634382808,-0.78955078125,-0.3603515625,-0.57763671875
60634396444,-0.78271484375,-0.341796875,-0.5693359375
60634419039,-0.77685546875,-0.357421875,-0.5654296875
60634435331,-0.79443359375,-0.37109375,-0.57470703125
60634456425,-0.79052734375,-0.373046875,-0.58251953125
60634478875,-0.77880859375,-0.36376953125,-0.576171875
60634495310,-0.7822265625,-0.3525390625,-0.56884765625
60634516430,-0.7734375,-0.35693359375,-0.56005859375
60634539055,-0.7578125,-0.3642578125,-0.55859375
60634556811,-0.75439453125,-0.3671875,-0.55224609375
60634576374,-0.73388671875,-0.3583984375,-0.53857421875
60634600325,-0.734375,-0.3505859375,-0.5361328125
60634615418,-0.72265625,-0.349609375,-0.546875
60634643966,-0.689453125,-0.34814453125,-0.53759765625
60634658990,-0.66552734375,-0.37548828125,-0.5341796875
60634676853,-0.6640625,-0.37939453125,-0.53466796875
60634696478,-0.66796875,-0.35595703125,-0.54931640625
60634718839,-0.67431640625,-0.35595703125,-0.58642578125
60634736817,-0.69677734375,-0.4091796875,-0.60009765625
60634756417,-0.67529296875,-0.44189453125,-0.60205078125
60634781840,-0.66015625,-0.455078125,-0.61083984375
60634796820,-0.64892578125,-0.4658203125,-0.59912109375
60634816506,-0.62939453125,-0.470703125,-0.60009765625
60634838930,-0.587890625,-0.49560546875,-0.587890625
60634857461,-0.537109375,-0.52685546875,-0.57421875
60634876384,-0.5009765625,-0.54345703125,-0.58154296875
60634899019,-0.4921875,-0.53076171875,-0.5673828125
60634916808,-0.4677734375,-0.5146484375,-0.56884765625
60634936491,-0.4140625,-0.54541015625,-0.5546875
60634959088,-0.36865234375,-0.58447265625,-0.5712890625
60634976762,-0.34228515625,-0.619140625,-0.56640625
60634996522,-0.3125,-0.638671875,-0.5634765625
60635018898,-0.28466796875,-0.6494140625,-0.58203125
60635036805,-0.26806640625,-0.64892578125,-0.60498046875
60635063873,-0.2275390625,-0.67431640625,-0.61328125
60635078999,-0.18994140625,-0.724609375,-0.64111328125
60635096819,-0.1494140625,-0.75927734375,-0.65625
60635116474,-0.087890625,-0.8017578125,-0.68603515625
60635139053,-0.02783203125,-0.8203125,-0.6904296875
60635156814,0.01611328125,-0.830078125,-0.72119140625
60635176568,0.05517578125,-0.82373046875,-0.76123046875
60635198844,0.0888671875,-0.8125,-0.7978515625
60635216772,0.13720703125,-0.8271484375,-0.798828125
60635243971,0.18505859375,-0.83544921875,-0.7568359375
60635258965,0.23291015625,-0.82080078125,-0.7685546875
60635276807,0.30908203125,-0.79296875,-0.80078125
60635297861,0.36767578125,-0.79541015625,-0.79736328125
60635326345,0.38134765625,-0.7880859375,-0.74658203125
60635336775,0.37646484375,-0.7626953125,-0.75439453125
60635357828,0.3818359375,-0.74267578125,-0.7666015625
60635379025,0.44677734375,-0.72412109375,-0.76953125
60635396802,0.48779296875,-0.74267578125,-0.740234375
60635417837,0.4951171875,-0.740234375,-0.72802734375
60635439044,0.50341796875,-0.7109375,-0.7373046875
60635456796,0.529296875,-0.65234375,-0.73486328125
60635477810,0.5615234375,-0.6123046875,-0.69580078125
60635498827,0.56640625,-0.59716796875,-0.65576171875
60635516765,0.56591796875,-0.619140625,-0.63037109375
60635537860,0.58154296875,-0.625,-0.6142578125
60635559684,0.59423828125,-0.625,-0.58544921875
60635575997,0.58447265625,-0.59912109375,-0.61572265625
60635597112,0.55224609375,-0.62890625,-0.61376953125
60635619582,0.5537109375,-0.666015625,-0.6298828125
60635635969,0.56494140625,-0.65625,-0.64111328125
60635665918,0.58544921875,-0.60693359375,-0.65966796875
60635679608,0.62451171875,-0.5703125,-0.6474609375
60635695972,0.65283203125,-0.56298828125,-0.62548828125
60635718486,0.6787109375,-0.55126953125,-0.62109375
60635739769,0.68701171875,-0.5341796875,-0.62060546875
60635756464,0.6904296875,-0.5126953125,-0.61767578125
60635778427,0.681640625,-0.501953125,-0.62451171875
60635792841,0.68359375,-0.4892578125,-0.63720703125
60635815982,0.67919921875,-0.48828125,-0.62451171875
