62228707244,-0.394287109375,0.726135253906,-0.547912597656,-0.130493164062
62228731175,-0.394165039062,0.726196289062,-0.547912597656,-0.130798339844
62228745888,-0.393920898438,0.725769042969,-0.548461914062,-0.131408691406
62228767099,-0.396057128906,0.726501464844,-0.545715332031,-0.132507324219
62228790766,-0.393859863281,0.729614257812,-0.544311523438,-0.127624511719
62228805641,-0.393432617188,0.730651855469,-0.543640136719,-0.126098632812
62228827176,-0.393249511719,0.73193359375,-0.542358398438,-0.124633789062
62228850754,-0.3935546875,0.732238769531,-0.541625976562,-0.124694824219
62228904706,-0.395263671875,0.728332519531,-0.544250488281,-0.130920410156
62228905540,-0.395324707031,0.72705078125,-0.545593261719,-0.132263183594
62228907156,-0.394958496094,0.726867675781,-0.546142578125,-0.132019042969
62228926464,-0.39453125,0.728088378906,-0.545227050781,-0.13037109375
62228947739,-0.393859863281,0.732482910156,-0.540893554688,-0.125671386719
62228962145,-0.392578125,0.732299804688,-0.541931152344,-0.126281738281
62228984688,-0.392456054688,0.732421875,-0.541931152344,-0.126037597656
62229032139,-0.392211914062,0.732482910156,-0.541931152344,-0.12646484375
62229032744,-0.392028808594,0.732421875,-0.542053222656,-0.126831054688
62229045015,-0.392028808594,0.732360839844,-0.542114257812,-0.126892089844
62229059395,-0.390014648438,0.7314453125,-0.544677734375,-0.127380371094
62229082584,-0.388305664062,0.736694335938,-0.540344238281,-0.120666503906
62229106444,-0.387939453125,0.737915039062,-0.539306640625,-0.119079589844
62229128941,-0.387817382812,0.742370605469,-0.534057617188,-0.115051269531
62229143239,-0.389343261719,0.741882324219,-0.532958984375,-0.117980957031
62229166380,-0.389770507812,0.740600585938,-0.5341796875,-0.119750976562
62229188927,-0.389404296875,0.736267089844,-0.539489746094,-0.12353515625
62229203243,-0.3876953125,0.737976074219,-0.539306640625,-0.119689941406
62229226453,-0.387451171875,0.7392578125,-0.538024902344,-0.1181640625
62229248683,-0.388610839844,0.740966796875,-0.534851074219,-0.118286132812
62229270087,-0.38916015625,0.739501953125,-0.535827636719,-0.120910644531
62229286390,-0.389404296875,0.739318847656,-0.536010742188,-0.120422363281
62229308917,-0.389404296875,0.7392578125,-0.536071777344,-0.120483398438
62229330044,-0.389343261719,0.739074707031,-0.536254882812,-0.121032714844
62229346407,-0.389404296875,0.739013671875,-0.536315917969,-0.121154785156
62229368867,-0.389282226562,0.738708496094,-0.53662109375,-0.121643066406
62229390068,-0.389282226562,0.738647460938,-0.536682128906,-0.121704101562
62229406387,-0.389282226562,0.738586425781,-0.536743164062,-0.121765136719
62229428951,-0.389282226562,0.738525390625,-0.536804199219,-0.121826171875
62229450082,-0.389282226562,0.738342285156,-0.536987304688,-0.122314453125
62229466411,-0.389282226562,0.73828125,-0.537109375,-0.122375488281
62229488885,-0.389282226562,0.738220214844,-0.537170410156,-0.122436523438
62229511434,-0.389282226562,0.738159179688,-0.537231445312,-0.122497558594
62229533881,-0.389282226562,0.738098144531,-0.537292480469,-0.12255859375
62229548853,-0.389282226562,0.738037109375,-0.537353515625,-0.122619628906
62229570040,-0.38916015625,0.737854003906,-0.537536621094,-0.123107910156
62229586407,-0.38916015625,0.737854003906,-0.53759765625,-0.123168945312
62229608888,-0.389038085938,0.737670898438,-0.537780761719,-0.123596191406
62229630057,-0.389038085938,0.737609863281,-0.537841796875,-0.123657226562
62229646403,-0.389038085938,0.737548828125,-0.537902832031,-0.123718261719
62229668861,-0.389099121094,0.737487792969,-0.537963867188,-0.123779296875
62229689886,-0.389099121094,0.737426757812,-0.538024902344,-0.123840332031
62229706312,-0.389038085938,0.7373046875,-0.538146972656,-0.124267578125
62229728920,-0.389038085938,0.737243652344,-0.538208007812,-0.124328613281
62229751366,-0.388977050781,0.737243652344,-0.538208007812,-0.124633789062
62229766361,-0.388977050781,0.737182617188,-0.538330078125,-0.124694824219
62229788887,-0.388977050781,0.737121582031,-0.538330078125,-0.124755859375
62229811806,-0.388977050781,0.737060546875,-0.538391113281,-0.124816894531
62229826413,-0.388977050781,0.736999511719,-0.538452148438,-0.124877929688
62229848880,-0.388916015625,0.736877441406,-0.538635253906,-0.125244140625
62229871471,-0.388854980469,0.736755371094,-0.538757324219,-0.125610351562
62229885732,-0.388854980469,0.736694335938,-0.538818359375,-0.125671386719
62229908889,-0.388854980469,0.736633300781,-0.538879394531,-0.125732421875
62229931364,-0.388854980469,0.736572265625,-0.538879394531,-0.125793457031
62229945791,-0.388854980469,0.736572265625,-0.538940429688,-0.125793457031
62229968938,-0.388916015625,0.736511230469,-0.539001464844,-0.125854492188
62229991403,-0.388916015625,0.736450195312,-0.5390625,-0.125915527344
62230013883,-0.388732910156,0.736450195312,-0.539123535156,-0.126159667969
62230035054,-0.388732910156,0.736389160156,-0.539184570312,-0.126220703125
62230051364,-0.388732910156,0.736083984375,-0.53955078125,-0.12646484375
62230073855,-0.388732910156,0.736022949219,-0.539611816406,-0.126525878906
62230095071,-0.388671875,0.735961914062,-0.539672851562,-0.126831054688
62230111410,-0.388549804688,0.735961914062,-0.539672851562,-0.127197265625
62230133820,-0.388427734375,0.735900878906,-0.539794921875,-0.127563476562
62230156421,-0.388305664062,0.73583984375,-0.539855957031,-0.127868652344
62230171369,-0.388244628906,0.735717773438,-0.539916992188,-0.128234863281
62230201340,-0.38818359375,0.735656738281,-0.539978027344,-0.128601074219
62230216346,-0.388244628906,0.735595703125,-0.5400390625,-0.128662109375
62230231405,-0.388244628906,0.735473632812,-0.540100097656,-0.129150390625
62230253976,-0.388122558594,0.735473632812,-0.5400390625,-0.129577636719
62230276336,-0.388061523438,0.735412597656,-0.5400390625,-0.130004882812
62230291387,-0.388000488281,0.735473632812,-0.539978027344,-0.13037109375
62230321412,-0.388000488281,0.735412597656,-0.5400390625,-0.130432128906
62230336371,-0.388000488281,0.7353515625,-0.5400390625,-0.130798339844
62230350719,-0.387939453125,0.735290527344,-0.5400390625,-0.131103515625
62230373856,-0.387878417969,0.735229492188,-0.540100097656,-0.131408691406
62230396390,-0.387878417969,0.735229492188,-0.540161132812,-0.131469726562
62230410668,-0.387878417969,0.735168457031,-0.540161132812,-0.131530761719
62230435345,-0.387878417969,0.735107421875,-0.540222167969,-0.131530761719
62230456357,-0.387878417969,0.735107421875,-0.540222167969,-0.131591796875
62230470709,-0.387878417969,0.735046386719,-0.540283203125,-0.131591796875
62230493837,-0.387878417969,0.734802246094,-0.540649414062,-0.1318359375
62230516388,-0.387634277344,0.734130859375,-0.541748046875,-0.131652832031
62230530706,-0.387329101562,0.732666015625,-0.544189453125,-0.130676269531
62230553878,-0.387512207031,0.730407714844,-0.547485351562,-0.12890625
62230576474,-0.388305664062,0.727905273438,-0.550598144531,-0.127502441406
62230597495,-0.388671875,0.725219726562,-0.554321289062,-0.125793457031
62230621338,-0.388671875,0.722290039062,-0.558654785156,-0.123229980469
62230642601,-0.388671875,0.719848632812,-0.5625,-0.119750976562
62230657535,-0.388671875,0.717407226562,-0.566650390625,-0.114868164062
62230673862,-0.388305664062,0.714538574219,-0.571594238281,-0.109130859375
62230697522,-0.3876953125,0.711547851562,-0.577026367188,-0.10205078125
62230702009,-0.386169433594,0.709533691406,-0.582214355469,-0.09228515625
62230724241,-0.382934570312,0.708862304688,-0.586853027344,-0.0808715820312
62230739289,-0.378356933594,0.708190917969,-0.592163085938,-0.0678100585938
62230761793,-0.373291015625,0.706665039062,-0.598693847656,-0.053955078125
62230784414,-0.367431640625,0.704650878906,-0.605712890625,-0.0393676757812
62230799247,-0.360229492188,0.703308105469,-0.612426757812,-0.02392578125
62230821737,-0.351989746094,0.702392578125,-0.61865234375,-0.0079345703125
62230844411,-0.342956542969,0.701171875,-0.625061035156,0.00836181640625
62230859431,-0.332946777344,0.699157714844,-0.632202148438,0.0253295898438
62230881726,-0.322082519531,0.697998046875,-0.63818359375,0.0425415039062
62230904367,-0.310852050781,0.696533203125,-0.643859863281,0.0602416992188
62230922158,-0.299560546875,0.694641113281,-0.649353027344,0.0780639648438
62230944666,-0.288391113281,0.692626953125,-0.654296875,0.0950927734375
62230964324,-0.277954101562,0.690612792969,-0.658386230469,0.111083984375
62230979401,-0.268188476562,0.688354492188,-0.662048339844,0.126220703125
62231001719,-0.258972167969,0.685668945312,-0.665588378906,0.140686035156
62231024282,-0.249938964844,0.682006835938,-0.669799804688,0.154174804688
62231039370,-0.240905761719,0.677124023438,-0.674743652344,0.16796875
62231061876,-0.232849121094,0.671936035156,-0.679077148438,0.181945800781
62231084306,-0.226257324219,0.666259765625,-0.683044433594,0.19580078125
62231099399,-0.221374511719,0.660095214844,-0.6865234375,0.209533691406
62231122018,-0.217590332031,0.65283203125,-0.690307617188,0.223388671875
62231144379,-0.214599609375,0.643859863281,-0.695068359375,0.237243652344
62231159339,-0.21142578125,0.632690429688,-0.701293945312,0.251220703125
62231181806,-0.207092285156,0.619018554688,-0.709350585938,0.266052246094
62231200146,-0.20361328125,0.604125976562,-0.71728515625,0.281188964844
62231219258,-0.203857421875,0.591369628906,-0.722412109375,0.294738769531
62231241735,-0.206787109375,0.581359863281,-0.725158691406,0.3056640625
62231259694,-0.209899902344,0.572875976562,-0.727844238281,0.313049316406
62231279290,-0.211059570312,0.565002441406,-0.731384277344,0.318298339844
62231301886,-0.20947265625,0.556884765625,-0.736328125,0.322265625
62231319659,-0.207153320312,0.549377441406,-0.741394042969,0.324951171875
62231339232,-0.208129882812,0.545654296875,-0.743591308594,0.325622558594
62231361841,-0.210754394531,0.544372558594,-0.744140625,0.324890136719
62231379695,-0.212158203125,0.5439453125,-0.744567871094,0.323608398438
62231399339,-0.211547851562,0.543518066406,-0.745483398438,0.322631835938
62231429402,-0.209655761719,0.542907714844,-0.746704101562,0.322082519531
62231441108,-0.208374023438,0.543212890625,-0.747192382812,0.321228027344
62231459326,-0.208129882812,0.544555664062,-0.746826171875,0.320068359375
62231481743,-0.208068847656,0.546142578125,-0.746276855469,0.318664550781
62231499703,-0.207580566406,0.546875,-0.746337890625,0.317504882812
62231519240,-0.206970214844,0.54736328125,-0.74658203125,0.316467285156
62231541893,-0.206481933594,0.547790527344,-0.746826171875,0.315490722656
62231559673,-0.206176757812,0.548583984375,-0.746826171875,0.314331054688
62231579341,-0.206176757812,0.549865722656,-0.746459960938,0.313049316406
62231601759,-0.205871582031,0.551330566406,-0.746032714844,0.3115234375
62231619653,-0.205383300781,0.552612304688,-0.745788574219,0.310119628906
62231639413,-0.205017089844,0.553894042969,-0.745544433594,0.308837890625
62231661873,-0.204772949219,0.555236816406,-0.744995117188,0.307922363281
62231679637,-0.204162597656,0.55615234375,-0.744689941406,0.307250976562
62231699942,-0.203552246094,0.556945800781,-0.744506835938,0.306884765625
62231721700,-0.202697753906,0.557373046875,-0.744567871094,0.306335449219
62231739627,-0.2021484375,0.557983398438,-0.74462890625,0.305480957031
62231760674,-0.201599121094,0.558532714844,-0.744750976562,0.304504394531
62231781874,-0.201477050781,0.559448242188,-0.744567871094,0.303466796875
62231799664,-0.201538085938,0.560485839844,-0.744201660156,0.302429199219
62231820689,-0.201538085938,0.561218261719,-0.744018554688,0.301452636719
62231841754,-0.201477050781,0.561767578125,-0.743896484375,0.300720214844
62231859622,-0.201354980469,0.562255859375,-0.743896484375,0.300048828125
62231880724,-0.201232910156,0.562438964844,-0.743957519531,0.299438476562
62231901859,-0.201416015625,0.562622070312,-0.744079589844,0.298706054688
62231919716,-0.201782226562,0.563110351562,-0.743957519531,0.297912597656
62231940693,-0.202026367188,0.563598632812,-0.743835449219,0.297119140625
62231961854,-0.202209472656,0.564147949219,-0.743713378906,0.296203613281
62231979653,-0.202331542969,0.564514160156,-0.743774414062,0.29541015625
62232008167,-0.202087402344,0.564636230469,-0.743957519531,0.294738769531
62232021707,-0.201843261719,0.56494140625,-0.743957519531,0.294311523438
62232039640,-0.201843261719,0.565490722656,-0.74365234375,0.294006347656
62232060724,-0.202026367188,0.565856933594,-0.743530273438,0.293640136719
62232081861,-0.202209472656,0.566284179688,-0.743408203125,0.293029785156
62232099675,-0.202209472656,0.566528320312,-0.743469238281,0.292358398438
62232122156,-0.202270507812,0.566589355469,-0.743591308594,0.291809082031
62232141742,-0.202270507812,0.566711425781,-0.74365234375,0.291381835938
62232159667,-0.202270507812,0.56689453125,-0.74365234375,0.291015625
62232182168,-0.201843261719,0.566955566406,-0.743774414062,0.290832519531
62232197131,-0.201599121094,0.56689453125,-0.743957519531,0.290710449219
62232218835,-0.201782226562,0.567199707031,-0.743774414062,0.29052734375
62232241318,-0.201843261719,0.567443847656,-0.74365234375,0.290222167969
62232262555,-0.201477050781,0.567626953125,-0.743774414062,0.289855957031
62232278634,-0.201232910156,0.568176269531,-0.74365234375,0.289184570312
62232307407,-0.201110839844,0.569091796875,-0.743408203125,0.288269042969
62232315790,-0.200866699219,0.570617675781,-0.742919921875,0.28662109375
62232338864,-0.200561523438,0.57421875,-0.741394042969,0.283508300781
62232361888,-0.201904296875,0.580322265625,-0.738037109375,0.278869628906
62232382509,-0.204345703125,0.587097167969,-0.734191894531,0.273010253906
62232398881,-0.206481933594,0.595031738281,-0.729431152344,0.266967773438
62232421333,-0.208923339844,0.604797363281,-0.723754882812,0.258361816406
62232442430,-0.211975097656,0.617065429688,-0.716674804688,0.246398925781
62232460381,-0.215209960938,0.632873535156,-0.706909179688,0.231201171875
62232481342,-0.217895507812,0.649108886719,-0.696533203125,0.214477539062
62232502621,-0.219848632812,0.664184570312,-0.686645507812,0.197692871094
62232518840,-0.219360351562,0.67724609375,-0.678588867188,0.180969238281
62232541369,-0.216003417969,0.687316894531,-0.672973632812,0.16748046875
62232563837,-0.212463378906,0.695251464844,-0.667724609375,0.160095214844
62232578876,-0.209594726562,0.698791503906,-0.665771484375,0.156616210938
62232601337,-0.207092285156,0.700012207031,-0.665466308594,0.155700683594
62232622458,-0.204650878906,0.699768066406,-0.666259765625,0.156494140625
62232639345,-0.202453613281,0.699768066406,-0.666870117188,0.156860351562
62232661413,-0.201171875,0.700073242188,-0.666931152344,0.156921386719
62232682518,-0.200866699219,0.700500488281,-0.666564941406,0.157104492188
62232698859,-0.200988769531,0.700927734375,-0.666015625,0.1572265625
62232721296,-0.201171875,0.701293945312,-0.665588378906,0.157104492188
62232742471,-0.200805664062,0.701721191406,-0.665344238281,0.156799316406
62232758857,-0.200378417969,0.702453613281,-0.664794921875,0.156311035156
62232781330,-0.200256347656,0.702941894531,-0.664367675781,0.15625
62232802644,-0.200073242188,0.703125,-0.664123535156,0.156677246094
62232818851,-0.200073242188,0.702880859375,-0.664245605469,0.157287597656
62232841392,-0.19970703125,0.702209472656,-0.664855957031,0.158020019531
62232862537,-0.199096679688,0.702087402344,-0.665100097656,0.158447265625
62232886344,-0.198791503906,0.7021484375,-0.665100097656,0.158569335938
62232901363,-0.198852539062,0.701965332031,-0.665222167969,0.158813476562
62232930011,-0.199279785156,0.701293945312,-0.665710449219,0.158996582031
62232938830,-0.199523925781,0.700805664062,-0.666198730469,0.158935546875
62232961375,-0.199584960938,0.700439453125,-0.666625976562,0.158630371094
62232983838,-0.19970703125,0.700378417969,-0.666809082031,0.158142089844
62232998866,-0.2001953125,0.700439453125,-0.666687011719,0.157653808594
62233021352,-0.20068359375,0.700256347656,-0.666870117188,0.156921386719
62233043827,-0.201049804688,0.699768066406,-0.66748046875,0.15625
62233058846,-0.201232910156,0.699279785156,-0.668090820312,0.155700683594
62233081372,-0.201232910156,0.69921875,-0.668273925781,0.155090332031
62233103839,-0.201171875,0.69921875,-0.668395996094,0.154602050781
62233118636,-0.200927734375,0.699401855469,-0.668334960938,0.154235839844
62233141336,-0.200805664062,0.699462890625,-0.668334960938,0.153991699219
62233163844,-0.200622558594,0.699523925781,-0.668395996094,0.153686523438
62233178162,-0.200439453125,0.699645996094,-0.66845703125,0.153259277344
