60781949655,-0.65283203125,-0.592834472656,-0.11376953125,0.457763671875
60781956597,-0.65283203125,-0.5927734375,-0.11376953125,0.457763671875
60781980448,-0.65283203125,-0.592834472656,-0.11376953125,0.457763671875
60782001675,-0.6513671875,-0.593811035156,-0.116516113281,0.457824707031
60782016613,-0.65283203125,-0.592590332031,-0.113464355469,0.458068847656
60782040893,-0.65380859375,-0.591613769531,-0.110778808594,0.458557128906
60782061622,-0.657775878906,-0.591674804688,-0.104309082031,0.454345703125
60782084060,-0.658630371094,-0.591918945312,-0.103271484375,0.453063964844
60782107198,-0.657653808594,-0.5927734375,-0.106140136719,0.452697753906
60782138308,-0.656494140625,-0.5927734375,-0.107849121094,0.453979492188
60782140387,-0.65576171875,-0.592468261719,-0.108642578125,0.455200195312
60782152669,-0.657592773438,-0.591796875,-0.104675292969,0.454284667969
60782182640,-0.65869140625,-0.591918945312,-0.103149414062,0.452941894531
60782198476,-0.658508300781,-0.592407226562,-0.102905273438,0.452575683594
60782227875,-0.658264160156,-0.592041015625,-0.103759765625,0.453186035156
60782263849,-0.658264160156,-0.592041015625,-0.103820800781,0.453247070312
60782272710,-0.658203125,-0.592041015625,-0.103881835938,0.453308105469
60782283890,-0.658203125,-0.592102050781,-0.103942871094,0.453308105469
60782294559,-0.658996582031,-0.592590332031,-0.10205078125,0.451904296875
60782317100,-0.661865234375,-0.593566894531,-0.0977783203125,0.447387695312
60782331517,-0.662902832031,-0.593627929688,-0.09619140625,0.446105957031
60782353892,-0.663696289062,-0.593811035156,-0.09521484375,0.44482421875
60782376469,-0.662780761719,-0.594604492188,-0.0980224609375,0.444580078125
60782391470,-0.66162109375,-0.594543457031,-0.0997924804688,0.445922851562
60782413924,-0.658569335938,-0.593505859375,-0.10302734375,0.451049804688
60782436468,-0.66064453125,-0.592895507812,-0.0987548828125,0.449829101562
60782451467,-0.661682128906,-0.593017578125,-0.0972900390625,0.448364257812
60782473812,-0.662231445312,-0.594116210938,-0.097900390625,0.446105957031
60782496425,-0.66357421875,-0.593078613281,-0.09521484375,0.445983886719
60782511513,-0.663146972656,-0.592712402344,-0.0963134765625,0.446899414062
60782533919,-0.663024902344,-0.592712402344,-0.096435546875,0.447021484375
60782556408,-0.662719726562,-0.592712402344,-0.0965576171875,0.447448730469
60782571432,-0.662292480469,-0.592834472656,-0.0967407226562,0.447937011719
60782596723,-0.661865234375,-0.592712402344,-0.0967407226562,0.448669433594
60782616487,-0.661315917969,-0.592407226562,-0.09619140625,0.450012207031
60782631461,-0.660400390625,-0.592041015625,-0.0947875976562,0.4521484375
60782653930,-0.658752441406,-0.591796875,-0.0923461914062,0.455383300781
60782676456,-0.656372070312,-0.591674804688,-0.089599609375,0.459411621094
60782692746,-0.653747558594,-0.591674804688,-0.0862426757812,0.463806152344
60782713792,-0.651184082031,-0.59130859375,-0.0820922851562,0.468566894531
60782736463,-0.648742675781,-0.591003417969,-0.0757446289062,0.473510742188
60782751399,-0.647155761719,-0.590759277344,-0.0679321289062,0.477111816406
60782773934,-0.646545410156,-0.590393066406,-0.0581665039062,0.479675292969
60782796424,-0.648132324219,-0.588439941406,-0.0457763671875,0.481262207031
60782811442,-0.650573730469,-0.585510253906,-0.0311279296875,0.482666015625
60782833904,-0.653625488281,-0.581115722656,-0.0133666992188,0.484680175781
60782865240,-0.657165527344,-0.575134277344,0.00732421875,0.487182617188
60782871425,-0.663757324219,-0.566101074219,0.0293579101562,0.487976074219
60782893840,-0.674499511719,-0.553649902344,0.0526123046875,0.485534667969
60782917792,-0.688232421875,-0.538208007812,0.07763671875,0.480224609375
60782931388,-0.702758789062,-0.520080566406,0.104309082031,0.47412109375
60782954022,-0.716979980469,-0.500122070312,0.132080078125,0.467346191406
60782976543,-0.730529785156,-0.479431152344,0.159851074219,0.459289550781
60782991331,-0.743591308594,-0.457641601562,0.18701171875,0.450256347656
60783016739,-0.755310058594,-0.435607910156,0.212158203125,0.441345214844
60783036473,-0.765197753906,-0.414245605469,0.234619140625,0.433410644531
60783051469,-0.773193359375,-0.393676757812,0.25439453125,0.427185058594
60783074010,-0.779541015625,-0.375061035156,0.271240234375,0.422058105469
60783096365,-0.784118652344,-0.359497070312,0.284912109375,0.418029785156
60783111520,-0.78759765625,-0.348388671875,0.293640136719,0.414916992188
60783133936,-0.7900390625,-0.340087890625,0.300354003906,0.412353515625
60783156404,-0.791320800781,-0.334411621094,0.304931640625,0.4111328125
60783171513,-0.791687011719,-0.330383300781,0.308044433594,0.411376953125
60783193898,-0.791809082031,-0.327209472656,0.310302734375,0.411926269531
60783216431,-0.791687011719,-0.324951171875,0.311706542969,0.412902832031
60783231389,-0.791625976562,-0.323303222656,0.312866210938,0.413391113281
60783255224,-0.791687011719,-0.322509765625,0.313415527344,0.413513183594
60783276388,-0.7919921875,-0.322021484375,0.313598632812,0.413269042969
60783294232,-0.792724609375,-0.320983886719,0.314758300781,0.411743164062
60783315380,-0.794250488281,-0.319519042969,0.317016601562,0.408264160156
60783336465,-0.796325683594,-0.317199707031,0.320251464844,0.403381347656
60783354238,-0.799133300781,-0.3134765625,0.325012207031,0.396850585938
60783375235,-0.803161621094,-0.308471679688,0.331115722656,0.387451171875
60783396427,-0.808410644531,-0.30224609375,0.338684082031,0.374755859375
60783414213,-0.814331054688,-0.294677734375,0.347900390625,0.359130859375
60783435377,-0.820617675781,-0.286376953125,0.358215332031,0.341003417969
60783456492,-0.826416015625,-0.277770996094,0.368774414062,0.322326660156
60783473452,-0.831970214844,-0.268371582031,0.3798828125,0.302429199219
60783494438,-0.836791992188,-0.258422851562,0.391235351562,0.282836914062
60783518379,-0.840576171875,-0.248901367188,0.402038574219,0.264282226562
60783533388,-0.843383789062,-0.240478515625,0.411682128906,0.247802734375
60783554562,-0.844970703125,-0.234130859375,0.419006347656,0.235961914062
60783570237,-0.846252441406,-0.228759765625,0.424560546875,0.226318359375
60783593387,-0.847473144531,-0.224731445312,0.428344726562,0.21875
60783615910,-0.848693847656,-0.222290039062,0.430358886719,0.21240234375
60783630247,-0.849853515625,-0.220703125,0.430969238281,0.208190917969
60783653417,-0.851013183594,-0.220153808594,0.430358886719,0.205200195312
60783675905,-0.852111816406,-0.220275878906,0.428894042969,0.203796386719
60783690330,-0.852661132812,-0.221008300781,0.427001953125,0.204467773438
60783713414,-0.852905273438,-0.222473144531,0.424865722656,0.206359863281
60783735917,-0.852905273438,-0.224365234375,0.422424316406,0.209289550781
60783757166,-0.852416992188,-0.226379394531,0.420227050781,0.21337890625
60783773414,-0.851745605469,-0.22900390625,0.418273925781,0.217224121094
60783795665,-0.850891113281,-0.232299804688,0.416381835938,0.220458984375
60783817122,-0.850158691406,-0.236145019531,0.414245605469,0.223388671875
60783833355,-0.849365234375,-0.240539550781,0.411376953125,0.226867675781
60783855905,-0.848388671875,-0.245788574219,0.407653808594,0.231628417969
60783877045,-0.847595214844,-0.251770019531,0.40234375,0.2373046875
60783893893,-0.846923828125,-0.258239746094,0.395568847656,0.244079589844
60783915891,-0.846496582031,-0.265319824219,0.38720703125,0.251342773438
60783937036,-0.845886230469,-0.273315429688,0.377685546875,0.259033203125
60783953395,-0.844787597656,-0.282653808594,0.366577148438,0.268432617188
60783983394,-0.842956542969,-0.293579101562,0.353088378906,0.2802734375
60783996980,-0.840576171875,-0.305908203125,0.337341308594,0.293334960938
60784013338,-0.836669921875,-0.319885253906,0.320190429688,0.308532714844
60784035850,-0.831359863281,-0.336242675781,0.30224609375,0.323181152344
60784057115,-0.825256347656,-0.354614257812,0.283447265625,0.335998535156
60784073386,-0.818359375,-0.37353515625,0.264038085938,0.348022460938
60784095912,-0.810852050781,-0.392333984375,0.243469238281,0.359680175781
60784117041,-0.801696777344,-0.4111328125,0.222351074219,0.37255859375
60784132756,-0.790954589844,-0.4306640625,0.200622558594,0.385559082031
60784156340,-0.77978515625,-0.4501953125,0.178955078125,0.396484375
60784177166,-0.769409179688,-0.468383789062,0.158142089844,0.404602050781
60784193384,-0.759643554688,-0.484802246094,0.137268066406,0.411193847656
60784215911,-0.749145507812,-0.499694824219,0.116455078125,0.419006347656
60784237227,-0.738647460938,-0.512939453125,0.0960693359375,0.4267578125
60784253360,-0.729248046875,-0.524353027344,0.0773315429688,0.432800292969
60784275889,-0.721130371094,-0.53369140625,0.0599365234375,0.437805175781
60784297150,-0.714111328125,-0.541870117188,0.0418090820312,0.441345214844
60784313390,-0.707885742188,-0.548583984375,0.0230102539062,0.444396972656
60784335913,-0.701721191406,-0.554321289062,0.00531005859375,0.447570800781
60784357057,-0.695922851562,-0.559265136719,-0.0108032226562,0.450439453125
60784372761,-0.691528320312,-0.563659667969,-0.0274047851562,0.451049804688
60784395886,-0.687805175781,-0.566772460938,-0.0446166992188,0.451354980469
60784417042,-0.683715820312,-0.568908691406,-0.0613403320312,0.452941894531
60784439523,-0.678527832031,-0.570983886719,-0.0778198242188,0.455627441406
60784455910,-0.67236328125,-0.573059082031,-0.0960693359375,0.458679199219
60784477100,-0.666687011719,-0.574279785156,-0.115417480469,0.4609375
60784499960,-0.664001464844,-0.576171875,-0.126403808594,0.459594726562
60784515886,-0.667541503906,-0.578674316406,-0.124755859375,0.45166015625
60784538332,-0.672607421875,-0.578918457031,-0.118530273438,0.445434570312
60784552774,-0.669555664062,-0.582214355469,-0.110961914062,0.44775390625
60784575893,-0.66259765625,-0.584411621094,-0.103088378906,0.45703125
60784598386,-0.656677246094,-0.585571289062,-0.0993041992188,0.464904785156
60784612712,-0.65380859375,-0.586608886719,-0.100646972656,0.467224121094
60784635851,-0.653869628906,-0.587890625,-0.104736328125,0.464721679688
60784658386,-0.655822753906,-0.588623046875,-0.108764648438,0.460021972656
60784679565,-0.659545898438,-0.587585449219,-0.112243652344,0.455261230469
60784695892,-0.66259765625,-0.5859375,-0.114562988281,0.452331542969
60784725884,-0.662719726562,-0.584899902344,-0.114685058594,0.453491210938
60784739564,-0.660583496094,-0.584533691406,-0.11328125,0.457336425781
60784755886,-0.658569335938,-0.584716796875,-0.112365722656,0.460205078125
