60975318144,0.71240234375,-0.4775390625,-0.55908203125
60975333397,0.7138671875,-0.46728515625,-0.5576171875
60975363617,0.71337890625,-0.470703125,-0.546875
60975378268,0.84423828125,-0.478515625,-0.53515625
60975393218,0.783203125,-0.40625,-0.84130859375
60975416977,0.052734375,-0.62841796875,-0.90283203125
60975438212,0.09228515625,-0.58642578125,-1.029296875
60975453211,0.5556640625,-0.4306640625,-0.88134765625
60975507505,1.19677734375,-0.29931640625,-0.38818359375
60975509587,1.33203125,-0.36572265625,-0.07421875
60975515909,0.79638671875,-0.5537109375,-0.29345703125
60975529046,0.16748046875,-0.6630859375,-0.80859375
60975543950,0.15625,-0.5634765625,-1.05419921875
60975567577,0.1474609375,-0.53125,-0.7470703125
60975596935,0.6455078125,-0.44091796875,-0.59033203125
60975643119,0.72119140625,-0.47119140625,-0.56396484375
60975643910,0.708984375,-0.47509765625,-0.5625
60975650041,0.71240234375,-0.4765625,-0.5673828125
60975663626,0.734375,-0.4833984375,-0.56787109375
60975686219,0.841796875,-0.529296875,-0.26416015625
60975700438,0.34326171875,-0.45849609375,-0.9228515625
60975723041,0.4580078125,-0.4384765625,-0.91455078125
60975745563,1.03662109375,-0.326171875,-0.52587890625
60975760557,1.36962890625,-0.33349609375,-0.10888671875
60975783010,0.95751953125,-0.51318359375,-0.20068359375
60975805486,0.24658203125,-0.65771484375,-0.72900390625
60975820526,0.11767578125,-0.587890625,-1.0712890625
60975842924,0.77197265625,-0.41162109375,-0.7724609375
60975865581,1.2958984375,-0.34375,-0.30517578125
60975887960,0.78955078125,-0.43359375,-0.6806640625
60975903023,0.64404296875,-0.50244140625,-0.63330078125
60975925598,0.595703125,-0.55810546875,-0.6298828125
60975947982,0.63818359375,-0.58056640625,-0.62109375
60975965807,0.64111328125,-0.64404296875,-0.6455078125
60975985550,0.63525390625,-0.68603515625,-0.654296875
60976008045,0.63818359375,-0.71630859375,-0.7236328125
60976023061,0.63671875,-0.7216796875,-0.74072265625
60976045523,0.6220703125,-0.77001953125,-0.7529296875
60976060607,0.58154296875,-0.7958984375,-0.7734375
60976083032,0.50732421875,-0.8017578125,-0.78515625
60976105465,0.44287109375,-0.8212890625,-0.77587890625
60976120523,0.38427734375,-0.81640625,-0.80029296875
60976143070,0.341796875,-0.79638671875,-0.81689453125
60976165516,0.314453125,-0.837890625,-0.79150390625
60976180538,0.25634765625,-0.84765625,-0.78857421875
60976203011,0.20361328125,-0.83544921875,-0.77392578125
60976225537,0.15283203125,-0.81689453125,-0.76904296875
60976240565,0.0966796875,-0.77880859375,-0.75341796875
60976262964,0.0517578125,-0.78173828125,-0.755859375
60976285595,-0.01318359375,-0.76708984375,-0.72705078125
60976300516,-0.07373046875,-0.69384765625,-0.701171875
60976331218,-0.10595703125,-0.66650390625,-0.6806640625
60976345447,-0.1357421875,-0.69140625,-0.658203125
60976360450,-0.18896484375,-0.662109375,-0.65380859375
60976383073,-0.2314453125,-0.6025390625,-0.6259765625
60976405569,-0.25830078125,-0.5771484375,-0.61474609375
60976420574,-0.2744140625,-0.5712890625,-0.5888671875
60976443081,-0.3056640625,-0.57958984375,-0.56689453125
60976465509,-0.3349609375,-0.5419921875,-0.55712890625
60976480621,-0.38330078125,-0.48876953125,-0.56103515625
60976503012,-0.4248046875,-0.48828125,-0.568359375
60976525550,-0.4453125,-0.51123046875,-0.56298828125
60976540584,-0.47216796875,-0.513671875,-0.56591796875
60976563044,-0.50537109375,-0.48681640625,-0.564453125
60976594407,-0.52294921875,-0.490234375,-0.5654296875
60976600575,-0.53662109375,-0.49755859375,-0.57177734375
60976624393,-0.5576171875,-0.49169921875,-0.58984375
60976645588,-0.57275390625,-0.4970703125,-0.59814453125
60976663340,-0.59716796875,-0.49560546875,-0.60791015625
60976684366,-0.6103515625,-0.4716796875,-0.61181640625
60976705498,-0.61279296875,-0.47900390625,-0.619140625
60976723356,-0.62255859375,-0.521484375,-0.66015625
60976744389,-0.63134765625,-0.53271484375,-0.654296875
60976765560,-0.63818359375,-0.52099609375,-0.65478515625
60976783333,-0.6337890625,-0.50341796875,-0.65234375
60976804385,-0.62353515625,-0.49560546875,-0.66064453125
60976825548,-0.6259765625,-0.51953125,-0.669921875
60976843330,-0.60205078125,-0.5498046875,-0.6611328125
60976864327,-0.59619140625,-0.54833984375,-0.6513671875
60976885546,-0.59765625,-0.5126953125,-0.64892578125
60976903314,-0.59375,-0.49365234375,-0.64306640625
60976925814,-0.57470703125,-0.517578125,-0.64599609375
60976945524,-0.5625,-0.54833984375,-0.64208984375
60976963341,-0.5576171875,-0.54052734375,-0.638671875
60976985823,-0.5498046875,-0.51611328125,-0.6357421875
60977005506,-0.53955078125,-0.5078125,-0.62646484375
60977030846,-0.52197265625,-0.51513671875,-0.6181640625
60977045861,-0.49365234375,-0.521484375,-0.603515625
60977065525,-0.45703125,-0.53369140625,-0.5947265625
60977083295,-0.42333984375,-0.52685546875,-0.5966796875
60977105013,-0.42333984375,-0.517578125,-0.6123046875
60977126214,-0.4111328125,-0.5341796875,-0.61083984375
60977142510,-0.38720703125,-0.54052734375,-0.58740234375
60977164987,-0.35009765625,-0.55908203125,-0.58740234375
60977186314,-0.32177734375,-0.5634765625,-0.58740234375
60977202542,-0.29638671875,-0.58837890625,-0.61083984375
60977225012,-0.287109375,-0.62255859375,-0.640625
60977253706,-0.265625,-0.6376953125,-0.62939453125
60977262508,-0.2158203125,-0.671875,-0.638671875
60977285013,-0.1884765625,-0.6826171875,-0.65625
60977306103,-0.1728515625,-0.70947265625,-0.69921875
60977322487,-0.140625,-0.7294921875,-0.7080078125
60977345080,-0.06298828125,-0.76171875,-0.7265625
60977366030,-0.00390625,-0.79345703125,-0.73193359375
60977382485,0.03466796875,-0.79736328125,-0.7275390625
60977405034,0.0625,-0.80615234375,-0.74658203125
60977426220,0.119140625,-0.7958984375,-0.7548828125
60977442512,0.22314453125,-0.80224609375,-0.748046875
60977465001,0.30126953125,-0.80126953125,-0.75634765625
60977486183,0.328125,-0.78955078125,-0.740234375
60977502506,0.357421875,-0.76416015625,-0.74072265625
60977525009,0.41552734375,-0.7412109375,-0.7490234375
60977546225,0.46630859375,-0.73095703125,-0.736328125
60977562494,0.505859375,-0.73291015625,-0.7001953125
60977585054,0.53662109375,-0.697265625,-0.70556640625
60977606175,0.5478515625,-0.6669921875,-0.68994140625
60977622492,0.587890625,-0.6318359375,-0.6767578125
60977645087,0.6142578125,-0.59033203125,-0.66259765625
60977666207,0.63134765625,-0.5693359375,-0.64453125
60977681854,0.63671875,-0.548828125,-0.61376953125
60977704973,0.67333984375,-0.52099609375,-0.6005859375
60977726113,0.61279296875,-0.4990234375,-0.4677734375
60977741820,0.45654296875,-0.57177734375,-0.72412109375
60977765672,0.56396484375,-0.8662109375,-0.939453125
60977786155,0.7529296875,-0.99365234375,-0.7939453125
60977808670,0.81103515625,-0.66259765625,-0.76220703125
60977824992,0.783203125,-0.3955078125,-0.71240234375
60977847540,0.751953125,-0.28125,-0.63525390625
60977862312,0.72119140625,-0.26318359375,-0.64453125
60977884983,0.70751953125,-0.2939453125,-0.625
60977907491,0.72314453125,-0.39208984375,-0.5771484375
60977921819,0.73095703125,-0.501953125,-0.556640625
60977945034,0.736328125,-0.55859375,-0.52587890625
60977967537,0.72216796875,-0.54541015625,-0.5087890625
60977988648,0.73388671875,-0.48974609375,-0.52001953125
60978004984,0.72314453125,-0.43115234375,-0.52685546875
60978027513,0.72998046875,-0.38330078125,-0.55126953125
60978041838,0.74072265625,-0.39501953125,-0.54931640625
60978064976,0.74658203125,-0.4296875,-0.55810546875
60978087516,0.74560546875,-0.4619140625,-0.5771484375
60978101829,0.7353515625,-0.466796875,-0.59716796875
60978124985,0.7294921875,-0.45751953125,-0.59130859375
60978147560,0.72998046875,-0.439453125,-0.5830078125
60978161864,0.73779296875,-0.4267578125,-0.57763671875
60978185014,0.73779296875,-0.4208984375,-0.55810546875
60978207488,0.7353515625,-0.42431640625,-0.55126953125
60978221818,0.7314453125,-0.4453125,-0.55712890625
60978245015,0.7294921875,-0.45556640625,-0.5615234375
60978275004,0.734375,-0.4453125,-0.56787109375
60978281815,0.73876953125,-0.4326171875,-0.57421875
60978304970,0.73681640625,-0.4267578125,-0.57421875
60978327454,0.73583984375,-0.42626953125,-0.58154296875
60978348534,0.73486328125,-0.42822265625,-0.57421875
60978364991,0.73828125,-0.43603515625,-0.578125
60978387475,0.740234375,-0.43896484375,-0.56787109375
60978408663,0.7333984375,-0.44189453125,-0.5693359375
60978424985,0.73876953125,-0.43603515625,-0.5673828125
60978447471,0.740234375,-0.43896484375,-0.5693359375
60978468573,0.74072265625,-0.431640625,-0.56201171875
60978485054,0.7431640625,-0.421875,-0.56494140625
60978507484,0.73779296875,-0.427734375,-0.55908203125
60978528685,0.736328125,-0.42822265625,-0.56298828125
60978545081,0.7373046875,-0.43212890625,-0.55517578125
60978567557,0.7373046875,-0.42578125,-0.55908203125
60978588712,0.7421875,-0.419921875,-0.5576171875
60978604962,0.7412109375,-0.42919921875,-0.5654296875
60978627487,0.74072265625,-0.43212890625,-0.564453125
60978648639,0.73828125,-0.43603515625,-0.56787109375
60978665005,0.73681640625,-0.4365234375,-0.56787109375
60978687523,0.7353515625,-0.427734375,-0.564453125
60978708647,0.73681640625,-0.4208984375,-0.5703125
60978724993,0.7392578125,-0.42333984375,-0.5654296875
60978747474,0.7392578125,-0.42919921875,-0.5595703125
60978768734,0.73876953125,-0.431640625,-0.5615234375
60978785014,0.740234375,-0.43212890625,-0.56884765625
60978807449,0.73876953125,-0.43115234375,-0.5634765625
60978830042,0.73779296875,-0.42919921875,-0.572265625
60978844990,0.73828125,-0.42822265625,-0.56494140625
60978867450,0.73388671875,-0.43359375,-0.56689453125
60978889985,0.7431640625,-0.4326171875,-0.5673828125
60978904988,0.7333984375,-0.4375,-0.5673828125
60978927943,0.73583984375,-0.4345703125,-0.56689453125
60978949995,0.7353515625,-0.43994140625,-0.5673828125
60978964326,0.73876953125,-0.43408203125,-0.56494140625
60978987468,0.73974609375,-0.42626953125,-0.5634765625
