60700500385,-0.65234375,-0.59326171875,-0.099365234375,0.461181640625
60700522946,-0.652282714844,-0.59326171875,-0.099365234375,0.461181640625
60700546735,-0.65234375,-0.593322753906,-0.099365234375,0.461120605469
60700568348,-0.652893066406,-0.594604492188,-0.098876953125,0.458801269531
60700598115,-0.651977539062,-0.594360351562,-0.0999755859375,0.460144042969
60700606782,-0.648254394531,-0.593383789062,-0.104125976562,0.465698242188
60700621713,-0.648071289062,-0.592407226562,-0.1025390625,0.467529296875
60700644259,-0.652160644531,-0.592407226562,-0.0956420898438,0.463256835938
60700665605,-0.655700683594,-0.593383789062,-0.0911865234375,0.457946777344
60700680676,-0.655334472656,-0.593566894531,-0.092041015625,0.458068847656
60700719918,-0.650756835938,-0.593078613281,-0.0985717773438,0.463806152344
60700721980,-0.650268554688,-0.592834472656,-0.0989990234375,0.464782714844
60700734193,-0.653381347656,-0.59228515625,-0.093505859375,0.462219238281
60700784145,-0.653869628906,-0.592407226562,-0.0925903320312,0.461486816406
60700787567,-0.65380859375,-0.591979980469,-0.0933837890625,0.4619140625
60700801121,-0.653930664062,-0.591857910156,-0.093505859375,0.461853027344
60700817587,-0.653869628906,-0.591857910156,-0.0938110351562,0.461975097656
60700840486,-0.65380859375,-0.591796875,-0.0940551757812,0.462036132812
60700868429,-0.654602050781,-0.592712402344,-0.092529296875,0.460083007812
60700878787,-0.656005859375,-0.593933105469,-0.0911865234375,0.456726074219
60700898577,-0.660217285156,-0.594360351562,-0.0855102539062,0.451232910156
60700921443,-0.662475585938,-0.595336914062,-0.083251953125,0.446960449219
60700961185,-0.659973144531,-0.596069335938,-0.0881958007812,0.448791503906
60700966638,-0.6552734375,-0.595520019531,-0.094970703125,0.455017089844
60700972709,-0.654174804688,-0.594482421875,-0.0950317382812,0.457946777344
60700995315,-0.657897949219,-0.594482421875,-0.0887451171875,0.453857421875
60701017710,-0.658630371094,-0.5947265625,-0.0878295898438,0.452575683594
60701032778,-0.656372070312,-0.595458984375,-0.0924072265625,0.453979492188
60701055338,-0.657043457031,-0.596496582031,-0.0914306640625,0.451843261719
60701077722,-0.657165527344,-0.596984863281,-0.0909423828125,0.451232910156
60701092837,-0.657043457031,-0.596862792969,-0.09130859375,0.451416015625
60701178088,-0.656982421875,-0.596862792969,-0.09130859375,0.451477050781
60701180346,-0.656982421875,-0.596862792969,-0.0913696289062,0.451538085938
60701200665,-0.656433105469,-0.595642089844,-0.0907592773438,0.454040527344
60701212892,-0.655578613281,-0.594360351562,-0.0892944335938,0.457214355469
60701236697,-0.653686523438,-0.593383789062,-0.0860595703125,0.461791992188
60701257848,-0.652160644531,-0.593017578125,-0.0817260742188,0.465209960938
60701272877,-0.652038574219,-0.593078613281,-0.0771484375,0.466125488281
60701295209,-0.653930664062,-0.593139648438,-0.072265625,0.464111328125
60701335460,-0.657653808594,-0.592651367188,-0.0664672851562,0.460266113281
60701337778,-0.661926269531,-0.591796875,-0.0601196289062,0.456115722656
60701355298,-0.666137695312,-0.590393066406,-0.052001953125,0.452819824219
60701377753,-0.670227050781,-0.588928222656,-0.0404663085938,0.449829101562
60701392890,-0.675109863281,-0.586975097656,-0.0258178710938,0.446105957031
60701415369,-0.682006835938,-0.583618164062,-0.0093994140625,0.440734863281
60701437884,-0.689819335938,-0.578857421875,0.00921630859375,0.434753417969
60701452959,-0.698059082031,-0.573303222656,0.0294799804688,0.428039550781
60701476684,-0.706359863281,-0.566650390625,0.051025390625,0.421203613281
60701497838,-0.715576171875,-0.558166503906,0.0736083984375,0.413513183594
60701512820,-0.725646972656,-0.547912597656,0.0971069335938,0.40478515625
60701535249,-0.736328125,-0.536376953125,0.120544433594,0.394470214844
60701557862,-0.7470703125,-0.523742675781,0.144165039062,0.383239746094
60701574118,-0.757690429688,-0.509948730469,0.167602539062,0.371276855469
60701595283,-0.767883300781,-0.495056152344,0.191223144531,0.358825683594
60701617813,-0.778137207031,-0.47900390625,0.214416503906,0.345153808594
60701634162,-0.787353515625,-0.462158203125,0.237365722656,0.331848144531
60701655329,-0.796203613281,-0.444702148438,0.259216308594,0.318115234375
60701677733,-0.805114746094,-0.426147460938,0.280334472656,0.302795410156
60701701638,-0.813415527344,-0.406982421875,0.300964355469,0.286743164062
60701715211,-0.820434570312,-0.387451171875,0.320861816406,0.271789550781
60701737706,-0.826416015625,-0.367858886719,0.33984375,0.257263183594
60701754141,-0.831787109375,-0.348022460938,0.358032226562,0.24267578125
60701775295,-0.836486816406,-0.327819824219,0.375610351562,0.2275390625
60701797802,-0.8408203125,-0.307861328125,0.392028808594,0.211181640625
60701814192,-0.844177246094,-0.289123535156,0.406982421875,0.195190429688
60701838175,-0.846496582031,-0.271484375,0.420715332031,0.180847167969
60701857817,-0.848205566406,-0.254943847656,0.433349609375,0.166809082031
60701875635,-0.849670410156,-0.239379882812,0.444458007812,0.152404785156
60701898607,-0.851013183594,-0.225219726562,0.45361328125,0.138854980469
60701918479,-0.851928710938,-0.212341308594,0.46142578125,0.127380371094
60701934858,-0.852722167969,-0.201416015625,0.467529296875,0.1171875
60701957342,-0.853149414062,-0.192443847656,0.472717285156,0.107788085938
60701978381,-0.853332519531,-0.18505859375,0.47705078125,0.100036621094
60701995346,-0.853393554688,-0.179138183594,0.480590820312,0.0933227539062
60702017365,-0.853332519531,-0.174377441406,0.4833984375,0.0883178710938
60702038384,-0.853149414062,-0.17041015625,0.485717773438,0.084716796875
60702054833,-0.852783203125,-0.167602539062,0.487854003906,0.0816650390625
60702077346,-0.852355957031,-0.166076660156,0.489501953125,0.07958984375
60702098464,-0.85205078125,-0.165100097656,0.490539550781,0.0786743164062
60702114860,-0.851745605469,-0.164428710938,0.491271972656,0.0787353515625
60702137398,-0.851318359375,-0.164428710938,0.491943359375,0.0786743164062
60702158506,-0.850952148438,-0.164916992188,0.492492675781,0.0786743164062
60702175474,-0.8505859375,-0.165588378906,0.492736816406,0.0791625976562
60702197296,-0.850219726562,-0.16650390625,0.493041992188,0.07958984375
60702218463,-0.849914550781,-0.167175292969,0.493225097656,0.080322265625
60702234787,-0.849548339844,-0.167663574219,0.493591308594,0.0808715820312
60702257308,-0.849060058594,-0.168334960938,0.494140625,0.0811767578125
60702278381,-0.848571777344,-0.168762207031,0.494689941406,0.08203125
60702294808,-0.848022460938,-0.169006347656,0.495361328125,0.0828247070312
60702317349,-0.847717285156,-0.169250488281,0.495788574219,0.0833740234375
60702339840,-0.847595214844,-0.169250488281,0.495849609375,0.084228515625
60702354847,-0.847595214844,-0.169128417969,0.49560546875,0.0856323242188
60702377350,-0.847778320312,-0.168884277344,0.495239257812,0.0869140625
60702398496,-0.848022460938,-0.168884277344,0.494689941406,0.0873413085938
60702414831,-0.848388671875,-0.168884277344,0.494018554688,0.0877685546875
60702437337,-0.848693847656,-0.1689453125,0.493408203125,0.0882568359375
60702458493,-0.848876953125,-0.169311523438,0.492797851562,0.0889892578125
60702474818,-0.849060058594,-0.169799804688,0.4921875,0.0901489257812
60702497337,-0.849182128906,-0.170288085938,0.491455078125,0.0914916992188
60702519844,-0.849243164062,-0.171081542969,0.490783691406,0.093017578125
60702534808,-0.849304199219,-0.172241210938,0.489929199219,0.0950317382812
60702557292,-0.849426269531,-0.173767089844,0.488830566406,0.0966186523438
60702579841,-0.849670410156,-0.175537109375,0.487426757812,0.0982055664062
60702594161,-0.849975585938,-0.177429199219,0.48583984375,0.100036621094
60702617345,-0.850219726562,-0.179626464844,0.484130859375,0.102478027344
60702639883,-0.850341796875,-0.182495117188,0.482177734375,0.105834960938
60702661032,-0.850463867188,-0.18603515625,0.479553222656,0.110168457031
60702677355,-0.850708007812,-0.190307617188,0.476318359375,0.115051269531
60702699811,-0.851135253906,-0.195495605469,0.472045898438,0.120544433594
60702720935,-0.851745605469,-0.201538085938,0.466735839844,0.127014160156
60702737338,-0.852416992188,-0.208251953125,0.460327148438,0.134765625
60702759813,-0.852966308594,-0.2158203125,0.453125,0.143371582031
60702780957,-0.853271484375,-0.224243164062,0.445434570312,0.152709960938
60702804806,-0.853149414062,-0.233154296875,0.437133789062,0.163452148438
60702819811,-0.853088378906,-0.243347167969,0.427612304688,0.173950195312
60702840911,-0.852722167969,-0.2548828125,0.416870117188,0.184814453125
60702863458,-0.851928710938,-0.267395019531,0.405090332031,0.196533203125
60702879790,-0.8505859375,-0.280212402344,0.392333984375,0.2099609375
60702900910,-0.848937988281,-0.293273925781,0.378662109375,0.223510742188
60702917368,-0.846740722656,-0.306396484375,0.364868164062,0.23681640625
60702939832,-0.843994140625,-0.319702148438,0.350830078125,0.249694824219
60702960960,-0.840942382812,-0.334228515625,0.335144042969,0.262390136719
60702977336,-0.837585449219,-0.349670410156,0.317199707031,0.275024414062
60702999816,-0.833618164062,-0.365173339844,0.298278808594,0.287780761719
60703021059,-0.828674316406,-0.380554199219,0.279479980469,0.300720214844
60703037306,-0.823425292969,-0.395812988281,0.260070800781,0.312622070312
60703059802,-0.817626953125,-0.410827636719,0.239624023438,0.324462890625
60703080825,-0.811340332031,-0.42578125,0.218200683594,0.3359375
60703097303,-0.804382324219,-0.440490722656,0.196716308594,0.346801757812
60703119824,-0.797180175781,-0.455078125,0.175659179688,0.355712890625
60703142388,-0.790222167969,-0.468933105469,0.154724121094,0.362915039062
60703157355,-0.783386230469,-0.481750488281,0.133666992188,0.369323730469
60703179822,-0.776123046875,-0.49365234375,0.113464355469,0.375671386719
60703201009,-0.76806640625,-0.504760742188,0.0950927734375,0.382446289062
60703216663,-0.759826660156,-0.515380859375,0.0776977539062,0.388671875
60703239790,-0.752258300781,-0.524963378906,0.0611572265625,0.393493652344
60703262342,-0.745544433594,-0.532958984375,0.0471801757812,0.397399902344
60703276663,-0.739074707031,-0.5400390625,0.0342407226562,0.401306152344
60703299815,-0.731201171875,-0.547607421875,0.0209350585938,0.406372070312
60703320964,-0.72265625,-0.554809570312,0.0076904296875,0.412292480469
60703337133,-0.715148925781,-0.561401367188,-0.0047607421875,0.416381835938
60703359789,-0.70947265625,-0.566833496094,-0.0166015625,0.41845703125
60703382369,-0.704895019531,-0.57080078125,-0.0282592773438,0.420227050781
60703396710,-0.700561523438,-0.573547363281,-0.0404052734375,0.422668457031
60703419763,-0.696044921875,-0.575561523438,-0.0530395507812,0.426025390625
60703442362,-0.691833496094,-0.576904296875,-0.0647583007812,0.429382324219
60703456661,-0.688415527344,-0.578063964844,-0.0755615234375,0.431640625
60703479812,-0.685729980469,-0.578735351562,-0.0864868164062,0.432922363281
60703502327,-0.683532714844,-0.578308105469,-0.0985717773438,0.434326171875
60703516681,-0.681335449219,-0.578063964844,-0.109130859375,0.435546875
60703539831,-0.679748535156,-0.578857421875,-0.115905761719,0.435302734375
60703562305,-0.679260253906,-0.579772949219,-0.118774414062,0.434020996094
60703583505,-0.6796875,-0.580383300781,-0.118530273438,0.4326171875
60703599812,-0.678955078125,-0.581787109375,-0.117370605469,0.432250976562
60703622383,-0.67578125,-0.583801269531,-0.115966796875,0.434875488281
60703643181,-0.671997070312,-0.585205078125,-0.115051269531,0.43896484375
60703659794,-0.669128417969,-0.586059570312,-0.115417480469,0.442199707031
60703682345,-0.667236328125,-0.5869140625,-0.116638183594,0.443603515625
60703703421,-0.666198730469,-0.587890625,-0.118469238281,0.443359375
60703719812,-0.665954589844,-0.588745117188,-0.119812011719,0.442199707031
