60649726189,-0.649169921875,-0.602905273438,-0.092041015625,0.454650878906
60649742493,-0.6494140625,-0.602844238281,-0.0921630859375,0.454284667969
60649771815,-0.649658203125,-0.602844238281,-0.0923461914062,0.453857421875
60649787598,-0.648864746094,-0.60302734375,-0.0942993164062,0.454467773438
60649802541,-0.645568847656,-0.602111816406,-0.09912109375,0.459289550781
60649823971,-0.64111328125,-0.601623535156,-0.105346679688,0.464721679688
60649847613,-0.638244628906,-0.600463867188,-0.108154296875,0.469604492188
60649868882,-0.640319824219,-0.599914550781,-0.103698730469,0.468444824219
60649884056,-0.644958496094,-0.6005859375,-0.0971069335938,0.462524414062
60649923251,-0.645141601562,-0.600891113281,-0.0971069335938,0.461791992188
60649925435,-0.641357421875,-0.600830078125,-0.103332519531,0.465881347656
60649937681,-0.640502929688,-0.6005859375,-0.104309082031,0.467163085938
60649955192,-0.642272949219,-0.599914550781,-0.100463867188,0.466430664062
60649975325,-0.640380859375,-0.600524902344,-0.103881835938,0.467529296875
60650004596,-0.640686035156,-0.600891113281,-0.103271484375,0.466735839844
60650048721,-0.640747070312,-0.600952148438,-0.103210449219,0.466613769531
60650058972,-0.641052246094,-0.60107421875,-0.103149414062,0.466064453125
60650059557,-0.641418457031,-0.601013183594,-0.103088378906,0.465576171875
60650072563,-0.641357421875,-0.600646972656,-0.104187011719,0.465942382812
60650093615,-0.641662597656,-0.602111816406,-0.1044921875,0.463562011719
60650116251,-0.642700195312,-0.60205078125,-0.102905273438,0.462524414062
60650141550,-0.643859863281,-0.602233886719,-0.101257324219,0.461059570312
60650153596,-0.64599609375,-0.603332519531,-0.0994262695312,0.456970214844
60650176099,-0.643188476562,-0.603515625,-0.104553222656,0.459594726562
60650194104,-0.642150878906,-0.603271484375,-0.105834960938,0.461059570312
60650213677,-0.642761230469,-0.602355957031,-0.103454589844,0.461975097656
60650231527,-0.647277832031,-0.602722167969,-0.0963134765625,0.456604003906
60650254006,-0.647888183594,-0.60302734375,-0.0957641601562,0.455505371094
60650273773,-0.648559570312,-0.60400390625,-0.09521484375,0.453308105469
60650291498,-0.648559570312,-0.603393554688,-0.0956420898438,0.454040527344
60650314023,-0.648559570312,-0.603454589844,-0.095703125,0.454040527344
60650333843,-0.648620605469,-0.603088378906,-0.095458984375,0.454345703125
60650351582,-0.648803710938,-0.602722167969,-0.0951538085938,0.454772949219
60650374047,-0.648803710938,-0.601989746094,-0.0942993164062,0.455810546875
60650393750,-0.6484375,-0.600830078125,-0.0926513671875,0.458251953125
60650416099,-0.647583007812,-0.599914550781,-0.0900268554688,0.461242675781
60650433995,-0.646728515625,-0.599365234375,-0.0856323242188,0.463989257812
60650455086,-0.647033691406,-0.599304199219,-0.0797119140625,0.464660644531
60650476070,-0.649536132812,-0.59912109375,-0.0728149414062,0.462463378906
60650494016,-0.654052734375,-0.5986328125,-0.0641479492188,0.458068847656
60650515062,-0.659240722656,-0.598022460938,-0.0531005859375,0.452819824219
60650536227,-0.664733886719,-0.5966796875,-0.0394287109375,0.447814941406
60650553999,-0.670349121094,-0.594482421875,-0.0235595703125,0.443542480469
60650575103,-0.6767578125,-0.591125488281,-0.0052490234375,0.438842773438
60650603717,-0.684143066406,-0.586486816406,0.0147094726562,0.433410644531
60650614028,-0.692932128906,-0.580322265625,0.0358276367188,0.426391601562
60650635087,-0.702819824219,-0.572631835938,0.0572509765625,0.418212890625
60650656158,-0.713012695312,-0.563354492188,0.0795288085938,0.409790039062
60650673974,-0.723205566406,-0.55224609375,0.102844238281,0.40185546875
60650694474,-0.7333984375,-0.5390625,0.126892089844,0.394226074219
60650716934,-0.743713378906,-0.5244140625,0.151489257812,0.385986328125
60650733249,-0.753845214844,-0.5087890625,0.175903320312,0.376770019531
60650754512,-0.763916015625,-0.492492675781,0.199890136719,0.366088867188
60650776864,-0.773803710938,-0.475646972656,0.223510742188,0.353698730469
60650793663,-0.783569335938,-0.457946777344,0.246765136719,0.339782714844
60650814238,-0.793151855469,-0.440185546875,0.26904296875,0.32373046875
60650836897,-0.801513671875,-0.422729492188,0.290283203125,0.307678222656
60650853193,-0.808715820312,-0.404479980469,0.311218261719,0.29248046875
60650875734,-0.815063476562,-0.385986328125,0.3310546875,0.277709960938
60650890130,-0.820495605469,-0.36767578125,0.349609375,0.263427734375
60650913224,-0.825134277344,-0.349304199219,0.367309570312,0.249389648438
60650935684,-0.829284667969,-0.33203125,0.383544921875,0.234436035156
60650950065,-0.832946777344,-0.31591796875,0.397888183594,0.219360351562
60650973214,-0.835876464844,-0.300659179688,0.410827636719,0.205322265625
60650995692,-0.838012695312,-0.286376953125,0.422790527344,0.192321777344
60651016913,-0.839538574219,-0.273315429688,0.43359375,0.180236816406
60651039408,-0.840515136719,-0.261962890625,0.442749023438,0.169982910156
60651063167,-0.841003417969,-0.25146484375,0.450988769531,0.161560058594
60651078192,-0.841491699219,-0.241333007812,0.458312988281,0.153747558594
60651099404,-0.84228515625,-0.231018066406,0.465087890625,0.144714355469
60651115741,-0.842956542969,-0.220947265625,0.471252441406,0.136169433594
60651138190,-0.84326171875,-0.211364746094,0.476928710938,0.129638671875
60651159338,-0.843505859375,-0.202331542969,0.481872558594,0.123962402344
60651175049,-0.843872070312,-0.193542480469,0.486145019531,0.118774414062
60651198225,-0.844299316406,-0.185180664062,0.489929199219,0.113220214844
60651219335,-0.844665527344,-0.177673339844,0.4931640625,0.108520507812
60651235059,-0.844787597656,-0.171569824219,0.495788574219,0.105224609375
60651258208,-0.844909667969,-0.1669921875,0.497741699219,0.102355957031
60651279221,-0.845092773438,-0.163879394531,0.498901367188,0.100280761719
60651295000,-0.845275878906,-0.161682128906,0.49951171875,0.0997314453125
60651318248,-0.845397949219,-0.160461425781,0.49951171875,0.100524902344
60651339380,-0.845581054688,-0.160278320312,0.499084472656,0.101379394531
60651355062,-0.845764160156,-0.160827636719,0.498474121094,0.102172851562
60651378184,-0.845886230469,-0.161987304688,0.49755859375,0.103210449219
60651400697,-0.846130371094,-0.163391113281,0.496398925781,0.104675292969
60651415752,-0.846313476562,-0.164428710938,0.495422363281,0.106079101562
60651438201,-0.846496582031,-0.165466308594,0.494506835938,0.107421875
60651460744,-0.846740722656,-0.166442871094,0.493408203125,0.109191894531
60651475739,-0.846923828125,-0.167541503906,0.492370605469,0.110595703125
60651498197,-0.847106933594,-0.168579101562,0.491516113281,0.111572265625
60651520716,-0.847351074219,-0.169311523438,0.490600585938,0.112365722656
60651535088,-0.847534179688,-0.169677734375,0.490051269531,0.113037109375
60651558223,-0.84765625,-0.169982910156,0.489685058594,0.11328125
60651580605,-0.847595214844,-0.17041015625,0.489562988281,0.113464355469
60651595037,-0.847473144531,-0.170837402344,0.489624023438,0.113708496094
60651618188,-0.847290039062,-0.171081542969,0.489807128906,0.113586425781
60651640718,-0.84716796875,-0.171264648438,0.490051269531,0.11328125
60651655055,-0.847106933594,-0.17138671875,0.490112304688,0.11328125
60651678196,-0.847045898438,-0.17138671875,0.490173339844,0.113525390625
60651700640,-0.847045898438,-0.171447753906,0.490173339844,0.113586425781
60651715062,-0.847045898438,-0.171447753906,0.490173339844,0.113586425781
60651738197,-0.846923828125,-0.171691894531,0.490234375,0.113586425781
60651760712,-0.846923828125,-0.172119140625,0.490173339844,0.113647460938
60651775039,-0.846740722656,-0.172424316406,0.490173339844,0.114074707031
60651804335,-0.8466796875,-0.1728515625,0.490112304688,0.114501953125
60651820689,-0.846557617188,-0.17333984375,0.489990234375,0.115112304688
60651835013,-0.846496582031,-0.173767089844,0.48974609375,0.115661621094
60651858217,-0.846557617188,-0.174194335938,0.489501953125,0.116027832031
60651880693,-0.846557617188,-0.174682617188,0.489196777344,0.116516113281
60651901755,-0.846557617188,-0.175109863281,0.488708496094,0.117614746094
60651918167,-0.846618652344,-0.175537109375,0.488159179688,0.118835449219
60651940706,-0.846740722656,-0.176025390625,0.487609863281,0.119812011719
60651961844,-0.846862792969,-0.1767578125,0.486938476562,0.120727539062
60651978203,-0.846984863281,-0.177612304688,0.486083984375,0.121643066406
60652000695,-0.84716796875,-0.178344726562,0.485168457031,0.122985839844
60652021960,-0.847351074219,-0.179321289062,0.484130859375,0.12451171875
60652038198,-0.847473144531,-0.180603027344,0.483032226562,0.126037597656
60652060691,-0.847412109375,-0.182312011719,0.481994628906,0.127624511719
60652083211,-0.847290039062,-0.184509277344,0.48095703125,0.12939453125
60652097564,-0.847229003906,-0.187072753906,0.4794921875,0.131530761719
60652120674,-0.847290039062,-0.189880371094,0.4775390625,0.134460449219
60652141914,-0.847229003906,-0.193054199219,0.475341796875,0.137939453125
60652157554,-0.847229003906,-0.196838378906,0.472778320312,0.141479492188
60652180692,-0.847229003906,-0.200927734375,0.469970703125,0.145080566406
60652201726,-0.846984863281,-0.205383300781,0.467041015625,0.149536132812
60652217575,-0.846557617188,-0.210083007812,0.464050292969,0.154602050781
60652240684,-0.846252441406,-0.215393066406,0.460388183594,0.159851074219
60652261817,-0.846069335938,-0.221435546875,0.455871582031,0.16552734375
60652277557,-0.845947265625,-0.227722167969,0.450439453125,0.172241210938
60652300724,-0.845886230469,-0.234436035156,0.444274902344,0.179321289062
60652323191,-0.845703125,-0.241638183594,0.4375,0.187133789062
60652337517,-0.845336914062,-0.24951171875,0.429870605469,0.19580078125
60652360671,-0.844909667969,-0.258178710938,0.42138671875,0.204711914062
60652383188,-0.844116210938,-0.267456054688,0.412109375,0.214721679688
60652397520,-0.843017578125,-0.277099609375,0.401916503906,0.225891113281
60652420661,-0.841796875,-0.287109375,0.390747070312,0.237365722656
60652443222,-0.840454101562,-0.297424316406,0.378356933594,0.249145507812
60652464343,-0.838745117188,-0.307739257812,0.365295410156,0.261474609375
60652480689,-0.836486816406,-0.318420410156,0.35205078125,0.273864746094
60652503208,-0.833862304688,-0.330078125,0.338439941406,0.284973144531
60652524446,-0.831115722656,-0.342346191406,0.324096679688,0.295043945312
60652540680,-0.827819824219,-0.35498046875,0.309387207031,0.304992675781
60652563170,-0.823669433594,-0.367980957031,0.294921875,0.314880371094
60652584414,-0.818725585938,-0.3818359375,0.280578613281,0.324401855469
60652600739,-0.813354492188,-0.396057128906,0.265747070312,0.333190917969
60652623169,-0.807678222656,-0.409973144531,0.250854492188,0.341674804688
60652644314,-0.801940917969,-0.423278808594,0.235717773438,0.349670410156
60652660664,-0.795532226562,-0.436645507812,0.220275878906,0.357727050781
60652683152,-0.788635253906,-0.449829101562,0.205017089844,0.36572265625
60652704331,-0.781860351562,-0.46240234375,0.189697265625,0.372741699219
60652720657,-0.775817871094,-0.473999023438,0.173950195312,0.378356933594
60652743216,-0.770324707031,-0.484130859375,0.157836914062,0.383850097656
60652764262,-0.764465332031,-0.493225097656,0.14208984375,0.39013671875
60652780691,-0.757995605469,-0.501892089844,0.12646484375,0.39697265625
60652803204,-0.751647949219,-0.510375976562,0.110229492188,0.403076171875
60652824398,-0.745849609375,-0.51806640625,0.093994140625,0.408081054688
60652840686,-0.740661621094,-0.525268554688,0.0781860351562,0.411682128906
60652869307,-0.736328125,-0.531799316406,0.0615234375,0.413879394531
60652884339,-0.731872558594,-0.537536621094,0.044677734375,0.416442871094
60652900649,-0.726928710938,-0.542663574219,0.0280151367188,0.419982910156
60652923182,-0.721618652344,-0.547607421875,0.0121459960938,0.423461914062
60652944476,-0.716186523438,-0.552612304688,-0.00189208984375,0.42626953125
60652960705,-0.711791992188,-0.556823730469,-0.0142822265625,0.427978515625
60652983212,-0.708068847656,-0.560119628906,-0.0253295898438,0.429321289062
60653004318,-0.7041015625,-0.563049316406,-0.03515625,0.431335449219
60653020691,-0.699096679688,-0.566284179688,-0.0437622070312,0.434448242188
60653043197,-0.694030761719,-0.569641113281,-0.0518188476562,0.437255859375
60653064366,-0.689514160156,-0.572509765625,-0.0606079101562,0.439514160156
60653080072,-0.686340332031,-0.574462890625,-0.0701293945312,0.440551757812
60653103193,-0.68359375,-0.576293945312,-0.0787353515625,0.440979003906
60653124331,-0.682312011719,-0.578063964844,-0.0858154296875,0.439270019531
60653131188,-0.681701660156,-0.5791015625,-0.0881958007812,0.438415527344
60653147541,-0.680725097656,-0.580078125,-0.0880126953125,0.438720703125
60653168792,-0.677490234375,-0.58251953125,-0.0867309570312,0.440734863281
60653193950,-0.672912597656,-0.585266113281,-0.0852661132812,0.4443359375
60653207550,-0.669311523438,-0.587158203125,-0.0846557617188,0.447326660156
60653228693,-0.667114257812,-0.588562011719,-0.08544921875,0.448669433594
60653251038,-0.665771484375,-0.589660644531,-0.0870361328125,0.448852539062
60653266169,-0.665344238281,-0.590393066406,-0.088623046875,0.448303222656
60653288636,-0.665466308594,-0.591003417969,-0.0899658203125,0.447021484375
60653326012,-0.665283203125,-0.592163085938,-0.091552734375,0.445373535156
60653348694,-0.6650390625,-0.592163085938,-0.0916748046875,0.44580078125
60653371204,-0.664916992188,-0.592041015625,-0.0916137695312,0.446105957031
60653386143,-0.664611816406,-0.591979980469,-0.0914306640625,0.446716308594
60653408718,-0.664184570312,-0.592041015625,-0.091552734375,0.447204589844
60653431193,-0.664123535156,-0.591979980469,-0.09228515625,0.447204589844
60653446201,-0.664306640625,-0.591857910156,-0.0930786132812,0.446960449219
60653468724,-0.664611816406,-0.591674804688,-0.0936279296875,0.446716308594
60653491165,-0.664611816406,-0.591552734375,-0.0938110351562,0.44677734375
60653506226,-0.664428710938,-0.591491699219,-0.0936279296875,0.447143554688
60653528665,-0.6640625,-0.591613769531,-0.093505859375,0.447570800781
60653546478,-0.663879394531,-0.591674804688,-0.0936889648438,0.447814941406
60653566164,-0.663879394531,-0.591674804688,-0.0936889648438,0.44775390625
60653588611,-0.663940429688,-0.591735839844,-0.093994140625,0.447509765625
60653606453,-0.663940429688,-0.591674804688,-0.0941772460938,0.447509765625
60653626189,-0.663940429688,-0.591613769531,-0.0941772460938,0.447570800781
60653648670,-0.664001464844,-0.591491699219,-0.0942993164062,0.44775390625
60653666468,-0.663940429688,-0.591430664062,-0.0942993164062,0.44775390625
60653686015,-0.663940429688,-0.591430664062,-0.0942993164062,0.447814941406
60653708549,-0.663940429688,-0.591430664062,-0.0942993164062,0.447814941406
60653726444,-0.663940429688,-0.591430664062,-0.0943603515625,0.447814941406
60653746227,-0.663940429688,-0.591430664062,-0.0943603515625,0.447814941406
60653768714,-0.663940429688,-0.591430664062,-0.0943603515625,0.447814941406
60653786486,-0.664001464844,-0.591369628906,-0.0946044921875,0.44775390625
60653807507,-0.664001464844,-0.591369628906,-0.0946044921875,0.44775390625
60653828674,-0.664001464844,-0.591369628906,-0.0946044921875,0.44775390625
60653846510,-0.663940429688,-0.591369628906,-0.0946044921875,0.447814941406
60653866118,-0.663940429688,-0.591369628906,-0.0946044921875,0.447814941406
60653888698,-0.663940429688,-0.591369628906,-0.0946044921875,0.447814941406
60653906484,-0.663940429688,-0.591369628906,-0.0946044921875,0.447875976562
60653927509,-0.663940429688,-0.591369628906,-0.0946044921875,0.447875976562
60653948633,-0.663940429688,-0.591369628906,-0.0946655273438,0.447875976562
60653966502,-0.663940429688,-0.591369628906,-0.0946655273438,0.447937011719
60653987487,-0.663940429688,-0.59130859375,-0.0946655273438,0.447937011719
60654008794,-0.663940429688,-0.59130859375,-0.0946044921875,0.447937011719
60654026471,-0.663879394531,-0.59130859375,-0.0946655273438,0.447937011719
60654047494,-0.663879394531,-0.59130859375,-0.0946655273438,0.447937011719
60654068670,-0.663879394531,-0.59130859375,-0.0946655273438,0.447937011719
60654086481,-0.663879394531,-0.59130859375,-0.0946655273438,0.447998046875
60654107489,-0.663879394531,-0.59130859375,-0.0946655273438,0.447998046875
60654128630,-0.663879394531,-0.59130859375,-0.0946655273438,0.447998046875
60654146508,-0.663879394531,-0.59130859375,-0.0946655273438,0.447998046875
60654168948,-0.663879394531,-0.59130859375,-0.0946655273438,0.448059082031
60654188743,-0.663879394531,-0.59130859375,-0.0946655273438,0.448059082031
60654206422,-0.663879394531,-0.59130859375,-0.0946655273438,0.448059082031
60654228996,-0.663879394531,-0.59130859375,-0.0946655273438,0.448059082031
60654248691,-0.663879394531,-0.59130859375,-0.0946655273438,0.448059082031
60654266445,-0.663879394531,-0.591247558594,-0.0946655273438,0.448120117188
60654288978,-0.663879394531,-0.591247558594,-0.0946655273438,0.448059082031
60654308529,-0.663879394531,-0.591247558594,-0.0946655273438,0.448120117188
60654326488,-0.663879394531,-0.591247558594,-0.0946655273438,0.448120117188
