60937477795,-1,0,0,0,1,-1,1,0
60937477795,-1,0,-1,0,4,0,0,-1
60937483390,-1,2,0,0,-1,-1,-1,0
60937483390,-1,2,-2,-1,0,-2,-6,0
60937484041,-2,1,-1,-1,-3,-1,-2,-1
60937484041,1,-3,1,1,0,-1,-3,-1
60937485672,-1,-1,-1,1,-2,-1,-1,1
60937485672,-1,-2,-1,-3,1,2,-3,-1
60937496500,-1,1,3,0,-3,-1,-2,-3
60937496500,-2,-3,-2,0,0,-3,-1,5
60937507858,1,-4,-1,-1,2,-2,-4,-4
60937507858,0,-3,-3,0,0,-3,1,4
60937511313,1,-1,-2,-1,1,-2,-1,5
60937511313,-1,2,-1,-1,-3,1,1,-6
60937526458,1,1,1,-2,-4,2,0,1
60937526458,-3,0,2,0,-2,-1,-1,-3
60937535084,-1,1,-1,-3,0,-4,-3,4
60937535084,2,-2,-3,-3,-1,1,-5,4
60937550014,-2,-3,-4,-2,2,2,-3,-6
60937550014,0,-2,-4,-2,2,-2,-1,2
60937556462,-1,-5,1,-2,2,-1,0,-3
60937556462,1,-3,1,0,-2,-3,1,0
60937578577,-2,-1,0,0,-3,-1,-2,-2
60937578577,1,-1,1,1,-2,0,0,-1
60937612001,1,1,0,0,1,2,-3,5
60937612001,-1,2,-1,0,-2,2,-3,-3
60937626344,-2,-2,-2,0,1,0,-3,-1
60937626344,1,5,1,-3,-1,-5,0,4
60937627004,-2,-3,0,-1,-3,-2,0,-5
60937627004,-2,0,-2,0,0,-2,-2,-1
60937627813,-1,-1,0,-2,-3,-1,0,3
60937627813,-1,-4,-3,-1,-2,1,1,-8
60937631783,0,-1,0,0,1,-1,-2,1
60937631783,0,-1,-1,-2,-1,1,0,1
60937632461,0,-1,-2,-1,0,2,-1,-5
60937632461,0,1,-2,-3,0,2,-2,4
60937640052,-1,2,-1,-1,-2,0,0,0
60937640052,1,0,1,-1,2,-2,-1,2
60937653606,0,0,3,-1,1,-1,0,5
60937653606,0,-3,0,0,0,-1,-2,-6
60937670028,-1,-2,-1,1,0,-4,-3,-2
60937670028,0,2,0,1,1,-1,-1,-5
60937684986,2,0,-4,-1,-2,-2,-2,1
60937684986,0,-1,-3,1,1,0,-2,2
60937686495,1,3,0,0,-1,0,-2,1
60937686495,-4,0,1,0,-3,-2,-1,-4
60937699314,-2,3,1,1,-2,-4,0,1
60937699314,-1,-2,0,-1,0,-1,-2,0
60937706199,0,-3,-1,-3,-3,0,0,3
60937706199,2,-3,-1,-1,0,0,-1,5
60937722479,-1,0,-3,-3,0,0,-3,-3
60937722479,-2,-2,-2,-2,0,-1,-2,-2
60937723961,1,-4,-3,-2,-2,-1,-3,6
60937723961,0,1,2,-4,-2,-1,-2,1
60937744998,-3,0,0,0,0,-1,-2,-2
60937744998,0,4,1,-2,0,1,0,1
60937746488,0,0,-6,-2,1,2,1,-4
60937746488,1,-4,-2,-1,-2,2,1,-2
60937758653,1,-1,-1,-3,0,-1,0,0
60937758653,-1,1,3,-2,-3,-1,-3,2
60937767522,-3,2,4,0,-1,-2,-2,0
60937767522,-1,2,0,0,3,-2,-2,4
60937782538,0,-3,-1,2,0,-1,-1,-2
60937782538,1,-4,-2,0,-1,-2,-2,1
60937783988,-1,-3,0,0,-2,-3,-2,0
60937783988,-2,-1,-2,-3,-4,-1,-2,-2
60937804981,1,-1,-1,-2,0,-1,-3,-7
60937804981,-2,1,-2,0,-2,-1,-4,0
60937806574,-1,-1,-3,-2,-2,-1,0,-4
60937806574,-2,-3,-3,-1,-3,-3,-1,-1
60937818624,-2,-5,-2,-1,-3,-2,4,-1
60937818624,-1,-3,-4,-1,0,-2,-1,-1
60937827513,0,0,0,-1,0,0,-2,0
60937827513,0,1,-2,-1,-2,-3,-2,-3
60937842483,-2,0,0,-3,-4,-1,-2,1
60937842483,-2,0,1,-2,-2,-2,-2,-1
60937843999,-1,0,-2,0,0,-2,-2,0
60937843999,0,-4,1,0,0,0,3,1
60937865014,3,-1,0,1,1,-1,-3,0
60937865014,1,-1,1,0,-1,-2,0,3
60937866518,-1,1,1,-3,-1,-3,-3,-10
60937866518,-2,0,-5,1,-1,-1,-1,-4
60937878582,0,-1,-5,-1,-1,0,-1,2
60937878582,0,0,-5,1,-3,-1,-1,0
60937887546,-1,1,-5,-1,0,0,1,-3
60937887546,1,-3,-2,-2,1,-2,-1,4
60937902367,1,0,2,-3,1,1,1,0
60937902367,-3,-2,-1,-2,-3,0,1,-2
60937903963,0,-3,2,2,-1,-2,-2,0
60937903963,-2,0,0,-1,1,-1,-3,2
60937924833,-1,-2,-2,-1,-2,-3,-4,-7
60937924833,0,-2,-2,-1,3,-2,6,-2
60937926443,-2,-2,1,-3,-1,0,-5,0
60937926443,0,-2,2,-1,-2,0,3,3
60937938634,-3,2,1,1,-2,0,-2,-5
60937938634,3,0,-2,0,0,-1,0,-3
60937947567,-1,0,-2,-2,-1,-2,0,-3
60937947567,-2,-1,-3,-1,-2,-4,-6,-1
60937962525,3,-3,0,-1,-3,-2,14,5
60937962525,-5,-3,-2,-2,-1,-2,-11,-3
60937964031,0,0,0,-1,2,2,5,-1
60937964031,3,0,-3,-1,-1,-2,-1,7
60937984997,-3,-3,-3,0,0,1,-6,-3
60937984997,-2,-3,1,1,-1,-3,-1,2
60937986498,2,-1,0,1,-1,4,5,0
60937986498,-1,1,2,-1,-5,-6,-5,-6
60937998633,-1,0,-2,-3,-1,2,1,-10
60937998633,-5,0,-1,0,0,-1,-3,-2
60938007513,-2,0,1,-1,-2,-2,-8,-10
60938007513,0,1,-1,-2,1,3,3,13
60938021712,3,-1,-2,-1,-1,-5,3,9
60938021712,6,-2,-2,-2,-3,-1,-5,-4
60938028671,-5,-2,-1,-2,1,2,2,0
60938028671,-7,-2,-3,0,-1,0,-10,-23
60938045012,-2,-1,1,0,-2,2,6,18
60938045012,1,-1,-1,-1,-2,0,-1,-12
60938046518,-8,-3,-2,-1,-3,-6,-8,13
60938046518,1,-2,2,-1,-5,0,6,-14
60938058606,-7,-1,-2,0,-1,-8,-15,-7
60938058606,-5,0,2,0,1,8,20,6
60938067551,9,-1,-4,-3,-1,-3,-4,7
60938067551,-10,-1,-2,1,0,-1,-1,-14
60938081830,6,-1,-3,-3,-6,-9,-13,13
60938081830,-1,2,-2,-1,-4,2,1,9
60938088643,8,0,-1,-1,3,3,-1,-15
60938088643,1,-1,1,-2,2,4,0,-4
60938105072,-3,1,0,0,-3,-6,-8,-5
60938105072,1,0,1,-1,1,15,14,3
60938106490,-3,-3,-2,-1,-2,-6,-8,-9
60938106490,1,-2,-2,1,-1,4,8,5
60938118631,-17,-5,0,-2,-1,-1,0,-1
60938118631,42,-2,0,-2,-1,-5,-13,5
60938127504,-3,0,0,1,-2,-8,12,5
60938127504,7,-2,-1,0,2,1,-19,-7
60938141768,-12,1,0,-2,2,2,0,-14
60938141768,-4,0,1,-2,-2,-9,-11,-4
60938148692,-6,-1,-4,-4,-4,-1,3,-15
60938148692,11,-1,-3,-2,3,7,8,17
60938164962,-3,0,-4,-1,-3,0,3,1
60938164962,13,1,-4,0,0,-7,-5,13
60938166464,-17,-2,0,-2,-3,-4,-3,-6
60938166464,15,1,-2,-2,1,-4,3,1
60938178668,10,1,-1,2,3,8,1,-4
60938178668,-11,-3,-1,-1,1,-1,3,-13
60938187554,-4,-2,-1,1,-3,-2,-7,3
60938187554,-11,-5,0,2,-3,0,4,-4
60938201836,17,0,2,-2,-2,0,-1,-2
60938201836,-11,0,2,-1,-2,-2,-4,-2
60938208618,2,-2,-3,0,-1,1,6,22
60938208618,-5,0,-4,-4,-1,-4,-8,-16
60938225010,2,-1,-1,-5,-2,-1,1,-9
60938225010,-19,-3,-3,1,-4,-8,-11,-2
60938226488,13,1,1,0,0,-1,2,10
60938226488,-8,9,0,-2,-7,-2,13,5
60938247476,-2,-3,-3,2,5,4,0,-11
60938247476,-12,0,0,2,1,2,2,0
60938248978,6,-2,-1,2,1,6,25,23
60938248978,-4,-4,2,-1,-2,-6,-20,-30
60938261868,-9,5,2,-3,-3,-2,-1,0
60938261868,1,-1,-2,-6,-1,1,0,26
60938268673,-6,-5,0,0,2,5,1,-3
60938268673,3,2,-4,-1,-2,-7,-1,15
60938285014,-10,0,2,1,-2,-3,-13,-49
60938285014,0,3,0,0,0,-1,-3,4
60938286489,-3,-10,-3,-2,0,0,3,7
60938286489,-16,-8,-5,1,1,0,-3,5
60938307493,28,-2,-5,-5,2,2,-4,-22
60938307493,-4,9,7,-2,-4,-5,5,8
60938309017,7,7,-3,-3,-2,-3,-2,13
60938309017,-10,2,6,11,0,0,-8,-5
60938321827,3,0,4,-3,-2,-2,7,31
60938321827,-33,-18,-18,-9,-1,0,1,-25
60938328667,8,3,10,5,-2,-2,-10,-23
60938328667,26,5,-14,-15,0,1,16,32
60938345007,-24,-12,5,12,-3,-7,-7,-11
60938345007,9,3,3,1,1,9,11,16
60938346523,0,2,-4,7,-1,-5,-16,-24
60938346523,-1,1,-4,-17,-5,-8,-5,12
60938367498,-2,5,1,1,-1,8,4,12
60938367498,3,-7,-1,-2,-1,-3,1,-16
60938368992,1,3,0,1,-4,-4,-6,10
60938368992,-16,-1,1,6,2,6,-8,-15
60938381068,12,-3,-7,-11,-2,-2,4,25
60938381068,-6,-1,2,-3,-2,1,-3,-15
60938390355,2,-6,-8,-4,-3,0,2,-24
60938390355,4,-1,3,4,0,-2,4,31
60938412382,-5,-4,-4,-4,-4,-6,-4,5
60938412382,10,1,9,6,-1,-5,-5,-8
60938413966,-2,-5,0,-1,1,0,1,17
60938413966,0,-8,-19,-7,0,0,-8,-9
60938427351,-8,-5,-2,-1,3,4,12,11
60938427351,3,2,-8,-5,-1,-2,-5,9
60938428988,5,-4,7,0,-2,-8,-8,-22
60938428988,-9,-1,5,-7,-3,-2,-4,-11
60938441060,-1,6,4,1,1,2,-1,-13
60938441060,2,-2,-7,3,4,7,1,-6
60938450024,0,-1,-1,-8,-3,5,6,31
60938450024,-6,5,21,6,0,-4,-5,-12
60938464902,-9,-4,1,-1,-4,-7,-9,-26
60938464902,11,0,3,10,-4,-4,0,3
60938466475,-1,1,-9,-3,-1,4,-2,2
60938466475,-6,1,2,3,-2,-4,2,-4
60938487433,-4,2,-1,-1,-1,-1,-3,-5
60938487433,-12,-6,-1,-1,0,-1,1,5
60938489023,-5,2,3,-1,2,5,0,8
60938489023,3,0,0,0,-1,2,6,-9
60938501068,3,-2,-11,-2,-2,-4,-9,-5
60938501068,11,-3,1,-3,2,-2,-4,-13
60938510024,-29,-2,-4,-2,0,-4,-11,-42
60938510024,12,-5,4,3,0,7,13,28
60938524961,2,3,-1,1,0,0,7,29
60938524961,-7,-2,1,-5,-5,-7,-6,-21
60938526492,19,5,15,7,-2,-3,-1,14
60938526492,-11,2,-3,-3,-3,-3,-11,-19
60938547462,7,-3,4,-2,1,6,14,37
60938547462,-7,3,-10,-5,-2,-1,-8,-18
60938548975,-6,-1,-9,-4,-6,-5,-2,12
60938548975,4,-2,1,4,4,4,3,2
60938561188,2,0,2,-2,1,1,4,19
60938561188,-13,-6,-1,-1,0,-4,2,-3
60938570052,-9,-4,-3,-3,-3,-5,-9,-21
60938570052,-6,-5,-7,-1,1,1,5,3
60938592484,-18,2,-4,-3,-5,-3,5,-7
60938592484,-4,-11,-3,-4,0,0,-7,2
60938593959,2,1,-7,-2,0,-4,-3,-7
60938593959,9,-3,-20,0,-3,-5,-2,2
60938606833,-14,0,2,-2,-2,-3,-10,-11
60938606833,5,8,4,5,2,4,3,6
60938613576,-6,-3,-2,-1,-2,0,-5,-9
60938613576,1,-4,3,-2,-3,0,5,9
60938629937,21,-2,-2,1,2,0,5,16
60938629937,5,5,-6,-3,-4,-3,-7,-21
60938631476,-6,-3,-7,-2,3,3,2,4
60938631476,-10,-2,6,2,3,1,-1,-3
60938643609,8,-5,-1,-2,-6,-4,-5,7
60938643609,9,4,13,2,1,-1,4,5
60938652529,-7,4,-2,1,-5,0,-2,-1
60938652529,3,1,2,-3,-4,-4,-7,-26
60938666836,-10,-4,-2,1,1,-1,-5,-8
60938666836,-5,0,9,9,-3,-4,0,13
60938673638,0,-12,-23,-12,0,-2,-8,-16
60938673638,-6,-3,-3,-2,0,3,8,22
60938689943,4,-1,-1,-1,1,1,-4,-12
60938689943,9,1,-1,-2,0,4,10,15
60938691508,-4,-2,10,4,2,-1,3,-2
60938691508,-3,0,2,0,3,2,-10,-12
60938712476,1,-2,-2,-1,0,0,2,-4
60938712476,-12,-7,-1,1,1,0,-7,-31
60938714014,5,3,-3,-6,-3,-3,3,21
60938714014,14,-1,-5,-4,-6,0,9,11
60938726872,-5,-3,0,4,-2,-6,-20,-19
60938726872,5,5,4,-2,0,0,-8,15
60938733648,-4,0,2,4,0,0,3,-7
60938733648,-3,-2,-1,-3,-4,-6,-2,-22
60938750119,2,-3,-6,-1,0,1,2,20
60938750119,2,-3,-3,-6,-1,-3,-1,-7
60938751493,-7,0,5,0,4,6,3,7
60938751493,8,-6,1,-2,-5,-5,-15,1
60938772463,10,0,-2,-1,-5,-2,5,-1
60938772463,-25,-1,-11,-5,-4,-2,2,0
60938773979,8,1,3,1,-1,-1,4,-16
60938773979,6,-1,6,0,-1,-1,-2,4
60938786831,-11,8,-4,-6,0,3,-4,0
60938786831,-6,2,-3,-5,-4,-4,9,-1
60938793657,0,-3,-7,1,-3,-3,-2,2
60938793657,-20,0,3,3,0,1,0,-7
60938810053,26,-2,3,2,0,-1,-1,11
60938810053,6,1,-8,-8,-1,-2,-4,-16
60938811457,10,1,4,-3,1,2,-3,1
60938811457,-1,-5,-2,-1,0,-2,7,9
60938832433,22,2,3,-1,-2,0,-5,13
60938832433,54,-5,-5,3,-3,-2,2,-7
60938833985,-6,-1,-1,-1,1,0,1,-9
60938833985,-30,2,-1,-2,3,-2,-1,4
60938847519,-27,-3,-3,0,0,-3,-12,3
60938847519,-24,-1,-1,-1,-3,-2,6,27
60938848963,-14,-5,10,1,-2,-4,2,-13
60938848963,-6,-3,-5,0,1,-1,0,-14
60938869997,-9,-3,-12,-3,-1,-1,6,-16
60938869997,-2,-7,-4,0,2,5,-3,18
60938871505,12,2,1,-1,1,1,-1,6
60938871505,17,5,2,0,-3,-5,-13,-8
60938892728,-3,-2,-1,-5,-4,-1,8,-15
60938892728,5,2,-1,0,0,0,-11,-4
60938893994,-13,-2,-2,-2,2,0,0,1
60938893994,-4,-3,4,0,3,3,0,7
60938906683,27,3,1,-1,-2,-1,-7,5
60938906683,0,-14,2,-1,-2,2,1,6
60938913464,-8,-2,-1,1,-3,-3,4,17
60938913464,0,0,-8,-2,-1,0,-2,-6
60938929822,-10,-5,1,1,-2,-2,3,7
60938929822,-6,10,0,0,-2,-1,1,-12
60938931423,5,-3,-4,-2,-2,1,9,7
60938931423,-1,-4,-4,-3,-5,-4,-5,-12
60938952519,6,3,-2,1,3,0,4,4
60938952519,8,-3,1,-1,1,-3,-9,-7
60938953996,4,1,-3,4,-2,3,7,21
60938953996,-1,3,1,-3,-3,-3,0,-12
60938966853,-31,-3,2,-1,1,1,4,-9
60938966853,-1,-2,-1,-2,-1,-1,-4,-9
60938973617,-1,3,-2,-1,-2,-4,-10,-10
60938973617,8,1,-1,0,0,1,-1,2
60938989948,-13,-1,10,2,-1,-3,-1,-8
60938989948,-1,-2,-6,0,0,1,-2,13
60938991473,14,-3,-2,-3,-2,0,-6,13
60938991473,-6,-10,-2,1,-1,0,-1,-8
60939012493,-1,-2,0,-2,-3,-4,1,7
60939012493,-4,1,2,1,1,-2,-6,-8
60939013995,-2,6,-2,-1,-1,-1,2,14
60939013995,-26,-16,-3,-1,-1,-5,3,7
60939026844,2,-1,-2,3,3,4,-1,-10
60939026844,1,-6,-6,-1,-3,-7,-1,-14
60939033616,-43,-8,-6,1,3,0,0,6
60939033616,20,3,-2,0,0,-3,-4,14
60939049996,-6,-3,-4,0,0,-2,3,-2
60939049996,-5,8,14,-3,-1,3,1,-4
60939051470,4,2,-1,-5,-3,0,4,-8
60939051470,7,7,0,0,-1,1,-2,1
60939072390,0,-3,-1,-4,0,-2,-1,-4
60939072390,5,3,-3,2,3,4,-2,16
60939073964,-1,-3,0,-5,-3,-6,-5,-15
60939073964,8,-3,3,-1,-2,-1,0,4
60939086837,25,1,-1,-1,-3,-3,0,-2
60939086837,-21,-9,-6,-1,-7,-3,-5,-22
60939093637,14,-2,1,0,3,3,3,20
60939093637,-5,1,-5,-2,-2,0,-1,-4
60939110008,-21,0,0,-1,-1,-3,-3,-8
60939110008,9,2,-3,0,1,-5,-3,-3
60939111564,2,0,-4,2,-1,-1,-6,-10
60939111564,8,0,3,-2,-2,-3,-2,-2
60939132477,-13,-2,-3,0,1,2,-6,-7
60939132477,21,4,-2,-3,0,4,8,21
60939133972,2,8,1,-2,-3,-4,-11,-17
60939133972,2,-1,2,-3,-3,-5,-3,-10
60939146757,-17,-5,-4,0,1,4,10,18
60939146757,-16,-6,1,1,-1,-3,-10,-3
60939153678,2,1,-2,0,1,2,8,-12
60939153678,2,0,-3,1,2,5,4,3
60939169949,43,1,-4,-2,-5,-4,-10,-12
60939169949,-31,-2,-1,-3,-4,-2,2,-2
60939171442,22,-2,1,-2,-2,-2,-3,13
60939171442,-4,2,-2,0,1,-3,0,-11
60939192495,6,0,-1,-2,2,-1,5,15
60939192495,-1,1,-1,-2,3,0,8,9
60939193965,-5,-7,-5,-4,-6,-3,-9,-22
60939193965,-5,-3,-2,-1,-1,3,3,3
60939206144,-7,2,2,0,-1,2,2,-6
60939206144,4,-1,-5,-2,-3,-5,-3,20
60939215000,-1,-1,-2,-1,-2,-2,-2,-19
60939215000,-8,-6,-2,-2,-3,-5,-5,22
60939229914,-5,-1,3,-2,2,1,-1,-3
60939229914,-14,-5,-5,-2,2,5,-9,-15
60939231467,22,-6,-1,-2,-1,-4,1,14
60939231467,4,2,-4,-1,-1,0,5,-10
60939252459,6,-4,-8,-1,-4,-7,-13,-22
60939252459,-8,3,-1,0,-2,0,4,11
60939253993,4,0,1,0,-1,1,7,-5
60939253993,1,-1,-3,-1,0,-1,1,-2
60939266118,1,0,0,-1,-3,-4,-13,-12
60939266118,-2,-1,2,3,2,0,5,22
60939275006,-19,-1,-1,-1,-1,-1,-4,-8
60939275006,-7,2,4,-1,0,-3,-4,-18
60939290024,2,7,-8,-1,-1,1,6,13
60939290024,-4,4,-9,-4,-5,-4,-6,-10
60939291463,8,-1,0,-2,0,-1,-3,3
60939291463,-16,-3,-1,-4,-1,-2,0,5
60939312564,3,-3,4,1,2,3,-4,-5
60939312564,8,0,2,-2,0,1,-2,-15
60939314001,7,2,0,0,0,-2,-3,-3
60939314001,1,-4,-1,0,0,1,-3,9
60939326139,31,1,5,0,-2,0,2,0
60939326139,7,-4,-3,-4,-3,-2,-1,-9
60939335026,-18,-4,0,0,1,2,-1,10
60939335026,13,2,-4,-2,-4,-2,-1,-4
60939349994,-26,-3,1,0,-1,-2,-2,-15
60939349994,-10,1,1,-1,0,-1,4,0
60939351471,-3,-1,2,1,0,0,0,-4
60939351471,5,-1,-1,-1,-1,-5,-6,4
60939372470,-17,-3,-5,0,-4,-1,-4,-15
60939372470,0,-3,0,0,1,-1,6,13
60939373945,-4,1,-4,-1,1,0,-2,0
60939373945,8,-2,-2,-2,-3,2,1,9
60939385989,-16,-8,-2,-2,0,-1,-2,-21
60939385989,10,-2,1,0,-2,-5,0,-2
60939395225,-12,-2,-2,-2,-3,1,2,-1
60939395225,6,3,-3,2,0,1,-6,-12
60939409841,-7,-4,-1,-2,2,-1,-7,16
60939409841,5,4,0,3,0,1,7,-3
60939411619,26,-4,1,0,-4,-3,-10,6
60939411619,2,-4,2,0,-1,0,0,-4
60939432352,-7,2,-1,-1,-3,-1,-1,6
60939432352,0,-1,-4,-3,-5,-1,1,-9
60939433950,-13,2,0,-3,1,-1,0,-1
60939433950,-8,1,0,-2,0,-2,-11,-6
60939446144,6,-2,-1,-2,-3,-2,7,9
60939446144,0,0,1,0,-1,1,11,12
60939454979,5,1,-2,1,1,-2,-11,-15
60939454979,-15,-3,-2,0,0,2,0,-1
60939469905,0,2,-2,-2,-2,2,9,14
60939469905,-6,-5,0,0,-3,-3,-16,-19
60939471455,-12,-5,-1,2,-1,-1,2,11
60939471455,20,-2,-1,0,0,2,8,8
60939492470,-11,1,-3,-2,-4,-6,-6,-9
60939492470,17,0,-2,-2,0,-1,1,4
60939493972,6,5,-1,-5,0,0,-2,-5
60939493972,-10,-14,-1,-1,0,2,4,4
60939506109,0,-2,-4,0,0,-1,-1,4
60939506109,-11,-3,0,1,0,2,-15,-16
60939515001,-12,-4,-2,-1,-3,-3,4,-1
60939515001,25,3,0,0,-4,-2,-3,4
60939529971,-1,1,0,1,2,4,6,6
60939529971,4,-2,-1,-3,-1,-3,-4,15
60939531436,-18,-1,-2,-3,-2,-1,-3,-17
60939531436,-13,3,1,0,-2,-1,-1,-9
60939551821,-1,-1,0,-1,-1,-2,-5,-3
60939551821,-1,3,-2,-2,-1,-2,-1,-2
60939552509,10,-3,0,-1,0,-1,1,-1
60939552509,2,-2,0,-1,0,1,1,-1
60939574290,0,-4,-2,-2,-2,-4,-8,-4
60939574290,-8,-4,1,3,-2,0,2,3
60939574992,-1,-1,-2,-1,0,-3,0,0
60939574992,2,0,-3,-1,-4,-3,-1,-2
60939589236,1,-1,1,0,0,1,3,-1
60939589236,3,-1,0,-1,-4,-1,1,0
60939589939,0,0,-1,-1,0,0,-3,6
60939589939,-11,4,-3,-3,-2,-1,-4,-8
60939611801,-2,-2,-2,-2,0,-2,-3,1
60939611801,0,-2,-1,0,0,-1,-3,-1
60939612511,-2,-2,1,-1,-1,1,1,2
60939612511,-9,0,1,-2,3,0,0,-6
60939634276,6,-5,-2,-1,-1,0,2,4
60939634276,9,-1,-3,-1,-2,-1,-2,6
60939634961,-6,-1,-4,0,-5,-4,-2,-2
60939634961,-3,2,0,-2,-2,1,0,1
60939648649,7,3,-1,-1,-3,-2,-2,-5
60939648649,-7,0,2,0,2,1,-1,-15
60939656840,0,0,0,-1,1,2,-1,3
60939656840,-1,0,1,-2,-2,-4,2,-2
60939671785,-5,-4,-1,-1,1,-3,6,-1
60939671785,-2,-4,-5,-3,1,3,-5,-1
60939672464,7,2,-3,0,-2,-1,-2,-3
60939672464,-9,-2,-2,-1,0,0,-2,1
60939694272,8,0,2,-2,0,1,1,2
60939694272,-2,-1,2,2,0,0,-4,0
60939694983,-2,-3,-1,0,3,2,-1,4
60939694983,2,1,-1,-4,-2,-3,-2,4
60939708607,-11,-2,-1,-1,-2,1,-2,-9
60939708607,6,-1,-2,-2,-3,-3,1,0
60939716794,-7,-3,1,-3,-3,-5,-1,-7
60939716794,6,1,2,2,0,0,3,0
60939731792,-11,1,-1,-3,-1,0,-5,5
60939731792,10,0,-1,-3,-1,-1,2,3
60939732468,2,-1,-2,-2,-1,-3,-4,0
60939732468,-6,1,-1,0,-2,-4,-2,0
60939754362,1,-1,-3,1,-2,-2,-3,-1
60939754362,0,2,1,-1,-2,0,-4,-1
60939754966,-8,-2,-2,-1,-3,-2,-2,-2
60939754966,-8,-1,-1,-1,1,-1,1,-4
60939768611,0,0,-3,-2,-4,-3,-1,-13
60939768611,-5,2,-4,0,0,-1,0,0
60939776909,1,-1,0,-2,1,1,7,-1
60939776909,-10,-4,-1,0,-1,-2,-9,10
60939791771,7,-5,0,1,0,0,-2,2
60939791771,-4,-4,-1,-2,2,-4,-4,2
60939792458,-3,0,1,1,-2,-1,-3,-8
60939792458,7,2,1,-1,1,-1,1,4
60939814261,1,3,-4,-2,1,-3,0,-7
60939814261,-7,-4,-4,-1,-3,1,2,-11
60939814936,8,1,-1,1,0,2,2,19
60939814936,4,-1,1,2,-2,2,1,0
60939829236,3,-1,-1,-3,-1,-4,-4,-11
60939829236,-11,-4,-2,-5,1,0,-2,0
60939829999,-15,-2,-2,-4,-3,-3,-6,-14
60939829999,1,0,-3,0,-2,2,0,0
60939851754,8,-3,1,2,0,-2,-1,7
60939851754,-12,-5,1,0,-4,-3,4,1
60939852428,20,0,0,-1,-3,-1,0,0
60939852428,-9,0,0,-1,0,-4,-3,-6
60939874166,-7,-1,1,-1,1,-1,-2,1
60939874166,5,-2,-2,0,0,-2,5,-3
60939874950,-16,-2,-3,-1,-2,0,-2,10
60939874950,3,-4,-2,-3,-1,-1,0,-14
60939889197,-2,1,0,-1,-1,0,-2,0
60939889197,10,2,-2,-2,-1,-2,-2,11
60939889908,-6,-4,-1,-1,1,-1,2,-15
60939889908,-3,-2,-2,2,-1,-3,-4,-3
60939911608,-1,-1,-1,0,-4,5,4,1
60939911608,-8,1,-1,-3,-2,-5,-2,2
60939912414,2,3,0,-1,1,-1,-1,-13
60939912414,9,-1,-3,-5,-2,-4,-2,15
60939934108,-6,3,1,0,3,-1,1,-1
60939934108,-10,-2,2,-1,1,1,-6,8
60939934915,1,-1,0,-1,-1,-1,0,-5
60939934915,-15,-2,-1,0,-1,-4,-4,-9
60939949133,14,0,-1,1,0,4,4,1
60939949133,21,5,-1,1,-3,0,0,-4
60939949907,1,1,-1,0,-2,-2,-1,5
60939949907,-5,-8,-3,-1,-3,2,3,-5
60939971671,0,-1,-2,-2,-3,-3,-2,2
60939971671,-11,0,-3,-4,3,-3,-2,-23
60939972398,9,-1,-1,2,0,1,-1,17
60939972398,-3,0,0,2,1,-4,-3,2
60939994326,-9,-3,-1,-2,-4,-2,-6,5
60939994326,15,-2,3,0,-6,2,7,-10
60939995059,-9,-5,-2,-1,-3,-2,-9,-1
60939995059,-2,2,-3,-1,-1,0,0,-5
60940009165,1,-4,-5,-1,-3,-2,-3,-9
60940009165,1,5,-2,3,0,-1,-2,-6
60940009932,3,-1,2,-1,-1,-3,-1,-3
60940009932,-10,1,-1,-2,1,2,-2,-9
60940031665,27,0,3,-2,-2,1,5,13
60940031665,-17,-4,-3,-2,1,-2,-2,4
60940032417,-3,-1,-3,0,-2,0,-2,-6
60940032417,1,-1,-1,-1,0,0,-1,-4
60940054238,-6,-1,-2,-2,-3,-3,-8,-14
60940054238,-2,-6,-1,-2,-3,0,0,10
60940054927,-2,-3,1,-3,-1,1,3,4
60940054927,4,1,0,0,2,-2,0,-3
60940069261,-4,-1,-3,0,0,-3,-7,-8
60940069261,-10,0,1,0,-3,-8,-3,5
60940069934,-3,-1,-1,-1,3,2,0,-5
60940069934,3,0,0,-2,1,-4,1,1
60940091747,-5,-1,-2,-1,2,2,4,-9
60940091747,2,1,-1,1,1,4,-2,32
60940092435,0,-2,0,1,-3,0,-7,-4
60940092435,0,-2,1,0,-4,-1,0,6
60940114225,-8,1,-1,1,-4,-2,1,5
60940114225,-1,1,0,1,0,2,4,11
60940114936,-1,-2,-4,0,0,-3,2,-10
60940114936,9,-1,-1,-1,-1,2,0,10
60940129259,-11,0,0,-1,0,0,1,-12
60940129259,-5,-3,-2,-2,-3,-1,-2,-13
60940129920,6,3,1,1,1,1,2,23
60940129920,-5,-4,-1,0,-3,-4,-1,-25
60940151737,2,4,2,-1,1,4,-1,2
60940151737,-1,-3,-2,-2,-3,-2,-2,7
60940152464,4,-4,-6,-2,-1,-1,2,-1
60940152464,-2,1,8,-4,-1,0,-1,-6
60940174332,1,-4,1,-1,3,-1,-2,1
60940174332,-3,0,0,1,0,1,0,-12
60940174990,-1,-1,-1,0,0,-2,-3,-6
60940174990,-6,-3,-5,-1,-1,-1,-1,6
60940189231,-2,-3,-2,-1,-3,-4,-3,-12
60940189231,-5,2,0,-2,1,-1,0,-3
60940189942,3,2,-1,0,-2,2,3,-19
60940189942,-1,-2,-4,0,1,-1,4,0
60940211797,-4,-4,-4,-4,-1,-2,-4,7
60940211797,-1,-4,-2,0,-1,-2,-2,-11
60940212502,-4,-4,-1,-2,0,0,-3,7
60940212502,5,-1,-2,1,-2,3,-1,-5
60940234302,-5,2,1,3,1,0,3,-7
60940234302,0,0,-1,-3,-2,-5,-7,-8
60940234956,-3,-1,0,-2,-4,-3,1,-5
60940234956,0,5,0,-2,-2,0,-1,18
60940249293,-2,0,-3,-1,-1,-2,1,-14
60940249293,2,0,-1,-2,0,0,-2,-9
60940249984,-3,-5,1,-2,-1,-3,-3,-1
60940249984,-4,-8,-6,-2,-4,-4,-5,-9
60940271786,-4,-3,-4,-1,1,-1,-1,11
60940271786,4,0,2,2,-1,-2,2,-7
60940272457,2,4,-2,-2,0,-1,-4,-6
60940272457,0,3,1,-1,0,0,-1,16
60940294373,-6,-2,0,-2,-1,0,1,9
60940294373,4,-2,-1,-2,2,1,-1,-3
60940294951,-6,-7,-3,-1,-3,-2,-2,7
60940294951,0,2,-2,-2,0,-1,-1,-16
60940308619,-3,-1,-1,-1,-3,0,0,14
60940308619,3,1,-1,0,0,0,1,9
60940316811,-2,1,1,0,-2,-1,1,-8
60940316811,1,0,-2,1,1,-1,0,-9
60940331762,-8,-5,-3,-2,-3,-2,-1,-2
60940331762,4,-1,-1,-2,-4,0,-1,17
60940332490,-6,-2,0,-3,0,-2,0,-13
60940332490,3,-1,1,-3,-2,0,-4,-3
60940354369,4,0,0,1,0,-1,-6,-14
60940354369,0,-2,0,0,1,0,1,20
60940354910,1,2,-3,0,-1,1,0,10
60940354910,2,-2,-2,1,0,2,5,3
60940368637,-8,-2,-3,-5,-1,-4,-4,-39
60940368637,-4,-2,-1,0,0,-2,-1,-1
60940376906,1,0,-1,0,2,-1,1,6
60940376906,6,0,0,-1,0,1,-1,2
60940391785,-4,2,1,-1,-2,1,1,7
60940391785,-8,-1,0,-2,-2,-3,-4,-20
60940392458,-2,-1,-3,1,-1,-2,-1,9
60940392458,-2,0,1,2,1,1,-4,-21
60940414161,4,4,0,-3,-2,0,-1,23
60940414161,6,-2,0,1,0,1,-1,2
60940415200,-9,-6,0,-3,-1,-3,-2,12
60940415200,-1,-2,-3,-1,-2,-5,-3,-8
60940428472,6,-13,-6,-1,4,0,2,18
60940428472,-4,-1,-6,0,2,0,1,-18
60940436727,-6,-1,-2,-4,-1,-1,2,-4
60940436727,-2,1,14,-4,-3,2,-1,-6
60940451734,-1,-2,-4,-1,-2,0,-3,1
60940451734,0,-4,-2,0,-2,1,-2,-4
60940452486,6,0,-2,0,1,-1,2,10
60940452486,-3,-3,1,0,-4,-2,0,11
60940474155,-3,0,-1,0,-2,-2,0,-8
60940474155,3,2,0,-1,0,-1,-1,-4
60940474926,-1,0,1,0,-1,0,-2,-6
60940474926,-1,1,-5,-2,-2,-1,1,10
60940488558,3,5,5,1,-1,-3,3,3
60940488558,-3,2,-2,-2,-3,0,0,8
60940496778,3,2,-1,1,-1,0,-3,-7
60940496778,-1,-4,-6,-2,2,0,0,7
60940511737,-3,-5,-1,-2,-1,-1,-2,-2
60940511737,-2,-3,0,-1,-3,-3,1,-7
60940512442,-1,-3,-1,-2,-2,-1,2,-2
60940512442,2,-2,-1,0,-1,0,-2,0
60940534934,1,0,1,0,0,-2,0,-2
60940534934,-3,-1,-2,-2,-1,3,-1,-9
60940535659,8,2,-2,0,0,1,-2,6
60940535659,-8,0,-5,-2,-1,-1,-1,-8
60940548636,-6,-2,-1,-2,-1,-2,-2,0
60940548636,0,-2,1,0,-3,-1,-3,8
60940556816,1,1,0,2,-3,0,-3,-4
60940556816,2,-5,-5,1,1,1,-2,-12
60940571776,6,11,15,-2,-3,-1,0,15
60940571776,-4,-3,-6,-3,-2,-3,-1,-9
60940572458,-3,0,0,-3,-1,-2,0,-1
60940572458,1,-2,-4,0,0,0,-1,5
60940594983,-3,0,1,0,-1,-2,-4,-2
60940594983,4,-1,-1,0,1,-1,-2,-2
60940595797,-1,0,-1,0,2,0,-1,-5
60940595797,1,2,3,-1,2,1,3,2
60940616471,-1,-3,-7,1,0,0,1,2
60940616471,-2,-2,-1,-1,-3,-4,0,1
60940624190,3,0,-3,-3,-1,-1,-2,-2
60940624190,-6,-1,-3,-2,-1,-3,-1,-4
60940631652,3,0,-3,-3,-1,0,-1,16
60940631652,-2,-1,-1,-1,0,2,-1,-3
60940632418,-2,-2,3,-1,-2,0,1,-5
60940632418,-4,-1,-1,-2,-3,-2,-2,7
60940654862,-1,-3,-2,-1,-1,-1,-1,-11
60940654862,-2,-4,-1,-1,-1,-2,-2,-6
60940655625,-4,-4,-1,2,0,-3,-1,-1
60940655625,3,-2,-3,2,-1,-2,-1,10
60940677880,-5,-4,-3,-1,0,0,-1,-12
60940677880,0,3,5,1,-2,0,2,-3
60940678583,-9,-4,1,0,1,0,-3,1
60940678583,3,-7,-20,-4,-2,1,-2,-1
60940691732,5,5,1,-3,-1,1,-3,-6
60940691732,-2,-1,-2,-3,-1,-4,-6,5
60940692434,-1,-1,-2,-2,-3,-2,0,-5
60940692434,-5,1,4,2,-1,-2,0,-17
60940715007,3,-2,-1,0,-2,0,0,13
60940715007,-4,-1,-3,-2,0,0,-4,-4
60940715659,1,-4,-2,-2,-2,-1,2,-5
60940715659,-1,-2,4,0,0,0,3,17
60940737497,-5,-4,-4,-1,-1,-2,-2,-7
60940737497,-2,1,4,-1,0,-1,0,2
60940738111,0,1,-1,-1,0,-1,0,-5
60940738111,0,3,2,-2,0,0,-5,7
60940751733,-6,-2,0,2,0,-2,-3,-8
60940751733,6,0,-10,-1,-1,-1,-1,-1
60940752515,-9,-2,-3,-1,0,0,-2,-4
60940752515,-1,-1,-2,2,0,-1,0,-8
60940774933,3,0,-4,1,-1,1,2,17
60940774933,-2,-2,-4,-2,-3,0,-1,-5
60940775679,3,3,-1,-3,-2,-2,2,-4
60940775679,1,1,-3,-1,1,-3,-2,0
60940797553,-3,-2,-5,-2,1,-2,0,-4
60940797553,-3,-4,0,1,-2,-1,-1,-4
60940798127,1,-5,1,-3,-3,1,-2,0
60940798127,-1,-1,-4,-3,-4,-1,-2,3
60940811714,5,-1,0,0,-2,-1,-3,-4
60940811714,-5,-3,2,-1,2,2,0,-5
60940812415,4,-4,1,0,0,-2,-4,9
60940812415,-2,-2,5,-3,0,-1,0,-1
60940834924,-1,-2,0,-1,-2,-1,1,-10
60940834924,1,1,1,0,-3,-4,3,1
60940835636,-2,-1,0,1,1,-2,-4,-13
60940835636,2,2,9,-2,-1,-1,-2,10
60940857514,-5,-1,-3,-3,1,1,-1,1
60940857514,1,-3,1,0,1,0,-1,-4
60940858133,-2,-2,-1,2,-1,1,-1,0
60940858133,-5,-5,3,0,-3,-2,0,-4
60940871743,-3,1,-1,-2,-4,-1,0,-3
60940871743,-2,3,-1,-3,1,-1,0,-3
60940872410,-1,0,-1,-3,-1,0,1,1
60940872410,9,1,-2,0,1,-3,-1,-3
