60649931030,-2,-2,0,0,-2,4,-3,0
60649931030,2,-1,-1,-1,-1,1,-2,0
60649931545,-1,-2,0,-6,1,-1,-1,2
60649931545,-1,2,0,-3,-1,-1,0,-1
60649932393,0,-1,-1,-1,-1,-5,-1,0
60649932393,-1,-1,1,1,1,-2,-2,0
60649933149,0,-2,0,2,-3,-2,-3,1
60649933149,0,-2,1,-3,-3,-2,1,-3
60649943868,-1,-1,-2,-3,-2,-3,-5,-1
60649943868,-1,2,-4,1,-1,-1,-2,0
60649953113,-2,-1,-1,1,1,-3,0,-6
60649953113,0,-1,-1,2,1,1,-3,7
60649958836,1,-3,-2,0,4,-2,0,3
60649958836,-2,-2,0,0,-1,-3,-2,-4
60649974583,0,1,-1,-2,-1,2,-1,-2
60649974583,0,1,-1,0,-5,1,-1,0
60649982556,0,-1,-1,2,1,-3,-2,2
60649982556,2,-2,0,-4,1,-2,1,5
60649997612,1,-2,-1,0,0,-1,0,-1
60649997612,-1,-2,-3,-2,-1,-2,-2,-4
60650005326,0,1,-2,-1,-3,-1,1,0
60650005326,-1,-2,-1,1,0,-1,-2,-4
60650018607,-2,-2,-1,-1,-1,0,-1,2
60650018607,-2,0,-2,0,1,-1,-3,1
60650060376,1,-1,-1,-4,1,-2,0,-3
60650060376,-2,-1,0,-5,-4,-1,1,0
60650061165,-2,-4,-2,-1,0,-2,-1,-1
60650061165,-2,-2,-1,-2,-4,-1,-2,-2
60650064323,1,-1,1,2,-1,-3,-1,4
60650064323,-1,0,-1,-1,2,-3,1,-2
60650065119,1,3,0,0,-1,-3,-1,-2
60650065119,-1,0,-3,-2,2,0,-3,-1
60650071874,0,0,-2,-1,-1,1,-1,0
60650071874,-1,1,-1,-1,0,-1,-3,2
60650078735,-1,-2,0,1,-2,0,0,3
60650078735,-1,-2,-2,-4,-1,0,-3,0
60650086168,0,-1,3,1,-3,0,-5,-1
60650086168,3,0,0,0,-1,1,-1,0
60650101121,1,2,0,-2,1,1,-2,1
60650101121,0,1,-1,1,-2,1,-2,2
60650108711,-3,-1,-2,-2,0,-3,-2,1
60650108711,-3,0,1,-2,-1,-4,-6,1
60650140090,1,1,4,-1,-1,-1,-3,-1
60650140090,0,-1,0,0,-1,-2,-4,1
60650140798,0,5,-1,-1,-1,-1,-1,-1
60650140798,0,-2,-2,1,-2,-3,-1,0
60650146839,-4,-1,-4,-2,-3,-3,-1,-1
60650146839,0,0,-2,-1,-3,-1,1,2
60650147517,-1,-1,-4,2,4,1,-1,4
60650147517,2,-2,-2,-5,2,2,-2,-6
60650169243,2,1,-1,0,3,0,-3,1
60650169243,0,0,-1,1,-1,-2,-1,-1
60650169977,2,-3,2,-5,-1,1,-3,1
60650169977,1,1,2,1,-1,0,-1,1
60650192647,0,-3,-1,-4,-4,-1,-3,2
60650192647,0,0,-1,-2,1,-4,-1,2
60650193248,0,-2,-3,-2,-2,-4,1,-2
60650193248,2,-2,-1,1,1,1,0,2
60650206817,-2,-3,0,-3,1,1,-1,3
60650206817,-1,-1,0,-1,2,-1,-2,2
60650207519,1,-2,-1,2,1,-2,-3,0
60650207519,0,-1,0,3,-1,1,-2,-5
60650230135,2,1,-1,1,-2,-2,-1,7
60650230135,-3,-1,-1,-1,-2,1,-2,-2
60650230721,0,-2,1,-1,-1,1,-3,1
60650230721,-1,-3,-2,0,-7,1,-3,0
60650252485,-1,-1,0,1,2,0,0,0
60650252485,2,-2,2,0,-1,-1,2,2
60650253195,-2,0,-1,-2,-2,0,1,-2
60650253195,1,-1,0,-3,-1,-3,-2,-1
60650266833,3,2,0,-1,-2,-2,1,5
60650266833,-1,-3,0,-4,2,-3,-5,-12
60650267517,-3,0,1,0,-2,-3,-1,-8
60650267517,-3,-3,-2,-2,1,-4,1,7
60650289964,0,-3,-1,-2,-2,0,-2,-1
60650289964,3,-2,-1,0,-4,-2,-2,2
60650290692,1,-1,-1,-1,-2,-2,1,1
60650290692,-4,0,-3,0,-1,-1,-1,-1
60650312534,0,-2,-2,-1,-2,0,-1,-5
60650312534,-2,2,-2,-2,-4,0,0,-1
60650313190,-3,-2,-3,-4,1,-3,-1,0
60650313190,1,-1,0,-1,-1,0,0,-2
60650326838,-3,-1,-2,-1,-2,-2,0,3
60650326838,-1,-1,2,0,1,1,0,-5
60650327545,-4,-1,0,0,-1,1,-3,1
60650327545,-1,1,1,-4,3,-1,-1,-4
60650350061,4,0,0,-1,-2,-2,-2,0
60650350061,-3,1,1,1,-1,-1,-3,0
60650350761,3,-1,-2,-1,-5,-2,-4,-3
60650350761,4,-5,-2,2,-3,-3,-5,2
60650372511,-6,-2,-2,-3,-1,4,12,-5
60650372511,-8,-1,0,-2,0,0,0,-6
60650373214,9,-2,1,1,0,5,-4,0
60650373214,0,-2,-4,-2,-6,0,-6,-24
60650386776,-11,-4,-2,1,-1,-2,6,11
60650386776,-8,0,-3,-1,0,3,28,2
60650387544,-5,9,0,2,2,1,0,-4
60650387544,-8,-3,1,-5,-3,-11,-9,0
60650409433,23,-1,-2,-1,-2,-2,-1,7
60650409433,5,-2,1,-2,-2,-2,-11,9
60650410028,-14,1,0,-3,0,2,2,-2
60650410028,-3,5,0,-2,2,-5,3,-19
60650432592,0,5,-1,0,2,3,4,-1
60650432592,2,-17,-2,-1,2,0,-19,-7
60650433147,10,-1,-1,0,-1,-4,4,6
60650433147,-1,2,1,0,3,5,3,11
60650446161,-10,-6,-2,-3,-2,-6,-16,-14
60650446161,6,3,1,0,-1,-2,12,12
60650454416,-2,0,0,-2,-4,-12,-11,-4
60650454416,1,2,-2,-1,0,11,7,-3
60650469282,-13,-5,-1,2,-3,-7,-18,-11
60650469282,3,-3,-3,-3,-2,2,-4,-5
60650469983,-7,7,3,3,2,3,9,-7
60650469983,0,-6,0,-3,0,-2,2,32
60650492623,23,2,0,-2,-4,-4,-2,-13
60650492623,-8,2,-3,-3,-4,-5,-14,-5
60650493222,0,-13,-4,-2,0,-2,12,-8
60650493222,0,5,3,-2,-2,-1,11,3
60650506182,0,-17,-3,-1,1,2,-6,-3
60650506182,-6,1,-1,1,-2,-9,-1,-5
60650514344,5,0,-4,-3,-3,4,-2,9
60650514344,2,4,-5,-1,-3,-5,10,-6
60650529284,-2,5,5,0,0,1,5,7
60650529284,4,2,3,0,1,0,2,4
60650530054,-2,0,3,0,3,-2,-9,-8
60650530054,-1,-5,-4,0,-3,-3,-4,14
60650552553,-9,4,-3,-3,-5,-5,-3,-13
60650552553,3,6,1,1,-2,-5,-4,-1
60650553171,1,4,-1,-1,-2,-1,6,10
60650553171,-3,-4,-4,-2,1,0,-16,-5
60650566164,-3,-6,0,-1,5,4,7,5
60650566164,-3,-6,0,0,-2,-4,-1,1
60650574415,-1,3,1,-1,0,0,-4,3
60650574415,2,-8,-2,0,-1,-1,-1,-5
60650589425,-5,6,-1,2,3,4,9,2
60650589425,0,-3,-3,-6,-2,-4,-4,1
60650590032,-2,-4,4,-3,-4,-1,-2,-12
60650590032,0,-1,0,-2,-1,-3,-5,2
60650612575,3,6,0,-2,-2,-6,-2,9
60650612575,-1,-2,-4,3,3,2,-2,-4
60650613211,-3,10,-5,-5,0,8,10,5
60650613211,-4,-12,0,0,0,5,14,5
60650626169,2,0,-1,-2,-5,-1,-20,-8
60650626169,-3,2,-1,1,1,-2,6,-3
60650634311,1,-12,-4,-13,-4,-3,-5,-1
60650634311,1,9,2,16,2,4,3,6
60650649204,4,1,-1,-1,1,-4,-1,0
60650649204,1,-4,-4,-1,-2,5,-1,-2
60650650007,-1,2,-3,1,-2,-8,-10,-7
60650650007,0,-2,0,-4,-5,-2,0,-4
60650672357,-2,-2,0,11,-4,2,17,0
60650672357,-1,6,0,-1,1,6,0,-2
60650673181,4,5,-1,15,-1,1,0,5
60650673181,-3,-14,-3,-8,-3,-2,-8,-7
60650686054,-4,-3,-1,8,1,2,6,3
60650686054,1,-2,2,12,-4,-3,2,-2
60650695034,-4,11,-1,-6,-3,-10,-9,0
60650695034,-1,-4,-4,6,0,-3,-1,-9
60650708670,-6,-1,-3,-11,0,7,17,-4
60650708670,1,-5,5,6,4,4,-8,-2
60650717577,2,12,0,7,-3,-9,-15,2
60650717577,-1,2,-4,-3,2,7,-1,4
60650732567,-3,-4,-3,-6,-1,-6,-5,-2
60650732567,-3,-2,-3,-7,-5,-9,-8,-4
60650734042,0,-11,-3,-32,-3,1,10,0
60650734042,-2,-3,0,18,1,-6,-5,3
60650746188,-2,-3,-1,-6,0,0,-3,-10
60650746188,2,2,-2,-1,-1,3,4,7
60650755050,-3,-5,-2,-1,-5,-2,-3,-7
60650755050,0,6,-1,-13,0,3,0,-11
60650768714,7,0,1,-6,-3,0,-2,13
60650768714,4,0,3,14,0,-7,15,6
60650777524,4,0,-1,5,-1,6,-10,1
60650777524,-10,-13,-4,-1,-2,-5,-12,-11
60650792932,-8,-12,-4,-3,-3,-2,7,0
60650792932,-2,1,1,-13,-4,0,-5,-19
60650798680,-1,-5,-1,5,0,-6,-3,13
60650798680,-2,12,1,2,-2,0,3,-3
60650806190,0,5,-1,-2,2,3,-6,-3
60650806190,-2,-8,-4,-6,0,-3,-4,4
60650815040,2,-3,-3,6,2,0,6,-1
60650815040,3,5,-1,-11,-3,-4,-10,-5
60650828739,0,6,0,0,-2,-7,-14,12
60650828739,-2,-7,0,2,4,10,11,5
60650837526,-3,-6,-2,-2,0,-1,1,-21
60650837526,1,-1,-2,-5,-2,-2,4,3
60650852460,1,0,0,-7,-1,-2,-6,-6
60650852460,2,10,5,13,0,2,-1,5
60650853988,-4,-19,0,-2,-2,-3,2,-1
60650853988,0,3,0,-3,-2,1,-7,10
60650875022,-3,-3,-2,3,1,-2,0,-7
60650875022,2,4,-3,-8,-2,-4,-9,-2
60650876518,-2,-2,-3,-10,2,6,4,1
60650876518,0,3,-2,14,-2,-7,-7,0
60650889334,-3,-4,-1,-2,-1,-3,-1,-7
60650889334,1,5,1,-5,0,0,0,-1
60650896129,-6,-1,0,5,-1,-1,0,1
60650896129,2,5,0,-7,-2,0,12,15
60650912578,-4,4,0,-3,-4,-6,-12,-11
60650912578,-6,-6,-4,-1,-5,-5,1,6
60650913998,-2,-3,-1,0,-5,-1,-9,-13
60650913998,5,-1,-1,0,-2,5,3,7
60650935008,-5,0,-3,3,-3,-2,5,-4
60650935008,2,-8,0,-3,-2,2,7,11
60650936526,-4,-11,1,0,-1,-4,-4,3
60650936526,-2,-1,-1,-3,-4,-4,2,-7
60650949404,-1,4,2,-1,-1,3,-1,2
60650949404,-1,4,-6,-9,-3,-8,-4,-9
60650956095,-2,-3,0,3,-1,8,9,17
60650956095,-2,-6,-1,-13,0,1,-7,-21
60650972572,7,1,-1,8,-1,-4,2,8
60650972572,-6,10,2,-3,-3,-3,-7,-9
60650974023,-3,-2,-3,-4,0,-5,-6,3
60650974023,-1,-5,-1,12,2,5,3,-7
60650995002,-1,4,-3,-3,0,1,-4,-8
60650995002,-2,-6,-5,-7,-1,-5,-2,-12
60650996468,7,9,1,15,2,-2,3,13
60650996468,0,-13,0,-6,-5,-10,0,-4
60651008656,3,-6,0,-1,5,5,-1,6
60651008656,-2,-2,1,-1,-5,-4,-8,-4
60651017583,0,1,0,-5,4,8,1,0
60651017583,2,11,1,-2,-1,-7,-9,-6
60651031233,-9,-16,-3,-1,-2,-6,0,-3
60651031233,-1,-3,-4,-3,-1,-1,7,-2
60651040047,1,-17,-4,-2,2,-2,-3,-3
60651040047,-2,9,-2,1,4,-1,3,21
60651062520,-1,6,1,-6,-4,-3,-2,-8
60651062520,3,-1,-3,-4,-5,-4,-8,4
60651063996,-5,0,3,2,0,4,-1,-12
60651063996,0,5,-2,-9,-1,3,0,2
60651077496,-4,-17,-3,1,0,0,0,4
60651077496,0,2,1,-1,7,3,-5,-5
60651078976,-3,2,-2,0,-4,-13,-7,-8
60651078976,1,1,2,-2,4,1,-3,5
60651091160,-1,6,-3,0,-2,2,6,-12
60651091160,-2,-7,-3,-5,-2,2,-3,0
60651100014,3,4,-2,-4,1,1,0,-4
60651100014,-1,3,5,2,0,-1,-4,-17
60651115062,3,-20,-2,3,-2,-2,-6,11
60651115062,-1,2,-1,1,-3,1,-8,-10
60651116525,4,6,-4,-3,-5,-4,5,11
60651116525,-4,-4,-2,-4,-3,1,4,-23
60651137410,-5,13,-2,-5,-4,-5,-7,-9
60651137410,-3,-12,-3,-5,-7,-3,5,8
60651138988,2,-2,-1,3,1,2,-1,2
60651138988,-4,1,1,0,-3,-4,-2,8
60651151067,4,10,0,1,-1,6,0,21
60651151067,-7,-3,0,1,0,-2,11,14
60651160030,-4,-1,-5,-4,-4,-7,-16,-25
60651160030,4,11,1,9,0,2,-4,-3
60651174261,-3,0,-1,-2,2,-3,2,-3
60651174261,3,-3,1,-6,6,4,1,2
60651181040,4,8,4,9,5,0,13,15
60651181040,-9,-23,6,-5,4,-6,0,-10
60651197583,5,13,-1,-2,-2,3,-8,-1
60651197583,-4,-5,-1,3,7,-1,2,-3
60651199034,0,2,-3,-11,-7,-2,-3,-1
60651199034,-2,-21,-6,-2,-6,-2,-4,2
60651211138,1,5,4,5,-4,1,6,9
60651211138,6,3,-2,2,-4,3,1,-11
60651220034,5,-3,3,-3,-5,1,-3,-4
60651220034,-2,0,-2,-3,-6,-7,-1,4
60651234342,-4,-13,-3,-4,2,0,1,-3
60651234342,-4,6,-1,2,-2,0,-12,-11
60651241182,-15,3,-5,0,0,-6,3,-21
60651241182,3,-3,-3,-1,3,6,-1,11
60651257396,-7,-18,-2,-5,1,-2,3,-10
60651257396,1,2,3,3,1,5,2,24
60651258999,-3,-2,-2,-2,-1,2,-6,2
60651258999,4,22,-3,-9,0,1,6,0
60651271063,-1,-5,0,3,-2,-2,7,7
60651271063,-2,-3,-1,-3,-1,-4,-9,-18
60651280004,3,2,0,-10,-5,-1,9,4
60651280004,5,2,-5,11,4,3,-9,15
60651294206,-10,-6,0,0,1,2,2,-28
60651294206,-1,-4,-1,-5,-8,-3,4,2
60651301162,4,5,2,-1,4,-6,-7,6
60651301162,-1,-2,0,-3,2,1,1,-12
60651317505,-1,-5,-3,2,2,5,5,10
60651317505,-5,1,-4,-2,-6,-3,-1,-17
60651319031,3,1,4,3,1,5,4,16
60651319031,2,11,0,-1,-2,-2,7,17
60651331142,-2,-7,-4,0,2,0,-20,-10
60651331142,1,-1,-3,-2,-2,5,0,0
60651340051,-8,4,-3,-3,-3,3,3,-7
60651340051,4,0,5,-2,-5,0,0,-2
60651354398,-3,-8,-2,-6,-2,-3,-8,5
60651354398,1,5,-3,-1,-1,-1,-7,16
60651361132,-2,-15,-7,3,-1,-4,0,-18
60651361132,-4,-4,-2,1,-5,-2,-11,-13
60651377554,5,5,1,0,-3,-2,4,12
60651377554,-1,1,2,0,0,-2,-1,-1
60651379001,-4,-11,4,-4,0,2,1,-1
60651379001,1,1,-3,1,-6,-6,-2,-3
60651400007,2,-7,-1,16,-1,0,-4,-5
60651400007,2,12,-2,-1,3,-3,-1,-4
60651401487,-2,7,-1,0,-1,-3,-8,0
60651401487,1,1,4,0,0,-4,-1,6
60651414981,-7,4,-1,-7,0,2,-5,-18
60651414981,9,-18,0,2,2,1,4,15
60651416515,-10,-4,-2,-1,-4,-1,1,-16
60651416515,-1,-9,-7,-3,0,2,4,-6
60651437551,2,7,2,-3,-3,3,5,10
60651437551,-1,2,1,0,2,-5,-8,-10
60651438991,2,6,0,-1,1,4,1,25
60651438991,-4,-9,0,-1,-2,0,-2,-27
60651460049,2,9,0,-6,-4,-6,-6,4
60651460049,-2,-14,-3,2,0,-3,-7,-15
60651461514,3,0,-1,2,-1,0,8,8
60651461514,0,3,-4,-3,-2,-3,-7,-5
60651474983,0,3,0,3,0,-3,0,-1
60651474983,-4,4,2,-5,-6,-5,5,6
60651476522,-4,-4,-2,0,0,-2,-8,-19
60651476522,1,-1,-4,-14,-2,5,-3,23
60651497523,-5,-5,-3,0,-4,-3,4,-22
60651497523,-7,-3,-1,0,2,1,-3,-7
60651498987,3,-12,-1,0,0,0,5,10
60651498987,0,11,-3,-6,-2,-5,5,22
60651520097,0,-16,4,0,1,1,-3,-10
60651520097,-1,24,-2,0,-4,-2,3,-2
60651521534,-1,4,-5,-1,-1,-3,-7,-8
60651521534,-9,-14,-4,0,2,5,9,6
60651534390,2,4,2,-2,-2,-3,-12,3
60651534390,-1,0,0,0,-1,2,18,2
60651541127,6,4,3,-1,2,-1,-5,4
60651541127,-8,-11,-2,1,0,0,-6,1
60651557524,-3,-6,-5,-5,-7,-6,13,3
60651557524,-1,-3,-1,0,-2,-4,-6,6
60651558993,0,-1,-4,3,2,5,3,4
60651558993,-3,-2,0,3,-3,0,1,-11
60651579832,2,2,0,-3,-3,-6,-8,0
60651579832,2,-2,0,-3,-4,4,6,2
60651581450,-18,-19,-2,-5,-3,-4,-4,-22
60651581450,0,11,0,4,2,5,-8,3
60651594241,5,4,1,-2,4,0,-3,-8
60651594241,0,-15,-1,10,-2,-2,1,14
60651601031,2,1,0,1,0,1,-1,-5
60651601031,-4,5,-3,-12,-1,-3,-11,-8
60651617399,-5,2,-3,9,-4,-5,1,-8
60651617399,1,5,-5,-3,-2,3,-6,9
60651618984,5,0,4,-1,-7,-4,5,9
60651618984,2,-7,3,2,5,-1,2,-9
60651640028,3,7,-1,-7,-1,1,5,18
60651640028,-6,-9,-3,-5,3,3,-7,-13
60651641474,2,0,-1,-1,0,-2,-6,-12
60651641474,-3,-4,1,1,-5,-6,9,2
60651654333,3,4,-1,-1,3,6,-12,0
60651654333,-5,-12,-3,0,-2,-2,9,-10
60651661128,-1,11,-3,-2,-2,-2,-4,14
60651661128,-3,-13,-3,3,-1,1,4,4
60651677386,-1,2,0,-2,-2,-6,-6,-8
60651677386,0,-17,-5,-6,0,-1,-16,1
60651679016,-1,12,5,0,-3,-5,-4,-19
60651679016,2,5,0,-4,-5,-7,0,-5
60651699961,-7,-13,-6,-2,-2,-5,4,2
60651699961,-1,4,1,-12,-3,-2,-7,3
60651701537,6,-1,-1,0,0,7,6,7
60651701537,-4,-3,2,10,0,-6,0,2
60651714228,9,14,0,-2,1,1,2,8
60651714228,1,4,0,1,6,-2,-1,-29
60651721083,-2,-17,-5,0,-3,1,8,25
60651721083,1,5,2,-1,-3,-3,-23,-45
60651737426,0,9,-2,-3,-2,1,7,12
60651737426,-1,-19,-2,2,-3,0,1,9
60651738964,2,0,-2,-4,-2,-1,0,-8
60651738964,1,0,-4,-1,0,1,5,-2
60651760011,2,2,3,-2,-2,2,3,16
60651760011,-4,4,-1,-1,-4,-3,-20,-25
60651761494,1,-1,1,-1,1,-1,-2,11
60651761494,-2,1,0,-4,1,2,10,9
60651774341,-8,-24,-5,-2,3,-1,2,-18
60651774341,-3,10,1,3,-2,-1,2,13
60651781085,3,0,-3,-2,-2,2,6,13
60651781085,-7,-3,1,0,1,-1,-4,-18
60651796555,3,7,-3,-1,-4,-5,-12,-16
60651796555,3,11,1,-4,-1,-2,12,16
60651805028,1,-5,-1,14,2,-5,-5,-25
60651805028,3,-9,-2,0,-2,-2,4,11
60651819992,-5,-2,0,1,2,2,-15,-6
60651819992,-3,1,2,-1,-1,-1,4,-19
60651821477,-6,-3,-3,-4,-2,-3,-3,1
60651821477,-1,-6,-2,-2,1,-3,-6,1
60651834383,-3,6,-1,1,-1,3,2,12
60651834383,-3,4,-5,-10,-2,-5,0,6
60651841168,-8,3,0,1,-3,-2,6,3
60651841168,1,-18,-3,-2,-1,-2,-8,-5
60651857547,1,-5,-2,-4,1,-2,3,10
60651857547,-1,5,0,-1,-2,-3,8,-1
60651859036,0,-5,-5,-7,-3,-6,-12,-15
60651859036,0,4,-2,0,3,4,-5,10
60651880030,2,-2,0,0,-1,6,13,4
60651880030,-1,-5,-1,3,3,2,1,0
60651881514,8,0,-2,-3,1,4,-3,8
60651881514,-7,1,2,2,-1,5,-3,-1
60651893635,-2,1,-2,-3,-1,-4,-9,-14
60651893635,1,-3,0,3,-1,0,6,5
60651902496,-5,-2,-2,-2,-5,-2,-5,-9
60651902496,-7,5,-3,1,3,-1,-1,-1
60651917468,-9,-4,-1,-9,-4,-3,1,-6
60651917468,-5,-2,-1,9,-3,-5,-2,-3
60651918974,-6,1,1,-3,0,-2,1,17
60651918974,0,0,-2,-3,-4,-4,-3,-15
60651939991,-1,-1,2,2,0,-2,3,0
60651939991,5,-1,-3,-2,-2,-3,-4,2
60651941502,2,-1,-3,-1,2,3,0,-7
60651941502,3,4,-1,-1,-4,2,7,5
60651953661,2,-3,2,13,0,0,-5,2
60651953661,3,1,0,-4,2,3,0,5
60651962529,-5,-2,0,-2,-2,-2,-4,-7
60651962529,3,-1,-3,-2,-1,-6,-2,13
60651977457,-2,1,-1,-3,-4,-2,-3,-2
60651977457,-5,3,3,0,-1,5,-3,-11
60651978986,-1,-20,-3,2,-1,-4,-6,-9
60651978986,3,0,-1,-3,-1,-7,-1,-5
60652000147,4,1,0,-5,-2,1,-5,9
60652000147,3,-1,-2,-1,-1,0,-2,-4
60652001498,-1,8,1,-4,-1,-3,-2,-15
60652001498,0,2,0,0,1,3,1,13
60652013558,-2,-5,-4,-2,0,3,6,7
60652013558,-7,-9,1,-2,-3,0,-2,-11
60652022526,-1,0,-1,-1,0,-2,-4,-1
60652022526,-3,-1,0,1,-1,-2,1,0
60652037510,0,2,-3,-3,1,0,4,1
60652037510,1,-3,-2,-2,0,-2,-5,11
60652038993,-1,-1,-3,0,0,-3,1,3
60652038993,-3,-1,0,1,-6,3,6,-7
60652060036,-3,-2,0,-3,-3,-5,-7,-11
60652060036,3,0,-1,-1,0,-1,-1,4
60652061463,5,1,1,-2,-2,1,0,2
60652061463,-3,2,0,-4,0,-1,-2,-6
60652082417,-4,-3,-3,-1,-3,-6,-4,1
60652082417,-3,-2,-2,0,-1,6,7,-6
60652083996,0,3,-2,-1,2,-2,-1,4
60652083996,3,1,1,-1,0,6,4,8
60652096784,1,-4,-1,-2,1,-2,0,-6
60652096784,-1,0,-2,-3,-3,-5,-4,4
60652103633,-2,-2,1,-3,-1,0,0,0
60652103633,3,-2,-2,-2,-2,1,2,-2
60652120047,-4,-4,-3,-4,-1,2,0,-3
60652120047,-1,3,0,1,-4,-4,-3,4
60652121471,-1,2,-2,-2,-3,0,1,-2
60652121471,-8,1,-3,-1,1,0,-7,-13
60652133679,3,0,0,2,-1,-1,5,-1
60652133679,0,0,-2,-1,2,-1,-2,-9
60652142503,-2,-2,-3,-3,-1,0,-4,2
60652142503,0,-2,-4,-3,-4,-5,-2,5
60652156751,-2,-1,-3,0,-3,0,2,-10
60652156751,1,-3,3,1,-2,-3,7,15
60652163562,-3,-3,0,1,0,-2,-4,-1
60652163562,2,-1,1,1,2,-1,-2,5
60652179881,0,-1,0,0,0,-1,0,-15
60652179881,1,1,-1,-1,-3,-2,-5,-8
60652181483,0,1,0,0,-1,0,6,3
60652181483,1,-1,0,-1,2,-1,1,8
60652193513,0,-1,-1,-6,-1,-3,-2,6
60652193513,-1,-1,-1,1,5,4,-4,7
60652202562,-4,0,-2,0,0,-3,0,4
60652202562,-3,-1,-4,-1,-2,-1,-2,-15
60652216721,6,1,-3,-1,-1,0,6,18
60652216721,1,-2,-3,-2,-1,-2,-2,-12
60652223696,0,2,2,0,-1,3,-1,14
60652223696,-3,-1,1,0,-1,2,0,-6
60652240009,-4,0,-1,4,-1,0,-2,-5
60652240009,0,-1,-2,-2,-3,-1,1,-7
60652241469,0,-1,-2,-2,-3,-1,1,-1
60652241469,0,-3,0,-4,-4,-2,-1,-7
60652253647,1,-1,-2,-1,-3,-2,-2,11
60652253647,-7,-2,-4,-1,3,-2,-3,-8
60652262516,-1,1,-1,1,-2,-1,1,-11
60652262516,-6,-4,-4,0,2,-3,0,0
60652276849,-1,-1,0,-1,2,-1,0,-2
60652276849,2,2,-2,-2,-1,-2,2,14
60652283782,-1,-2,-2,-2,1,0,-1,4
60652283782,-1,0,-1,0,-4,-1,2,-2
60652300154,-4,2,2,-1,-3,2,-2,-10
60652300154,-1,-1,-3,-1,-5,-2,-2,3
60652301492,-4,-2,1,-3,-6,0,-3,-11
60652301492,-2,-2,-1,0,1,-1,-1,13
60652322497,2,-3,1,-1,0,1,-3,-14
60652322497,-5,-4,-1,-4,-1,-2,0,12
60652323981,-2,-1,-5,1,-4,-1,-1,-8
60652323981,3,-2,-1,-2,-1,-4,-5,-12
60652336762,-1,-2,1,1,2,2,2,9
60652336762,1,3,2,2,1,-1,0,2
60652343693,2,-1,-1,1,1,-1,-2,-7
60652343693,0,3,-3,-3,-3,-4,0,13
60652360101,-3,-3,-4,-1,-2,-3,0,-8
60652360101,3,-2,1,0,-3,0,-5,-1
60652361449,-7,-4,-5,-1,-1,0,-1,-15
60652361449,2,0,-1,1,-2,0,6,6
60652382606,-4,0,-2,-2,-3,-3,-9,-1
60652382606,-6,-2,-1,0,1,0,3,-11
60652383999,4,1,0,-1,0,0,-5,-5
60652383999,3,-3,1,-2,-3,-1,-1,14
60652396780,1,5,-3,-4,-3,-3,0,4
60652396780,-1,-1,1,-2,-2,-3,-1,-6
60652403620,-2,-4,-1,0,0,2,0,-7
60652403620,0,-4,-1,-1,-1,-1,-2,1
60652419959,-5,-5,0,1,-3,-2,-5,-21
60652419959,2,1,0,-1,-1,-4,-5,-4
60652421465,3,-1,2,-2,1,-3,3,16
60652421465,-7,0,-2,1,-1,0,2,-8
60652442517,-1,-1,-1,-1,-1,2,1,6
60652442517,-1,1,-1,-2,1,-6,1,-1
60652443991,2,-1,0,-1,2,1,3,-1
60652443991,0,-1,1,-2,1,1,-5,10
60652456029,2,-3,-4,-2,-2,0,-2,-2
60652456029,0,-4,-3,3,-2,3,0,2
60652465026,1,-2,-2,1,-2,0,-4,9
60652465026,1,0,-3,-4,-2,-4,-5,-4
60652480028,1,0,-2,-1,-1,-2,4,-8
60652480028,2,-1,-1,-1,-1,4,6,6
60652481465,-2,1,-1,0,-2,-5,-1,-6
60652481465,-6,-2,-2,2,1,-2,-5,-5
60652502516,-4,-4,-1,0,-1,0,-8,28
60652502516,4,2,-1,-2,-1,0,-4,-10
60652504044,-12,-4,2,-3,1,-2,2,-14
60652504044,-1,1,0,-2,1,-1,-3,-2
60652516160,2,2,0,1,2,0,4,0
60652516160,0,-2,-2,0,-2,1,-4,4
60652525018,-4,4,-2,1,2,-1,-5,-7
60652525018,2,-2,-4,-1,-1,-2,1,7
60652540091,-2,-4,-2,1,1,0,1,-7
60652540091,1,-3,-2,0,3,2,1,16
60652541505,-3,-3,-3,-1,-1,-2,0,-25
60652541505,1,4,-3,-1,-1,0,3,9
60652562459,2,1,1,0,-1,-3,-2,14
60652562459,-9,1,1,-3,1,-4,-1,-28
60652563963,0,-2,1,-3,-2,-1,0,0
60652563963,4,-3,1,-2,0,-1,-2,11
60652576143,-7,-5,0,-1,0,1,3,-24
60652576143,2,-2,-3,-2,-4,-7,-11,1
60652585045,2,1,0,0,-1,3,0,2
60652585045,-8,-2,2,1,-3,-4,-4,-9
60652600012,6,-2,-1,-2,-3,-4,0,4
60652600012,-6,-1,-1,-2,-1,-2,1,-6
60652601496,3,0,-1,-1,-1,-4,1,16
60652601496,-4,5,0,0,1,5,0,-16
60652622468,-1,1,-2,-2,-2,1,-2,-8
60652622468,1,2,0,-2,-5,1,-2,-11
60652623968,-3,-4,-3,-4,-6,-3,-6,-1
60652623968,3,-2,-2,3,-5,-1,4,5
60652636146,4,0,-2,-1,-6,-4,-1,4
60652636146,8,0,-1,-1,-3,0,-2,18
60652645002,1,-3,-1,-2,-2,0,-1,0
60652645002,2,-6,1,-2,0,-1,-1,-20
60652659962,-1,-1,0,0,1,-1,1,9
60652659962,-1,0,-2,-2,-4,-3,-1,-13
60652661448,7,3,-1,0,3,0,-2,11
60652661448,4,-2,-1,-3,-1,0,-2,-3
60652682355,1,-1,-2,1,2,0,-3,-18
60652682355,0,-1,-1,-1,0,0,2,7
60652683971,-21,-3,-1,2,1,-3,0,10
60652683971,-12,0,-2,-5,1,1,-1,0
60652696125,-8,1,-1,-2,2,-2,2,0
60652696125,-13,-4,-1,0,-2,-3,-5,-15
60652704995,3,2,0,-4,0,0,1,4
60652704995,-4,-1,-2,-1,-3,-4,1,-6
60652719978,-1,-1,0,-2,0,4,-2,12
60652719978,3,-1,-4,-1,-1,-1,-2,12
60652721473,5,-1,-2,1,0,5,0,-12
60652721473,-6,-5,-1,2,3,1,-1,-14
60652742496,2,2,-2,-1,-2,-5,0,-14
60652742496,0,-2,1,0,-1,-3,-1,13
60652743997,0,-1,-1,-2,1,-1,-7,-1
60652743997,0,1,-3,-2,-1,-5,-2,6
60652756120,-4,-2,-1,0,3,1,0,-14
60652756120,-1,-2,1,-2,-2,-2,-2,7
60652765018,4,-1,-2,2,-2,0,3,1
60652765018,0,0,-2,0,-2,-2,-1,-7
60652780098,2,1,0,-1,1,-7,0,0
60652780098,0,1,-1,-3,1,0,4,10
60652781477,-6,-3,-1,2,-5,-3,-2,2
60652781477,-3,-5,0,-1,-6,1,-4,-15
60652802408,3,6,1,-1,-6,0,-2,11
60652802408,-4,0,-1,-2,-1,2,-1,-7
60652803955,3,-1,0,0,-2,-2,-1,-8
60652803955,-1,0,1,1,-1,1,0,6
60652816140,0,-7,-1,-2,2,0,0,7
60652816140,-4,-2,-2,-1,-2,-2,-3,-12
60652825028,4,1,0,-3,0,-5,0,17
60652825028,-1,0,-1,-3,-3,-1,-1,-2
60652839999,-4,-2,-4,-1,-1,-1,0,-1
60652839999,-2,0,-2,1,-1,-4,-6,-4
60652841493,-6,-5,-3,-3,-2,2,4,-9
60652841493,5,1,3,1,0,1,2,-4
60652861592,-9,-5,-2,-1,-4,-6,4,8
60652861592,-1,-1,-1,-4,1,6,-5,-27
60652869999,-4,1,-1,-1,-3,-4,-7,6
60652869999,3,0,-1,1,0,2,6,16
60652876164,-3,-3,-2,1,-1,3,-6,-16
60652876164,-2,-2,-3,-1,0,0,3,-5
60652885003,6,0,-2,-3,-1,0,-2,27
60652885003,-4,2,-2,-1,2,-1,-3,-15
60652899972,5,1,-2,2,-3,-2,-1,1
60652899972,-2,0,1,1,-2,-2,0,-8
60652901493,-2,-7,-3,-1,1,-1,-1,-9
60652901493,4,-2,0,0,-1,2,3,26
60652922621,2,-2,-1,-1,2,-1,-1,-11
60652922621,-12,-3,-4,2,-2,-5,-1,-7
60652923992,3,2,1,0,-3,-2,-1,12
60652923992,4,-5,-5,-2,2,2,1,15
60652936133,-5,5,1,-6,-2,0,-3,-7
60652936133,4,0,0,0,0,0,5,12
60652944998,-7,-3,-3,-2,-2,-1,-2,-9
60652944998,-5,-2,0,-3,-2,-1,-2,4
60652959962,0,-4,-1,0,-1,4,-7,-15
60652959962,4,2,-3,-2,-1,-3,3,18
60652961483,1,3,1,0,0,-2,-2,-19
60652961483,4,1,-1,2,-3,-5,4,3
60652982458,-2,-2,1,1,1,2,4,4
60652982458,1,-1,2,0,-3,-2,-2,-3
60652983997,3,0,-3,-4,0,2,1,-13
60652983997,-5,0,-3,-2,1,-1,-4,-11
60652996131,-6,-3,0,0,-3,-3,3,0
60652996131,2,-1,-3,0,0,4,1,5
60653005023,-6,0,-1,-1,-3,1,-5,-13
60653005023,4,-1,0,-4,-1,-3,-2,5
60653020017,-2,-2,-1,-2,-3,-6,-3,23
60653020017,2,0,1,0,-1,1,-3,5
60653021467,-1,-2,-3,0,2,-1,-1,-9
60653021467,-8,-1,1,0,0,-2,-2,-20
60653042443,1,0,0,-1,-2,-1,1,3
60653042443,0,-3,-4,-3,-1,-1,1,-3
60653043954,4,-1,2,-1,-1,-1,2,19
60653043954,1,-1,-2,1,0,-1,-2,-22
60653056153,-6,-1,-2,-1,2,-1,-2,-6
60653056153,-1,-3,0,0,-3,-1,-3,-21
60653065028,1,0,-1,1,-4,0,3,26
60653065028,0,2,-2,-3,-2,-1,-3,7
60653079307,0,1,0,0,-4,0,-3,-6
60653079307,2,2,0,-1,-3,-2,2,0
60653086131,-2,-4,-3,-1,2,1,-4,-12
60653086131,-1,-1,2,-4,-3,-2,-2,-5
60653102536,0,0,-2,-2,0,-3,-1,7
60653102536,-2,-6,-1,-2,0,2,2,6
60653103973,-1,-3,-1,-2,0,-3,-2,-3
60653103973,2,-8,-5,0,1,1,-1,3
60653116033,-3,1,-3,1,0,0,1,-1
60653116033,-2,-1,-3,-1,-3,-3,1,1
60653125002,1,-1,-3,0,-4,0,0,-19
60653125002,0,1,1,0,3,1,2,12
60653138648,1,0,3,0,-3,0,-2,-1
60653138648,0,0,-2,-3,3,0,0,-4
60653146865,-1,2,4,-1,-2,-2,1,9
60653146865,-3,2,-3,-2,-6,-2,-4,-5
60653161771,4,-2,-3,1,0,0,3,9
60653161771,-3,-3,0,-1,-3,-5,-2,6
60653162491,0,0,-2,0,0,-3,-3,-8
60653162491,0,1,1,0,0,0,-1,-9
60653192463,-3,-1,0,-1,0,0,-2,-4
60653192463,2,1,0,-4,-2,3,0,1
60653193137,0,2,-3,0,-1,-3,-2,1
60653193137,-2,2,-3,0,-1,-2,-2,7
60653198502,3,-4,-2,-2,-1,-1,-4,-11
60653198502,-1,0,0,0,-2,3,2,-2
60653206712,-3,-2,1,1,-2,0,0,-3
60653206712,2,-3,-2,1,-1,-2,-1,-2
60653221802,-2,-2,1,0,0,-1,0,-3
60653221802,-1,-1,0,0,-3,-2,0,-1
60653222453,0,1,2,-2,2,2,-2,4
60653222453,-1,-1,0,-1,-2,-1,1,-9
60653244425,2,-1,-2,-3,0,-1,-2,5
60653244425,-3,-4,-2,1,2,-1,-3,7
60653244977,-4,2,-2,0,-1,-3,1,-13
60653244977,-2,1,2,-1,-1,0,-2,-1
60653259342,0,-2,-2,0,-3,1,-2,0
60653259342,4,5,1,-3,-1,0,1,3
60653260338,-7,-3,-2,-2,-1,-1,-1,5
60653260338,0,-1,1,-3,-6,0,0,0
60653281859,-2,-1,-3,0,1,-2,-3,4
60653281859,0,-3,-3,1,-2,-1,1,-1
60653282487,-1,-2,1,-1,0,-4,1,-5
60653282487,-1,-3,-1,1,-2,-1,-1,1
60653304263,-1,0,1,-2,-2,0,-2,-3
60653304263,-1,-3,-2,0,-1,2,0,-6
60653304986,-2,0,-1,0,-1,1,-3,-10
60653304986,-7,1,-1,-1,2,0,-2,-5
60653319204,1,1,0,0,-1,-1,0,5
60653319204,0,-1,0,-3,-1,-1,-2,0
60653319995,1,-1,-3,-3,-2,-3,-2,2
60653319995,-1,2,-1,0,0,-1,0,-3
60653341839,-1,-3,0,0,2,-1,0,10
60653341839,-4,-2,-1,0,-1,-2,-2,-7
60653342516,1,0,-1,0,0,2,-2,7
60653342516,-2,-1,-1,-2,0,-3,1,-1
60653364198,0,-2,-4,-2,-2,-1,1,-10
60653364198,1,0,0,-1,2,-1,-3,9
60653364968,2,-1,1,-1,-2,-2,0,-2
60653364968,0,-1,-2,0,-4,0,0,-10
60653379285,-5,-1,-3,-3,-2,0,1,6
60653379285,-5,2,-4,-4,0,0,-3,-13
60653379967,-1,-1,-1,0,-1,0,0,-2
60653379967,-4,-2,3,-1,-1,-1,-4,-5
60653401861,-1,2,-1,-2,-2,-1,1,-1
60653401861,1,-1,-2,-7,1,-2,-2,3
60653402466,1,-1,-2,-3,-2,-1,3,0
60653402466,0,-5,1,0,-3,-2,-1,-1
60653424902,-2,-2,-1,-2,-1,-3,0,-7
60653424902,-2,1,-2,2,-1,-1,-3,-1
60653425390,2,-3,-2,1,-1,2,0,18
60653425390,-3,0,-3,-2,0,0,0,0
60653439310,0,2,-3,-1,-2,-2,-2,-2
60653439310,-1,-1,1,1,-4,-5,2,-5
60653439961,-1,-1,1,0,1,-2,-3,-4
60653439961,-2,2,-1,1,0,1,-2,1
60653461796,3,0,1,1,1,2,0,12
60653461796,-3,0,0,-1,0,-1,-1,-4
60653462469,0,-4,-2,-3,-1,0,-2,-1
60653462469,-5,-4,-4,-4,-1,-3,-3,1
60653484191,-4,-1,-1,-2,-2,-3,-2,-18
60653484191,4,1,-1,0,-4,-2,-1,12
60653484931,-4,2,-1,0,-1,0,0,-5
60653484931,0,-2,-2,-1,2,-4,1,-2
60653499251,1,-1,2,0,0,0,3,6
60653499251,-1,-3,0,1,1,-2,-7,-4
60653499958,-2,0,-2,-2,-5,0,-1,-3
60653499958,0,0,-1,1,-1,2,0,0
60653521651,-3,-1,0,-1,-2,1,-2,-6
60653521651,1,-1,-2,0,-2,0,-1,2
60653522405,2,0,-1,-2,-1,-2,-3,1
60653522405,-1,0,-1,-3,-2,-2,-2,-3
60653544934,-1,-2,-2,-1,-4,-3,-3,2
60653544934,-5,-3,1,1,0,2,3,-5
60653545736,-3,1,-1,-2,-3,-1,0,-6
60653545736,0,0,-2,2,3,2,1,7
60653559289,-2,-2,-1,0,0,-4,0,0
60653559289,-3,0,1,1,1,-2,-3,-10
60653559977,0,-4,3,0,-2,1,1,-1
60653559977,1,-1,-2,-5,-2,-3,1,-6
60653581783,0,0,-1,-2,1,-1,-4,-4
60653581783,0,-2,-1,-2,1,-1,-2,-2
60653582463,-1,-4,-4,-2,0,-3,1,4
60653582463,0,-2,-1,-1,-1,0,-2,0
60653604985,-2,-1,0,-2,-1,0,-2,-3
60653604985,-1,2,1,-3,-1,-3,0,6
60653605609,-1,2,-2,-1,2,-1,1,2
60653605609,0,-2,-4,0,-4,-1,-3,3
60653619241,1,1,-2,0,-3,1,-3,-2
60653619241,-1,-2,-1,-2,-2,1,-5,-3
60653619962,-1,-1,1,0,0,-1,-1,-4
60653619962,0,1,-2,-2,-2,-2,-3,0
60653641786,-1,0,0,-1,-2,-1,1,0
60653641786,1,-1,-1,-2,-4,-2,0,-3
60653642435,-2,-3,-2,1,0,-2,-2,-2
60653642435,3,-3,-1,1,-3,-2,1,6
60653664921,-4,-1,-3,-4,0,-2,-3,2
60653664921,1,-1,-3,-3,-1,-3,0,2
60653665656,-5,1,-1,-3,-2,-4,0,-4
60653665656,0,1,1,2,0,2,-2,-7
60653679225,1,-3,2,2,-1,-1,-1,12
60653679225,-2,-4,-3,0,1,-2,-1,-6
60653679993,1,-8,0,1,0,1,-1,8
60653679993,-1,-3,0,-3,-4,-1,0,-7
60653702264,-1,-2,0,3,2,2,-2,-9
60653702264,0,0,1,1,-1,0,-1,4
60653702937,0,0,-1,-1,0,0,1,4
60653702937,-2,2,0,-1,0,-1,1,-1
60653725028,-1,0,-3,0,-3,-2,-1,-5
60653725028,0,0,-3,1,-1,-2,0,1
60653725643,1,0,-2,-2,0,-2,-2,-7
60653725643,-1,-4,-4,-3,-1,-1,0,0
60653739299,-3,-2,-2,-4,-3,-1,2,-2
60653739299,-5,1,0,0,0,1,-1,4
60653739998,-2,-1,1,-1,-1,-1,-2,2
60653739998,-1,-2,2,0,1,-2,-2,-2
60653761740,1,-2,-1,1,-5,-2,-2,-1
60653761740,-3,-2,-3,-1,-1,-2,0,-6
60653762456,3,-2,-2,0,-2,-2,0,-2
60653762456,-1,2,-1,-2,-2,3,-1,9
60653785001,-3,-2,0,-4,3,-2,-1,-9
60653785001,2,-1,-2,1,0,-1,1,2
60653785659,-2,-1,-1,1,3,-3,-1,-1
60653785659,-1,2,-1,-1,0,3,-2,-3
60653799688,1,1,2,-1,-1,-3,-2,1
60653799688,2,-5,-1,-1,-1,-1,-2,-4
60653806876,2,1,0,2,-2,0,1,-3
60653806876,-2,-2,-2,0,-2,-2,0,-3
60653821814,-1,1,-1,2,-3,0,0,0
60653821814,-3,0,2,-4,0,-1,-2,0
60653822492,-3,-2,-1,0,-2,1,-5,-3
60653822492,1,-1,0,1,2,-3,-1,-11
60653844965,3,-3,-3,-1,-4,1,0,6
60653844965,2,-1,-2,-1,-3,-2,-1,3
60653845706,1,0,-1,-1,-5,1,-3,-2
60653845706,0,2,1,-2,-1,-1,-2,0
60653859283,3,0,-2,0,-1,2,-1,5
60653859283,0,-2,-1,-1,-2,-1,-2,-9
60653859960,-6,-1,0,-1,0,1,-2,-2
60653859960,0,-1,-3,1,2,-3,1,5
60653881769,-4,1,1,-1,4,-4,-2,-1
60653881769,-5,-1,-1,-3,1,-1,0,3
60653882442,-3,-2,-2,-3,-5,0,0,0
60653882442,-11,-6,-3,0,-2,-1,-1,0
60653905011,-7,4,0,-4,-2,-1,-3,-12
60653905011,-2,-2,-1,0,-1,-1,0,11
60653905665,-1,-3,-1,-2,-1,0,-2,-2
60653905665,0,-1,0,0,-2,-2,-1,2
60653918617,-4,-1,3,1,-3,-1,1,-3
60653918617,-2,0,-2,1,1,0,-1,-10
60653926777,1,-1,-3,0,3,-3,1,7
60653926777,4,-1,-1,-4,-3,-3,-1,4
60653941733,0,-5,-2,-2,-2,-1,2,3
60653941733,0,1,-2,-3,-5,-3,-1,-6
60653942483,1,-3,0,-4,-3,1,-1,0
60653942483,-1,0,3,0,-1,0,-1,-5
60653964906,-2,0,-2,-4,-3,-3,-1,0
60653964906,-2,-2,0,1,-2,0,0,-1
60653965667,1,2,0,-1,-2,-1,1,-1
60653965667,-1,0,-2,2,2,0,0,6
60653978599,2,-3,-5,0,2,-2,1,-1
60653978599,-2,-4,0,1,2,-2,1,-3
60653986758,2,-2,0,0,-1,-4,-2,-4
60653986758,5,-1,0,-2,-1,-2,-1,1
60654001670,7,-2,-3,0,-2,2,0,2
60654001670,3,2,-2,-3,0,-1,0,-1
60654002466,-2,3,0,1,0,-2,-2,-1
60654002466,-3,-1,-1,-1,-1,1,0,-3
60654024970,-3,-1,1,-5,2,-4,-5,-8
60654024970,-2,-2,-3,-3,-1,1,-1,6
60654025659,-7,0,-3,-1,-1,-1,-1,0
60654025659,-8,-2,-5,0,-2,-1,-4,-3
60654038610,-6,-3,-4,-1,-2,-1,0,1
60654038610,-2,-1,2,1,-2,-1,-3,-6
60654046790,-1,4,-2,-1,1,-1,0,-3
60654046790,0,0,-2,-1,1,-2,1,-1
60654061846,-1,0,-1,2,-1,3,-1,-2
60654061846,-1,0,0,-3,1,-3,0,-2
60654062448,2,-4,-2,-3,-3,-3,-3,0
60654062448,2,-2,-1,-2,-3,-3,-2,-3
60654085046,2,0,0,1,0,0,0,5
60654085046,-4,0,-1,0,1,3,-1,-9
60654085660,-3,-3,-4,1,-2,-4,-2,0
60654085660,-3,1,0,-2,-1,-3,1,-4
60654098615,0,-1,0,-1,-2,-1,-1,2
60654098615,1,-2,-2,-1,-3,-3,1,5
60654106757,-2,-4,0,-1,-3,-1,2,-1
60654106757,0,-3,3,-1,-5,-1,-1,0
60654121844,0,-3,-1,-2,-1,-2,0,-1
60654121844,4,3,-3,0,0,1,0,4
60654122460,-1,1,2,-2,0,-2,-1,-7
60654122460,-2,-1,-2,-2,-1,-1,0,6
60654145037,-2,-1,-3,-2,-3,-1,-1,-3
60654145037,-2,-4,-1,-1,-3,-1,-1,-3
60654145663,1,1,-3,0,-2,-2,3,-6
60654145663,-1,-3,-2,-3,-2,0,0,6
60654167432,0,1,0,2,3,-1,-1,-6
60654167432,-4,1,1,0,-1,-3,0,8
60654168115,-4,-3,-1,1,-1,1,-1,-5
60654168115,2,-2,-1,0,-2,-1,-2,-1
60654181721,-3,-1,0,-1,0,3,-2,2
60654181721,-1,-1,1,-4,-1,0,-1,-8
60654182471,-1,0,0,-3,1,3,-1,4
60654182471,-2,2,-2,1,0,2,1,-3
60654204949,0,0,-1,-2,-5,-3,-3,-5
60654204949,0,-3,-3,-2,-2,1,-4,-2
60654205633,0,-3,0,-2,-2,-2,-3,-1
60654205633,-2,1,-2,1,1,-1,0,-8
60654227508,-1,-1,0,1,-1,-3,1,8
60654227508,-1,0,-1,-1,1,0,-1,-8
60654228146,1,4,1,0,2,2,1,12
60654228146,1,1,0,-1,0,-3,-4,-4
60654241738,0,-1,-1,-1,0,-2,-1,0
60654241738,-1,-4,-1,-2,-1,-3,0,0
60654242440,1,1,-2,0,-2,-1,-4,-4
60654242440,-3,-1,-2,-1,-5,0,-1,-3
60654264992,-4,-2,0,-2,-1,1,-1,-2
60654264992,1,-2,2,-2,-1,-3,0,3
60654265637,-1,-3,-1,-1,-2,-3,0,2
60654265637,2,-4,-1,-2,-2,1,0,-2
60654287520,-1,-5,0,-1,-3,-3,-1,-4
60654287520,2,-2,-3,0,-5,-2,1,5
60654288161,1,-1,2,-2,1,-2,0,-5
60654288161,0,2,-1,-1,1,1,-1,6
60654301810,1,0,-1,-1,1,-1,-3,4
60654301810,-4,2,2,-1,-2,-2,-1,-5
60654302453,-2,0,-2,-2,-2,-3,-1,-1
60654302453,-1,0,-1,0,2,-3,-2,-2
60654324867,-1,-1,-4,-3,0,1,1,-3
60654324867,-1,-3,0,0,0,-2,-3,3
60654325607,-1,0,-1,1,-1,-1,-3,-2
60654325607,-2,-1,0,-1,-3,1,1,-3
