60843577490,-1,-4,-1,-4,-1,0,1,-4
60843577490,-3,-2,-3,1,0,0,-1,2
60843578139,-1,-1,-2,1,-2,-2,1,-2
60843578139,-1,0,0,0,-3,-1,1,-1
60843578909,-1,0,-1,-1,-2,-1,-1,-3
60843578909,-3,-1,-2,-3,-2,-2,1,-4
60843579727,-3,-2,0,-4,0,1,-1,-3
60843579727,-6,-3,-3,-3,1,-1,-4,-11
60843587036,-1,0,-1,0,-1,-3,0,6
60843587036,-2,0,-2,0,0,3,-3,-9
60843590461,-2,3,0,2,-5,0,0,-5
60843590461,-1,-3,0,1,-1,-1,2,9
60843606826,-3,0,-1,1,-3,0,-1,0
60843606826,-2,-3,-2,-1,-3,1,0,2
60843614184,-1,-3,1,-1,-1,1,-4,-4
60843614184,0,1,-4,-1,-1,0,-1,-1
60843621878,-2,-1,-1,0,0,-1,1,0
60843621878,2,1,0,-3,0,-1,2,2
60843645433,-3,-1,-4,-2,2,1,1,0
60843645433,1,-1,-1,0,-1,-1,-2,-2
60843646986,0,0,2,-1,-1,-2,-1,-2
60843646986,0,0,0,-2,-3,-2,-3,-3
60843682943,0,-1,1,0,1,1,-2,-7
60843682943,0,-2,-4,-1,1,-1,0,3
60843683655,-1,-2,-1,-1,1,-1,0,2
60843683655,-3,-3,-2,-3,-2,-2,1,0
60843684488,-4,-2,-3,-2,0,0,1,5
60843684488,-3,0,-1,-1,-2,0,-2,-6
60843687796,-1,-1,-1,-2,-1,-1,-1,-3
60843687796,0,-1,-3,-2,1,-1,-1,-2
60843695303,2,0,-1,-1,0,-2,0,0
60843695303,0,0,1,-2,-2,-3,0,2
60843704164,1,-2,-1,0,2,-2,-1,5
60843704164,3,-2,0,-1,-1,-2,-4,-1
60843710258,-3,1,-3,-2,-3,3,-3,-2
60843710258,0,-1,-1,-2,1,0,-2,0
60843725309,1,0,0,-1,-1,-1,0,-6
60843725309,1,-3,2,-1,3,-3,1,6
60843732825,0,-4,0,1,-3,-4,-2,3
60843732825,1,-1,-2,0,-3,-2,1,-2
60843755891,-1,3,0,1,-1,2,0,0
60843755891,-2,-1,-1,3,-1,0,-2,-8
60843756592,1,0,-1,-1,0,-2,-2,15
60843756592,-3,-3,-1,-1,1,-1,-1,-8
60843770930,1,-3,-2,-1,-1,-2,-3,-1
60843770930,-1,1,-1,-2,-2,0,-3,0
60843771636,0,1,-2,-2,-5,-3,-2,-5
60843771636,0,-3,-2,0,-1,-3,-3,-2
60843793437,-1,-2,0,-4,-2,-2,-3,-1
60843793437,2,-1,0,-3,-1,-3,-2,-4
60843794168,-2,-1,-2,-1,-2,0,-2,-1
60843794168,-2,-3,-4,-3,-3,0,2,2
60843815953,-1,-3,-4,-2,0,-3,0,-4
60843815953,-2,-2,-2,-3,1,-3,-1,-4
60843816613,1,-4,0,-4,0,0,-2,4
60843816613,-2,-1,1,1,-4,1,-2,-2
60843830984,-1,-3,-4,1,-5,1,-1,-2
60843830984,0,2,-3,-1,-2,-1,1,-2
60843831610,-2,-2,-4,-2,0,-1,-1,1
60843831610,-2,-3,-2,-1,-1,-3,-2,-5
60843853578,-3,-1,-2,1,-5,-2,2,3
60843853578,-2,-2,-2,-1,-3,-2,-1,-6
60843854142,-2,-1,-1,3,0,-2,1,-6
60843854142,-1,-2,-1,1,1,-3,-1,3
60843875913,-2,-1,-1,-1,1,0,-5,-5
60843875913,-5,-2,-3,0,1,0,1,0
60843876611,-1,-2,-1,-2,-1,-3,0,-7
60843876611,-2,3,-2,-1,-2,-2,1,-2
60843890815,-2,1,1,0,0,1,1,-8
60843890815,-1,1,1,-1,-1,0,1,1
60843891599,-2,-2,-1,-2,0,-1,0,-6
60843891599,1,-2,-1,0,-1,0,1,2
60843913327,-4,-2,-2,-2,1,-2,-2,-6
60843913327,-1,-3,0,-1,-4,3,-2,3
60843914080,-2,-2,0,-1,-2,1,-3,-6
60843914080,-2,-5,-1,-4,2,-1,-3,0
60843936004,2,0,0,0,1,2,1,7
60843936004,1,-1,-5,3,0,0,1,0
60843936654,-2,0,-3,-2,-3,-3,-1,-4
60843936654,0,2,-2,-2,-1,1,1,-1
60843950940,0,-2,-2,-3,-3,-3,-1,-1
60843950940,0,-2,-1,2,-1,-2,-2,-3
60843951616,-1,-1,2,0,1,0,-1,-5
60843951616,-1,-2,0,-2,0,1,-4,0
60843973502,-2,0,0,-1,-1,-2,0,-2
60843973502,0,2,-3,0,-2,-1,0,3
60843974142,2,0,1,3,-3,0,0,-3
60843974142,1,1,-1,1,-2,0,-2,-2
60843995991,1,1,-4,-1,1,-1,-2,0
60843995991,-2,1,-2,-2,-2,-4,-2,-4
60843996637,0,-2,-1,-2,2,0,-1,1
60843996637,-1,-2,-2,-5,-2,-3,-1,-1
60844010812,-1,-3,0,-2,-2,-1,1,-2
60844010812,3,-4,3,1,0,-2,-2,-1
60844011633,-2,0,-4,0,0,-1,-2,1
60844011633,-1,-2,3,1,-1,1,2,-2
60844033454,-4,-1,-2,-2,-4,-2,-1,-2
60844033454,-3,-1,-2,-3,3,-2,-2,-7
60844034160,-4,-1,-1,0,0,-2,-1,3
60844034160,2,0,-2,-1,0,1,0,2
60844056054,-1,-2,-1,1,-4,0,-1,1
60844056054,0,-1,0,-1,-3,-2,-1,7
60844056654,-3,2,1,0,-3,-6,-1,-2
60844056654,-3,0,-1,-1,0,0,-1,-3
60844070319,-2,-1,-1,1,1,1,-3,-8
60844070319,-2,-4,-1,-4,-2,-5,-2,1
60844078451,1,-5,-1,-1,-1,7,-3,4
60844078451,0,-1,0,1,0,2,5,0
60844093500,0,-1,-2,-1,0,0,0,4
60844093500,0,2,-1,-3,-3,-5,-1,0
60844094145,0,-2,-3,-4,-1,-3,1,-5
60844094145,-7,-2,-1,-1,-1,1,-5,-2
60844115838,4,-1,1,-3,-2,-1,-5,-1
60844115838,-2,0,-2,-2,-1,0,5,-3
60844116629,4,2,0,-1,-2,-2,4,4
60844116629,-1,-3,-3,-1,0,0,0,10
60844138426,-15,-4,1,-2,0,-9,-9,-19
60844138426,3,1,1,1,0,7,13,-4
60844139112,13,1,-1,-2,-3,-9,-26,-15
60844139112,8,1,-1,1,1,7,25,2
60844154803,11,-1,2,1,0,-5,-15,1
60844154803,-12,-3,-3,0,0,-5,-6,1
60844155610,-7,-2,-2,0,-1,-6,-3,-5
60844155610,-4,1,-1,1,-1,12,-8,-5
60844175879,-8,-2,-1,-2,-7,-5,17,14
60844175879,17,-3,-3,-2,-3,0,6,4
60844176689,-18,-3,0,1,6,3,-18,-11
60844176689,2,-1,-1,-1,-5,-13,-18,5
60844190281,6,1,-1,-1,0,5,18,2
60844190281,-6,0,2,-3,-1,0,-16,-2
60844197731,2,-3,-2,-1,-4,-8,9,-3
60844197731,-4,1,-4,-2,-4,-3,-8,-8
60844213516,2,2,-2,-4,-4,-6,-15,-6
60844213516,-1,4,0,3,2,3,6,7
60844214121,-1,-1,0,0,0,-1,4,1
60844214121,1,-8,-1,-2,1,-10,0,-25
60844235926,2,0,-2,0,2,10,-7,7
60844235926,-1,-1,-4,0,-2,-7,-16,0
60844236627,-2,-5,0,-1,0,3,5,0
60844236627,-8,1,-1,-3,-8,-1,-6,2
60844250157,-3,-1,-3,-1,1,-8,4,-2
60844250157,-3,3,-2,0,3,3,-7,-7
60844258343,5,1,1,-1,0,3,1,6
60844258343,1,-12,-1,0,0,-8,-1,6
60844273461,-6,-4,0,2,0,1,4,-15
60844273461,22,5,3,-2,-2,1,11,9
60844274117,-8,2,-4,-2,-1,1,2,-1
60844274117,9,17,-1,-3,0,-7,1,-5
60844295916,-1,-15,-5,-3,-2,3,9,11
60844295916,-7,-10,-1,-1,-2,-7,-2,1
60844296592,-6,1,3,4,0,10,0,-9
60844296592,0,4,2,-1,-5,-17,-13,0
60844310141,-3,4,-3,-2,3,19,1,-7
60844310141,-1,2,1,-1,0,-1,6,4
60844318442,-1,-17,-2,-3,-6,-8,-2,-4
60844318442,-5,-2,1,-1,1,-4,8,-6
60844341616,3,0,3,0,4,9,-23,-10
60844341616,-7,-10,-1,-2,-3,7,7,22
60844342372,-2,7,-1,-7,-4,-2,3,2
60844342372,0,0,-3,-1,-1,2,7,-4
60844355909,-1,2,-2,-1,-6,-9,-7,0
60844355909,-2,-1,-4,-1,-2,-5,3,-13
60844356639,7,3,0,1,1,-3,-26,5
60844356639,-3,-4,-2,-4,-2,1,11,2
60844370223,-2,-1,2,1,8,5,7,9
60844370223,-5,-1,-1,1,-6,-6,-20,-5
60844385936,-2,0,-2,0,-2,-9,-5,-7
60844385936,1,-4,-1,2,1,13,11,10
60844393333,-4,0,-2,-3,-8,-18,-9,-5
60844393333,0,2,-1,-3,-1,1,-9,-2
60844394079,0,-2,-3,-2,1,7,2,-2
60844394079,0,-2,1,0,-2,-3,-7,2
60844415931,9,-1,-3,0,1,4,-12,3
60844415931,-1,-2,-2,-1,-4,-5,3,-16
60844416589,-4,1,-3,0,0,6,6,6
60844416589,2,-2,-1,-1,2,-3,-9,-5
60844430317,-2,-2,1,-2,-4,-15,-12,-1
60844430317,-2,-2,0,-1,2,0,-4,-2
60844438432,3,-2,-1,-1,-4,-7,1,6
60844438432,-5,7,0,3,2,4,5,7
60844453465,0,3,0,-1,-5,-2,5,0
60844453465,-5,1,-2,-2,0,0,-13,-3
60844454148,1,1,-3,-4,-5,-13,9,13
60844454148,3,-2,-3,-3,-5,-9,-30,-6
60844475773,0,-2,4,4,8,6,10,1
60844475773,3,4,2,2,2,0,4,-6
60844476577,2,3,-4,-2,-2,-5,-3,-6
60844476577,0,-7,0,-1,0,10,4,8
60844499136,-5,2,-1,0,-4,-2,24,4
60844499136,-6,-6,-2,-1,1,-4,15,-2
60844499816,-2,-4,1,1,1,6,-8,-13
60844499816,3,-2,-1,0,-1,-3,-6,-5
60844513394,-4,-4,-4,-2,-1,3,-6,4
60844513394,7,-1,-2,1,-1,-10,-8,0
60844514098,-9,-1,-4,1,1,2,24,5
60844514098,1,-4,0,0,0,2,-19,-4
60844535875,0,-4,0,-3,-3,-3,11,-1
60844535875,0,-2,-2,-2,-2,8,-1,-3
60844536620,4,2,-1,0,-2,-1,-2,14
60844536620,-4,0,-1,0,0,1,9,-5
60844559147,-1,1,-2,2,-1,-7,-11,-8
60844559147,-3,-3,0,3,2,12,15,8
60844559784,-1,-4,1,-2,-3,-5,16,-13
60844559784,-1,-1,-2,-2,1,-2,8,-9
60844573391,2,4,0,-4,-2,-3,17,8
60844573391,-2,3,3,-3,-2,6,-29,-15
60844574088,-2,-11,0,-2,0,3,-2,14
60844574088,-3,-20,-2,-1,-3,-5,18,-2
60844595823,-4,2,-1,-1,0,10,7,-5
60844595823,-1,1,-2,0,-2,-4,20,-3
60844596611,1,4,-1,1,0,3,-18,-5
60844596611,5,6,0,-1,-2,2,-4,14
60844619025,-9,-5,-5,-3,-3,-5,-6,-16
60844619025,-5,-5,0,0,-6,-13,0,-1
60844619788,-3,-2,0,0,1,6,-7,-12
60844619788,-1,-1,-2,-1,0,-5,-11,5
60844633434,5,-2,-1,-3,-2,-4,-3,7
60844633434,-2,-1,-4,-1,-1,-7,-20,-6
60844634052,0,0,-2,-1,1,-6,-19,-3
60844634052,-2,4,0,4,0,-1,-3,-2
60844655359,1,-2,-1,1,-3,-4,-8,-3
60844655359,2,0,-5,-3,0,-3,3,10
60844664149,-1,2,2,1,-1,2,-5,-7
60844664149,-3,-17,-5,-3,-1,7,12,-3
60844678363,-4,1,1,-1,-5,0,2,4
60844678363,0,2,3,1,-2,4,3,-9
60844685086,-3,6,0,0,2,5,5,7
60844685086,-3,11,2,2,3,-1,-1,-11
60844701611,1,-9,-3,1,3,2,9,12
60844701611,-4,-3,-1,-2,-1,-5,-4,-1
60844703103,3,-4,-4,-2,0,1,10,3
60844703103,5,14,2,-1,0,4,1,2
60844715127,-2,-4,-5,-1,-4,-3,-9,3
60844715127,-1,2,-1,-2,2,-6,-13,-6
60844724172,-5,-5,-3,-3,-2,-1,16,-5
60844724172,-4,-4,0,-3,-2,-5,-14,1
60844738454,3,2,1,0,-1,-2,8,-12
60844738454,1,4,-1,-2,-2,5,11,18
60844745194,2,0,2,-3,-4,-10,-18,-7
60844745194,-3,-5,-7,-3,0,-9,-29,-12
60844761853,0,2,0,-2,2,-3,-2,5
60844761853,-6,2,-2,1,-4,-3,1,-14
60844763126,3,-1,1,0,-4,-4,0,5
60844763126,-9,-2,0,-3,-6,4,17,0
60844775143,2,5,1,0,-4,-2,-7,15
60844775143,-4,-3,-4,-3,0,1,1,-6
60844784156,1,-3,-3,-2,0,7,18,13
60844784156,-2,-2,-1,1,1,0,-2,-5
60844798456,5,-3,0,-4,1,1,-5,-1
60844798456,4,-4,-3,-3,-2,6,5,2
60844805166,11,-1,-4,-2,-4,-14,-10,-9
60844805166,6,-2,-3,-1,2,3,-15,-4
60844821641,4,1,0,2,-3,1,5,-9
60844821641,19,-5,2,1,-1,-2,-14,4
60844823105,26,-17,-2,-2,-2,3,-6,-8
60844823105,27,4,0,-1,-1,-3,13,7
60844835261,-17,-2,0,-4,0,-5,-12,-3
60844835261,-36,-2,2,0,0,-5,-6,-2
60844844172,-43,6,2,-1,0,0,-2,-1
60844844172,-32,-3,-2,-3,-5,-4,7,-4
60844858443,-17,-2,-1,0,2,5,-21,1
60844858443,-9,0,-2,0,-1,2,14,1
60844865274,-1,2,0,1,3,-1,3,10
60844865274,0,-1,-1,0,-1,-8,-6,-2
60844881546,2,-1,-1,1,-1,12,28,8
60844881546,9,1,-2,-1,0,-2,-10,-11
60844883130,1,2,0,0,-3,2,-5,-1
60844883130,-8,1,-1,-3,-2,-3,0,6
60844895713,5,0,-1,-2,-1,-9,3,-10
60844895713,6,0,-2,1,0,-2,-8,-7
60844904156,17,2,2,3,4,12,8,10
60844904156,10,-5,0,-2,-4,-9,2,-8
60844918993,4,5,-2,-2,-3,-13,-9,10
60844918993,-7,-18,0,-2,-1,3,0,0
60844920594,-11,1,-3,-3,0,0,4,-6
60844920594,-8,6,-2,-3,-5,4,15,7
60844941795,-4,-2,-3,0,-1,-5,-14,-22
60844941795,-2,2,1,0,2,10,9,19
60844943152,-7,1,0,0,0,-11,-5,-5
60844943152,-1,-1,-2,-2,-1,1,-4,4
60844955295,0,-1,-5,2,-1,3,4,-2
60844955295,-1,2,-4,0,-3,-5,-1,7
60844964154,0,0,-2,-2,-3,-7,-4,-7
60844964154,-2,-5,-1,2,0,-3,-11,-6
60844978971,-2,2,1,-2,1,-4,4,9
60844978971,0,-2,-1,-3,-1,-5,-12,-17
60844980602,5,1,1,-1,0,6,-2,1
60844980602,0,-2,-1,1,0,-3,-3,-5
60845001502,-3,-4,-4,-1,-5,0,-11,-7
60845001502,5,3,-1,5,2,11,18,6
60845003108,-2,0,-2,-1,-4,-5,4,-11
60845003108,-3,2,-2,-1,1,-3,6,1
60845023783,3,-5,4,2,0,2,-5,-6
60845023783,5,1,0,-6,-2,-13,2,6
60845030117,-7,0,-2,-1,-2,-6,-16,-3
60845030117,1,-5,-1,0,-1,2,2,2
60845039132,-2,9,-1,0,3,8,-2,-12
60845039132,-1,-12,-7,-6,-3,0,5,4
60845040682,-3,3,-1,0,-2,-7,-3,0
60845040682,2,3,1,1,2,1,-24,-2
60845061659,-1,-3,2,0,-1,-1,3,4
60845061659,-6,4,0,2,0,0,4,-8
60845063101,0,-1,-1,-1,-1,2,-5,0
60845063101,3,-3,-4,0,-2,-1,8,0
60845084095,-3,-9,-2,1,0,6,17,-1
60845084095,5,3,3,1,1,0,-10,-3
60845085620,5,-1,1,-1,0,3,11,11
60845085620,-3,0,3,-4,2,3,8,3
60845099120,3,-3,-1,-3,-1,-5,-4,-1
60845099120,-3,-2,-5,-1,-4,-1,-8,-4
60845100618,2,0,-3,-1,-3,-3,0,-1
60845100618,1,1,-1,1,-2,-7,11,3
60845121594,0,-1,-2,3,0,-4,2,3
60845121594,-1,1,1,-3,0,-3,8,5
60845123111,-6,-6,1,-2,0,-4,-1,-19
60845123111,-3,-5,-2,-2,0,2,-17,3
60845144040,2,-5,0,-4,-1,-5,3,3
60845144040,-1,0,-1,-1,-1,-1,-3,-2
60845145624,-2,2,-2,-1,-1,-5,-4,4
60845145624,-9,2,0,0,-2,0,0,-8
60845158464,-1,1,-2,-2,-5,-2,-1,-3
60845158464,0,-1,0,2,-3,-2,-4,-3
60845165313,-4,-5,-2,0,1,1,3,4
60845165313,8,-2,-3,-1,-2,-3,2,-1
60845181636,-8,1,-3,-1,-1,-1,-7,-6
60845181636,2,1,1,-3,-1,1,-5,8
60845183108,-5,0,-1,-2,0,0,1,-2
60845183108,-2,-4,0,1,-1,1,2,0
60845204108,-6,-1,-3,-3,-1,-2,-5,-4
60845204108,1,0,-1,1,-1,-3,-1,1
60845205652,0,0,-1,-1,-1,0,3,-3
60845205652,-1,-1,0,-2,-1,1,-4,1
60845217751,3,-1,0,-2,-1,-1,0,-4
60845217751,-5,-3,-4,0,3,-1,-1,-13
60845226655,9,-1,-2,0,-1,0,-1,11
60845226655,-3,-1,1,-4,-3,-1,3,5
60845241631,-1,0,1,-1,1,-2,-9,7
60845241631,-1,2,0,-2,1,1,1,-12
60845243120,1,-2,-3,-3,-3,0,0,5
60845243120,-4,1,-1,1,-1,-2,2,-2
60845263999,-4,-1,-3,-4,0,-1,-2,3
60845263999,1,1,-2,-1,-2,-4,-3,-3
60845265604,1,-2,-3,0,3,0,-2,-3
60845265604,-7,-4,-1,-1,0,0,-3,-3
60845277732,1,-1,0,0,1,0,-2,5
60845277732,-7,-2,0,-2,-2,-6,-3,2
60845286667,1,-1,0,1,1,5,0,-2
60845286667,-5,-3,-3,-3,-4,1,0,-1
60845309113,2,-1,-1,-2,-5,-1,-2,0
60845309113,7,-2,-2,1,-3,-1,0,-4
60845310595,-6,-2,-3,-3,-4,-6,0,0
60845310595,6,-1,-2,0,2,1,0,-12
60845323981,5,-1,0,-2,-3,-2,0,2
60845323981,-8,-2,-3,-2,1,3,0,1
60845325590,5,1,1,-2,-3,-3,-2,11
60845325590,-2,-1,0,-3,0,-1,2,-5
60845337695,-4,-1,0,0,-4,0,0,-2
60845337695,4,-2,0,0,-3,1,-2,-2
60845346619,0,-2,-1,0,-1,-4,-4,-12
60845346619,-16,0,-1,-3,-1,0,3,0
60845361588,-1,-2,-1,4,-1,-5,-1,-12
60845361588,4,0,0,2,1,4,1,15
60845363079,-3,-2,-2,-2,-2,-3,1,-10
60845363079,4,1,-2,0,-1,-4,-1,10
60845384196,-3,0,0,1,1,1,0,-6
60845384196,-3,-2,-1,-1,0,-2,-2,-6
60845385614,4,-4,-3,-2,-1,3,1,-4
60845385614,3,4,1,-1,-1,-2,-4,-1
60845397773,-4,5,0,-3,-1,-3,3,2
60845397773,8,4,2,-2,-2,-3,-7,8
60845406624,-8,0,2,-2,1,0,3,2
60845406624,-6,-4,-2,-2,-1,-2,-1,-18
60845421466,6,-3,0,-4,-2,2,-3,-1
60845421466,-11,-4,-4,-1,0,-3,1,3
60845423077,13,1,1,2,-1,5,-6,2
60845423077,-5,-2,0,1,0,1,1,2
60845443986,-3,-4,-1,1,0,-3,-5,-1
60845443986,-9,-3,-3,-3,-2,-3,1,-20
60845445592,-15,2,0,-3,-3,-1,1,19
60845445592,17,-2,-2,-2,-2,-4,-5,-4
60845457693,4,-2,-2,-2,0,-2,3,8
60845457693,-8,-2,-3,-1,-4,0,-16,-11
60845466716,-5,-2,-2,0,0,-3,5,2
60845466716,-2,1,-2,-2,-2,-2,-6,-8
60845481633,-3,0,-3,-1,0,-1,3,-12
60845481633,7,1,0,-3,1,0,0,11
60845483100,-23,-1,-2,-2,1,-2,0,-23
60845483100,9,0,-1,-2,-2,-3,2,20
60845504085,1,0,-2,1,-1,-1,4,-4
60845504085,2,-1,-2,-1,-1,-4,-1,-3
60845505577,3,-3,-1,0,2,0,-6,-3
60845505577,-12,-3,-1,1,-2,1,4,-3
60845517844,9,-3,-1,-2,-1,3,4,11
60845517844,2,0,-1,-1,0,-3,2,2
60845526666,-1,0,-1,1,-3,-3,-2,5
60845526666,-9,-1,1,0,-1,2,3,-14
60845541648,-5,0,2,-2,-5,-4,-6,1
60845541648,2,-3,0,0,0,0,2,6
60845543128,8,0,-2,-2,0,0,-1,0
60845543128,9,1,-2,0,1,1,1,4
60845564099,-4,0,1,-3,1,-1,-4,-1
60845564099,-7,0,2,-3,-1,5,-3,-4
60845565592,-2,0,-1,-3,-6,-9,0,-4
60845565592,6,1,0,1,1,0,-6,8
60845577822,-13,-2,0,-1,-1,-4,-4,-15
60845577822,6,0,1,-1,0,1,5,6
60845586603,5,-2,-1,-2,-1,-2,0,0
60845586603,-3,-2,-1,-1,-2,-1,-10,-34
60845600910,-1,-1,-2,0,0,2,18,25
60845600910,-13,-1,-1,-2,0,-1,-6,-21
60845607767,13,4,0,-1,0,-1,-1,11
60845607767,-1,-3,-2,-2,0,-4,1,10
60845624138,-2,-2,-1,0,-1,-2,-5,-31
60845624138,2,-3,-1,0,-2,0,7,26
60845625619,0,-2,1,1,2,3,1,5
60845625619,-8,-1,1,-3,-1,-3,-2,-19
60845637765,2,-4,-2,-1,-4,-4,-8,12
60845637765,3,3,-1,-3,-2,-1,3,-24
60845646626,0,0,-4,1,2,0,-2,-2
60845646626,11,2,-5,2,-1,0,0,27
60845661903,-8,-2,-3,-1,-4,-3,-8,-15
60845661903,-4,-1,-2,0,-1,-3,0,-21
60845667583,-3,-2,-1,-3,-1,1,-3,16
60845667583,-4,-1,3,-1,0,-1,2,-3
60845684097,7,2,1,1,1,2,4,3
60845684097,-6,-5,0,0,0,-4,-3,15
60845685601,-5,-4,-1,-3,-2,-1,-2,-7
60845685601,19,-3,-4,-1,1,-2,2,0
60845697719,-10,-2,-1,0,-2,-2,-4,14
60845697719,3,0,0,-1,2,-1,3,5
60845706600,-7,-1,2,2,0,3,6,-1
60845706600,-11,-1,0,-1,0,2,-6,-9
60845720966,5,-1,-3,-1,2,-3,-1,12
60845720966,0,0,-3,0,-2,-2,-2,-15
60845727814,3,1,1,0,-2,-2,-1,-8
60845727814,0,2,1,0,-3,0,-1,33
60845744110,2,-1,-2,-3,-4,0,0,-8
60845744110,11,1,-6,0,-2,-1,0,5
60845745643,-24,-11,-8,-3,-3,-5,-7,-8
60845745643,0,2,-3,-5,-3,-3,2,0
60845757688,-2,-1,1,1,2,2,-1,9
60845757688,-2,-4,-3,0,-2,-2,1,9
60845772802,4,6,5,2,-1,3,2,1
60845772802,-11,-17,-6,-2,0,-1,-4,-18
60845780891,9,3,-1,2,-1,1,3,45
60845780891,-3,-5,-17,-1,-1,-2,-3,-20
60845787747,7,-2,-4,-2,-1,-2,1,19
60845787747,-5,2,2,-1,0,-1,1,-8
60845804108,-1,-5,1,0,1,-2,-5,-26
60845804108,-7,0,3,-3,-1,0,3,14
60845805604,3,-2,1,-3,-2,-1,-3,-7
60845805604,2,-1,-3,0,-1,1,-1,0
60845817763,2,0,-3,-3,1,0,-2,8
60845817763,1,3,6,-1,-2,-2,0,1
60845826627,-5,0,-2,0,-3,0,0,-14
60845826627,-4,1,2,0,-2,-2,4,-1
60845840905,0,1,-2,-2,-2,-2,-1,-21
60845840905,3,-2,3,1,0,-1,1,14
60845847744,-1,0,-3,0,-2,-4,-4,-21
60845847744,-2,1,-2,0,-1,0,-4,-2
60845864039,-4,-2,-3,-2,2,-1,-1,-12
60845864039,0,-7,-2,1,0,0,0,21
60845865601,-2,-4,-1,0,-1,0,-1,-8
60845865601,-2,2,2,-1,0,-3,0,-1
60845877650,0,3,0,-3,-2,0,-2,-4
60845877650,-1,1,2,-3,0,-3,-2,-3
60845886605,-2,0,-2,-2,0,-2,-2,-2
60845886605,-1,-1,-1,-2,-1,0,0,4
60845901041,-3,-4,-1,-2,1,0,-1,1
60845901041,0,3,-2,-2,-1,-1,0,-2
60845907655,-5,-2,1,-1,-1,-1,-2,-2
60845907655,-5,-1,1,-1,-1,-1,1,-20
60845923977,1,-2,0,-1,-6,-4,-2,-8
60845923977,-2,-4,2,-1,-3,1,2,-3
60845925611,-1,3,-2,-2,-1,-2,2,-15
60845925611,6,3,-3,0,1,-1,1,35
60845946635,-4,0,-2,1,0,1,-3,-6
60845946635,2,1,-2,-1,-2,0,-5,-11
60845948272,1,-1,-1,0,1,0,-2,13
60845948272,-5,-3,-2,-3,-3,-3,-4,-7
60845960887,-3,-1,-1,0,0,-2,-2,-9
60845960887,1,0,-1,0,1,0,-2,-4
60845967662,3,0,0,0,0,0,2,10
60845967662,0,-3,0,-1,-1,0,2,-7
60845984060,-1,-2,-1,-1,-2,0,0,-7
60845984060,-1,1,0,-1,0,-3,-1,19
60845985572,-2,-1,0,-2,0,-2,0,-11
60845985572,-1,-2,-3,-1,0,1,0,2
60846006457,6,-2,-2,-1,-2,0,-2,19
60846006457,-3,-4,1,1,-4,-2,-2,-9
60846008143,5,-1,0,1,-3,-2,0,5
60846008143,-10,0,1,0,-1,-3,1,-10
60846020932,-1,-2,0,-2,-3,-4,2,0
60846020932,-2,2,-1,-1,0,-1,-2,-3
60846027663,-3,-1,-1,-1,-1,-2,0,4
60846027663,0,-2,-2,-2,-3,1,-3,-5
60846044136,2,-1,-4,-1,0,1,-1,1
60846044136,-8,-4,-2,-1,-2,-1,-4,-4
60846045568,-2,0,0,-2,-4,-1,0,-10
60846045568,3,2,0,1,-1,-3,0,12
60846066536,-7,-2,1,0,-2,-4,-2,-4
60846066536,0,0,0,1,1,-3,1,-1
60846068102,0,-1,-2,0,0,0,1,3
60846068102,0,-3,0,-3,1,-2,-5,-5
60846080185,-1,2,1,-2,0,-2,-3,-3
60846080185,0,-1,-1,-1,-1,1,-1,0
60846089131,-1,-3,-3,1,0,0,-2,1
60846089131,-1,-2,-1,-1,-1,-5,0,-5
60846104087,-4,0,-4,-4,-1,-1,-1,-6
60846104087,-1,1,-2,-4,-3,1,-1,-6
60846105607,-1,-2,-2,-1,-2,1,-1,-5
60846105607,5,0,-3,0,-1,0,0,7
60846126585,0,-1,-1,2,-1,0,-3,-7
60846126585,0,0,-1,-4,-3,-3,0,6
60846128126,2,-4,-1,-1,-1,0,-3,0
60846128126,-3,-3,-1,-2,-2,1,-3,-3
60846140268,-1,-2,1,-2,-1,-2,-5,-5
60846140268,0,1,1,-3,-1,-1,-4,-9
