62247824016,0.63671875,-0.72705078125,-0.314453125
62247840318,0.6328125,-0.73583984375,-0.302734375
62247861865,0.630859375,-0.7333984375,-0.30419921875
62247885289,0.85595703125,-0.75634765625,-0.1787109375
62247900460,1.28173828125,-0.69384765625,0.14697265625
62247921776,1.240234375,-0.58447265625,0.02783203125
62247945486,1.26904296875,-0.640625,0.23193359375
62247960470,0.9189453125,-0.7890625,0.13134765625
62247981865,0.28173828125,-0.8994140625,-0.388671875
62248021086,-0.00244140625,-0.83544921875,-0.85009765625
62248023156,0.400390625,-0.66455078125,-0.7265625
62248035426,1.048828125,-0.56494140625,-0.1611328125
62248053205,1.2509765625,-0.6513671875,0.2578125
62248073079,0.79833984375,-0.634765625,-0.455078125
62248102464,0.5908203125,-0.71533203125,-0.31689453125
62248146557,0.62353515625,-0.73095703125,-0.3193359375
62248156773,0.63525390625,-0.7333984375,-0.30859375
62248157434,0.63671875,-0.732421875,-0.3125
62248170413,0.70361328125,-0.728515625,-0.32861328125
62248191589,-0.05419921875,-0.890625,-0.5390625
62248214129,1.1025390625,-0.73974609375,0.17431640625
62248231859,0.9013671875,-0.794921875,0.107421875
62248251572,0.33935546875,-0.89208984375,-0.333984375
62248274066,-0.00439453125,-0.849609375,-0.82470703125
62248291896,0.3427734375,-0.67919921875,-0.7587890625
62248311622,1.01953125,-0.5712890625,-0.193359375
62248334089,1.2578125,-0.6474609375,0.2568359375
62248351872,0.7255859375,-0.83740234375,0.00732421875
62248371720,0.390625,-0.8681640625,-0.30419921875
62248394073,0.6337890625,-0.67333984375,-0.34228515625
62248411834,0.64306640625,-0.73828125,-0.31201171875
62248431538,0.63037109375,-0.734375,-0.30615234375
62248454063,0.63134765625,-0.73876953125,-0.3046875
62248471916,0.634765625,-0.73681640625,-0.30078125
62248491563,0.6318359375,-0.72802734375,-0.30712890625
62248514014,0.63330078125,-0.72607421875,-0.31005859375
62248531927,0.6357421875,-0.73095703125,-0.3037109375
62248552897,0.6337890625,-0.73876953125,-0.310546875
62248574034,0.63427734375,-0.73681640625,-0.310546875
62248591903,0.63427734375,-0.736328125,-0.3115234375
62248612893,0.63037109375,-0.73095703125,-0.3115234375
62248634092,0.63330078125,-0.72509765625,-0.31201171875
62248659399,0.6318359375,-0.73486328125,-0.3056640625
62248672873,0.63720703125,-0.73583984375,-0.31103515625
62248694010,0.63037109375,-0.73876953125,-0.30859375
62248711854,0.634765625,-0.7353515625,-0.30126953125
62248732943,0.6337890625,-0.73291015625,-0.3134765625
62248754156,0.6337890625,-0.7333984375,-0.30859375
62248771940,0.63232421875,-0.72802734375,-0.30810546875
62248792854,0.6337890625,-0.734375,-0.30859375
62248814048,0.640625,-0.73828125,-0.31689453125
62248831835,0.63330078125,-0.74169921875,-0.30908203125
62248852937,0.6533203125,-0.75048828125,-0.32373046875
62248873980,0.640625,-0.75390625,-0.3173828125
62248891899,0.6328125,-0.75048828125,-0.32861328125
62248912937,0.62060546875,-0.73388671875,-0.314453125
62248934121,0.62744140625,-0.71875,-0.306640625
62248959391,0.63525390625,-0.71875,-0.28662109375
62248974395,0.638671875,-0.72900390625,-0.2890625
62248994086,0.63330078125,-0.7509765625,-0.2880859375
62249011850,0.63037109375,-0.76611328125,-0.2958984375
62249034370,0.640625,-0.7587890625,-0.31005859375
62249054119,0.6396484375,-0.7548828125,-0.31591796875
62249071897,0.6279296875,-0.76513671875,-0.3203125
62249094362,0.626953125,-0.7724609375,-0.32763671875
62249114111,0.61279296875,-0.76904296875,-0.3134765625
62249137416,0.59716796875,-0.7646484375,-0.30078125
62249153561,0.603515625,-0.80126953125,-0.29248046875
62249176041,0.59521484375,-0.8203125,-0.296875
62249197160,0.5888671875,-0.81982421875,-0.30224609375
62249213592,0.595703125,-0.82470703125,-0.29541015625
62249236061,0.59423828125,-0.83740234375,-0.2919921875
62249257079,0.57421875,-0.86767578125,-0.2900390625
62249272871,0.56103515625,-0.90283203125,-0.30859375
62249296054,0.53857421875,-0.9296875,-0.31591796875
62249317218,0.52001953125,-0.93701171875,-0.3076171875
62249332982,0.50732421875,-0.9208984375,-0.30224609375
62249356078,0.4892578125,-0.9287109375,-0.29150390625
62249377295,0.46875,-0.94921875,-0.28076171875
62249392888,0.43896484375,-0.95458984375,-0.279296875
62249416028,0.40283203125,-0.94970703125,-0.28369140625
62249437282,0.388671875,-0.95361328125,-0.27978515625
62249452910,0.36474609375,-0.97119140625,-0.248046875
62249476061,0.3134765625,-0.98388671875,-0.2451171875
62249498536,0.28076171875,-0.966796875,-0.2470703125
62249521070,0.25830078125,-0.95947265625,-0.24365234375
62249536068,0.216796875,-0.962890625,-0.23828125
62249558551,0.18701171875,-0.9755859375,-0.22119140625
62249581070,0.1689453125,-0.9853515625,-0.228515625
62249596045,0.1435546875,-0.98388671875,-0.203125
62249618561,0.13623046875,-0.97705078125,-0.20703125
62249639620,0.1162109375,-0.9677734375,-0.19287109375
62249656061,0.08740234375,-0.9541015625,-0.1923828125
62249678544,0.060546875,-0.9404296875,-0.193359375
62249699709,0.02880859375,-0.9560546875,-0.18115234375
62249716056,0.0078125,-0.9541015625,-0.17822265625
62249738540,-0.0029296875,-0.939453125,-0.17236328125
62249759676,-0.0205078125,-0.91650390625,-0.17724609375
62249776045,-0.0458984375,-0.8896484375,-0.17236328125
62249798487,-0.064453125,-0.88525390625,-0.173828125
62249819715,-0.0947265625,-0.89013671875,-0.17431640625
62249836020,-0.09814453125,-0.908203125,-0.158203125
62249858572,-0.1005859375,-0.921875,-0.150390625
62249879707,-0.1064453125,-0.92822265625,-0.1513671875
62249896032,-0.109375,-0.9345703125,-0.15380859375
62249918556,-0.09716796875,-0.93017578125,-0.140625
62249939749,-0.076171875,-0.92236328125,-0.12841796875
62249956062,-0.06787109375,-0.923828125,-0.13330078125
62249978543,-0.0693359375,-0.94873046875,-0.1298828125
62249999745,-0.060546875,-0.9619140625,-0.1201171875
62250016048,-0.06640625,-0.98388671875,-0.1318359375
62250038539,-0.08349609375,-0.994140625,-0.126953125
62250059524,-0.1015625,-0.98779296875,-0.12841796875
62250076065,-0.1162109375,-0.9921875,-0.1298828125
62250098562,-0.1240234375,-1.009765625,-0.12890625
62250119622,-0.1259765625,-1.0302734375,-0.1328125
62250136057,-0.1328125,-1.04296875,-0.13623046875
62250158511,-0.13134765625,-1.025390625,-0.1455078125
62250179730,-0.12353515625,-1.0068359375,-0.14208984375
62250196061,-0.119140625,-1.01953125,-0.14013671875
62250218539,-0.11083984375,-1.02685546875,-0.1435546875
62250239683,-0.10693359375,-1.033203125,-0.140625
62250256070,-0.1064453125,-1.03173828125,-0.1455078125
62250278508,-0.10791015625,-1.01416015625,-0.150390625
62250299540,-0.10546875,-0.99853515625,-0.15478515625
62250316070,-0.10791015625,-1.0029296875,-0.1513671875
62250338557,-0.09765625,-1.01025390625,-0.1484375
62250367351,-0.09912109375,-1.00830078125,-0.154296875
62250376040,-0.09912109375,-1.00341796875,-0.1494140625
62250398577,-0.1005859375,-1.00341796875,-0.14794921875
62250421034,-0.09326171875,-0.9951171875,-0.14208984375
62250436034,-0.09423828125,-0.9814453125,-0.146484375
62250458563,-0.09130859375,-0.98583984375,-0.14794921875
62250481037,-0.0888671875,-0.99951171875,-0.1435546875
62250496015,-0.08740234375,-1.0009765625,-0.14794921875
62250518565,-0.08642578125,-0.9794921875,-0.1455078125
62250541036,-0.09423828125,-0.97021484375,-0.15087890625
62250555362,-0.09228515625,-0.98681640625,-0.14892578125
62250578560,-0.08251953125,-1.00927734375,-0.14990234375
62250601031,-0.08203125,-1.01953125,-0.14697265625
62250622137,-0.087890625,-1.0078125,-0.1474609375
62250638531,-0.09814453125,-0.99755859375,-0.15185546875
62250661041,-0.09765625,-1.009765625,-0.154296875
62250675430,-0.0927734375,-1.01171875,-0.146484375
62250698567,-0.09130859375,-1.0068359375,-0.16015625
62250721069,-0.0947265625,-1.02099609375,-0.16064453125
62250735388,-0.09326171875,-1.02294921875,-0.154296875
62250758538,-0.08740234375,-1.02490234375,-0.158203125
62250780991,-0.09619140625,-1.0166015625,-0.1513671875
62250795361,-0.0849609375,-0.98876953125,-0.16357421875
62250818533,-0.08349609375,-0.98193359375,-0.16064453125
62250841012,-0.08154296875,-0.99951171875,-0.15625
62250862172,-0.0751953125,-0.99365234375,-0.1533203125
62250878510,-0.0556640625,-0.9658203125,-0.15576171875
62250901047,-0.04443359375,-0.9423828125,-0.1572265625
62250922166,-0.02490234375,-0.9443359375,-0.15576171875
62250938540,-0.01416015625,-0.95068359375,-0.15185546875
62250961059,0.00048828125,-0.92529296875,-0.16064453125
62250982216,0.0107421875,-0.87646484375,-0.18359375
62250998568,0.01025390625,-0.82470703125,-0.19580078125
62251021062,0.03173828125,-0.81591796875,-0.2109375
62251042242,0.0419921875,-0.85498046875,-0.20556640625
62251057887,0.044921875,-0.90673828125,-0.21533203125
62251081047,0.068359375,-0.9111328125,-0.21533203125
62251102145,0.08056640625,-0.900390625,-0.23486328125
62251117838,0.10205078125,-0.90283203125,-0.25927734375
62251141036,0.1171875,-0.94287109375,-0.2646484375
62251162248,0.13525390625,-0.984375,-0.2587890625
62251177898,0.1591796875,-1.00830078125,-0.2783203125
62251201052,0.1962890625,-0.99853515625,-0.31201171875
62251222141,0.23486328125,-0.990234375,-0.32373046875
62251237854,0.2490234375,-0.97802734375,-0.34033203125
62251261038,0.2763671875,-0.9599609375,-0.3330078125
62251289544,0.298828125,-0.93115234375,-0.3388671875
62251297838,0.32861328125,-0.93994140625,-0.3408203125
62251321007,0.36865234375,-0.95166015625,-0.34228515625
62251343507,0.39453125,-0.955078125,-0.35498046875
62251357881,0.40869140625,-0.94189453125,-0.35009765625
62251381028,0.4306640625,-0.916015625,-0.34619140625
62251403519,0.4326171875,-0.8896484375,-0.34619140625
62251417869,0.44921875,-0.8759765625,-0.33349609375
62251441006,0.505859375,-0.8798828125,-0.32177734375
62251463527,0.51806640625,-0.87939453125,-0.34716796875
62251484691,0.5185546875,-0.88525390625,-0.3388671875
62251501017,0.51611328125,-0.89306640625,-0.32958984375
62251523538,0.53271484375,-0.86376953125,-0.3203125
62251544688,0.55859375,-0.81201171875,-0.32275390625
62251561042,0.6044921875,-0.77294921875,-0.30029296875
62251566606,0.55419921875,-0.75341796875,-0.37109375
62251588984,0.56103515625,-0.9130859375,-0.3818359375
62251606822,0.62158203125,-1.052734375,-0.3486328125
62251626418,0.57763671875,-0.90673828125,-0.3798828125
62251649026,0.5537109375,-0.75390625,-0.4267578125
62251666814,0.576171875,-0.74560546875,-0.36181640625
62251689319,0.62109375,-0.7578125,-0.35498046875
62251709089,0.6416015625,-0.72802734375,-0.353515625
62251731582,0.64453125,-0.73046875,-0.3203125
62251746428,0.62744140625,-0.7578125,-0.30419921875
62251768895,0.61181640625,-0.7587890625,-0.2958984375
62251783893,0.60498046875,-0.74462890625,-0.29541015625
62251806421,0.615234375,-0.7451171875,-0.28759765625
62251829020,0.61572265625,-0.751953125,-0.28564453125
62251844075,0.61767578125,-0.76171875,-0.29150390625
62251866480,0.62060546875,-0.751953125,-0.29296875
62251889078,0.6142578125,-0.74609375,-0.296875
62251903988,0.619140625,-0.7392578125,-0.31103515625
62251926600,0.6201171875,-0.73583984375,-0.31982421875
