58014179882,-0.320556640625,-0.0994262695312,0.276550292969,0.900451660156
58014194938,-0.321228027344,-0.0985717773438,0.277038574219,0.900146484375
58014218573,-0.320373535156,-0.0977783203125,0.277648925781,0.900390625
58014239884,-0.317016601562,-0.101135253906,0.276428222656,0.901611328125
58014254957,-0.312927246094,-0.104614257812,0.275390625,0.902893066406
58014278634,-0.305786132812,-0.10986328125,0.273864746094,0.905212402344
58014299964,-0.299072265625,-0.113830566406,0.272827148438,0.9072265625
58014315015,-0.297302246094,-0.113830566406,0.273193359375,0.90771484375
58014370646,-0.302062988281,-0.109619140625,0.275024414062,0.906127929688
58014372697,-0.309875488281,-0.103881835938,0.277526855469,0.903381347656
58014377755,-0.315246582031,-0.1005859375,0.279052734375,0.901428222656
58014398657,-0.316650390625,-0.0984497070312,0.280212402344,0.900817871094
58014424494,-0.316467285156,-0.0989990234375,0.279846191406,0.900939941406
58014444279,-0.315979003906,-0.0989379882812,0.280151367188,0.901000976562
58014479682,-0.315795898438,-0.0988159179688,0.280334472656,0.901062011719
58014489837,-0.315551757812,-0.0986938476562,0.280456542969,0.901123046875
58014496081,-0.3154296875,-0.0985717773438,0.280517578125,0.901123046875
58014517925,-0.318054199219,-0.0941772460938,0.281372070312,0.900451660156
58014540394,-0.3134765625,-0.0992431640625,0.279541015625,0.902038574219
58014564229,-0.311706542969,-0.100830078125,0.279113769531,0.902648925781
58014578562,-0.306274414062,-0.10498046875,0.277648925781,0.904479980469
58014601746,-0.304382324219,-0.106323242188,0.277099609375,0.905090332031
58014624197,-0.298767089844,-0.109985351562,0.275756835938,0.906921386719
58014638518,-0.298950195312,-0.109191894531,0.276062011719,0.906860351562
58014669256,-0.304748535156,-0.104370117188,0.277709960938,0.905029296875
58014684234,-0.312316894531,-0.0988159179688,0.279663085938,0.902465820312
58014698539,-0.313354492188,-0.09814453125,0.279907226562,0.902099609375
58014721705,-0.312561035156,-0.100646972656,0.279602050781,0.902160644531
58014744229,-0.312622070312,-0.100524902344,0.279235839844,0.902282714844
58014758567,-0.312255859375,-0.100463867188,0.279235839844,0.902404785156
58014781726,-0.312072753906,-0.1005859375,0.278930664062,0.902587890625
58014804212,-0.312316894531,-0.100952148438,0.278747558594,0.902526855469
58014818579,-0.312316894531,-0.100891113281,0.278747558594,0.902526855469
58014841726,-0.312316894531,-0.100891113281,0.278747558594,0.902526855469
58014864236,-0.312316894531,-0.100891113281,0.278747558594,0.902526855469
58014885380,-0.312194824219,-0.100708007812,0.278869628906,0.902526855469
58014901739,-0.312194824219,-0.100708007812,0.278869628906,0.902526855469
58014924203,-0.312194824219,-0.100708007812,0.278869628906,0.902526855469
58014945351,-0.312194824219,-0.100708007812,0.278869628906,0.902526855469
58014961749,-0.312377929688,-0.100646972656,0.278747558594,0.902526855469
58014984230,-0.312744140625,-0.100524902344,0.278747558594,0.902404785156
58015005404,-0.313293457031,-0.100524902344,0.278686523438,0.902221679688
58015021696,-0.3134765625,-0.100219726562,0.278747558594,0.902160644531
58015044224,-0.313598632812,-0.100036621094,0.278625488281,0.902221679688
58015065402,-0.313598632812,-0.0999755859375,0.278625488281,0.902221679688
58015081724,-0.313598632812,-0.0999755859375,0.278625488281,0.902221679688
58015104252,-0.313781738281,-0.0999755859375,0.278625488281,0.902160644531
58015125338,-0.313781738281,-0.0999755859375,0.278625488281,0.902160644531
58015141746,-0.313781738281,-0.0999755859375,0.278625488281,0.902160644531
58015164212,-0.313781738281,-0.0999755859375,0.278625488281,0.902160644531
58015185413,-0.313781738281,-0.0999755859375,0.278625488281,0.902160644531
58015201737,-0.313781738281,-0.0999145507812,0.278625488281,0.902160644531
58015224210,-0.313842773438,-0.0999145507812,0.278625488281,0.902160644531
58015252849,-0.313842773438,-0.0999145507812,0.278625488281,0.902099609375
58015261704,-0.313842773438,-0.0999145507812,0.278625488281,0.902099609375
58015284207,-0.313842773438,-0.0999145507812,0.278625488281,0.902099609375
58015306659,-0.313842773438,-0.0999145507812,0.278686523438,0.902099609375
58015321713,-0.313903808594,-0.0999145507812,0.278686523438,0.902099609375
58015344212,-0.313903808594,-0.0999145507812,0.278686523438,0.902099609375
58015366785,-0.313903808594,-0.099853515625,0.278686523438,0.902099609375
58015381750,-0.313903808594,-0.099853515625,0.278686523438,0.902099609375
58015404230,-0.313903808594,-0.099853515625,0.278686523438,0.902099609375
58015426756,-0.31396484375,-0.099853515625,0.278686523438,0.902099609375
58015441739,-0.31396484375,-0.099853515625,0.278686523438,0.902099609375
58015470346,-0.31396484375,-0.099853515625,0.278686523438,0.902099609375
58015486714,-0.31396484375,-0.0997924804688,0.278686523438,0.902099609375
58015509240,-0.31396484375,-0.0997924804688,0.278686523438,0.902099609375
58015530354,-0.314086914062,-0.0999145507812,0.278686523438,0.902038574219
58015546698,-0.314086914062,-0.0999145507812,0.278686523438,0.902038574219
58015569229,-0.314147949219,-0.0999145507812,0.278686523438,0.902038574219
58015590295,-0.314147949219,-0.0999145507812,0.278686523438,0.902038574219
58015606707,-0.314147949219,-0.0999145507812,0.278686523438,0.902038574219
58015629275,-0.314147949219,-0.0999145507812,0.278686523438,0.902038574219
58015650228,-0.314147949219,-0.0999145507812,0.278686523438,0.901977539062
58015666689,-0.314208984375,-0.0999145507812,0.278686523438,0.901977539062
58015689173,-0.314208984375,-0.0999145507812,0.278686523438,0.901977539062
58015710362,-0.314208984375,-0.099853515625,0.278686523438,0.901977539062
58015726753,-0.314208984375,-0.099853515625,0.278686523438,0.901977539062
58015749221,-0.314208984375,-0.099853515625,0.278686523438,0.901977539062
58015777922,-0.314208984375,-0.099853515625,0.278686523438,0.901977539062
58015786678,-0.314208984375,-0.099853515625,0.278686523438,0.901977539062
58015809690,-0.314208984375,-0.099853515625,0.278686523438,0.901977539062
58015831679,-0.314208984375,-0.099853515625,0.278686523438,0.901977539062
58015846728,-0.314208984375,-0.0997924804688,0.278686523438,0.901977539062
58015869200,-0.314208984375,-0.0997924804688,0.278686523438,0.901977539062
58015891694,-0.314270019531,-0.0997924804688,0.278686523438,0.901977539062
58015906735,-0.314270019531,-0.0997924804688,0.278686523438,0.901977539062
58015929263,-0.314208984375,-0.0996704101562,0.278686523438,0.901977539062
58015951733,-0.314208984375,-0.0996704101562,0.278686523438,0.901977539062
58015966077,-0.314208984375,-0.0996704101562,0.278747558594,0.901977539062
58015989209,-0.314208984375,-0.0996704101562,0.278686523438,0.902038574219
58015994701,-0.314208984375,-0.0996704101562,0.278747558594,0.902038574219
58016024728,-0.314208984375,-0.0996704101562,0.278747558594,0.901977539062
58016035031,-0.314208984375,-0.099609375,0.278747558594,0.901977539062
58016054639,-0.314208984375,-0.099609375,0.278747558594,0.901977539062
58016077218,-0.314208984375,-0.099609375,0.278747558594,0.901977539062
58016093529,-0.314208984375,-0.099609375,0.278747558594,0.901977539062
58016117518,-0.314208984375,-0.099609375,0.278747558594,0.901977539062
58016137075,-0.314208984375,-0.0995483398438,0.278747558594,0.901977539062
58016152089,-0.314208984375,-0.0995483398438,0.278747558594,0.901977539062
58016174573,-0.314208984375,-0.0995483398438,0.278747558594,0.901977539062
58016197203,-0.314270019531,-0.0995483398438,0.278747558594,0.901977539062
58016212312,-0.314270019531,-0.0995483398438,0.278747558594,0.901977539062
58016234777,-0.314270019531,-0.0995483398438,0.278747558594,0.901977539062
58016257263,-0.314270019531,-0.0995483398438,0.278747558594,0.901977539062
58016272242,-0.314270019531,-0.0995483398438,0.278747558594,0.901977539062
58016294702,-0.314270019531,-0.0995483398438,0.278747558594,0.901977539062
58016317050,-0.314331054688,-0.0995483398438,0.278747558594,0.901977539062
58016332145,-0.314331054688,-0.0995483398438,0.278747558594,0.901977539062
58016362124,-0.314331054688,-0.0994873046875,0.278747558594,0.901977539062
58016377145,-0.314331054688,-0.0994873046875,0.278747558594,0.901977539062
58016393519,-0.314331054688,-0.0994873046875,0.278747558594,0.901977539062
58016414638,-0.314331054688,-0.0994873046875,0.278747558594,0.901977539062
58016437318,-0.314331054688,-0.0994873046875,0.278747558594,0.901977539062
58016453543,-0.314331054688,-0.0994873046875,0.27880859375,0.901977539062
58016474594,-0.314331054688,-0.0994873046875,0.27880859375,0.901977539062
58016497251,-0.314392089844,-0.0994873046875,0.27880859375,0.901916503906
58016513505,-0.314392089844,-0.0994873046875,0.27880859375,0.901916503906
58016534642,-0.314392089844,-0.0994262695312,0.27880859375,0.901916503906
58016557227,-0.314392089844,-0.0994262695312,0.27880859375,0.901916503906
58016573590,-0.314392089844,-0.0994262695312,0.27880859375,0.901916503906
58016594749,-0.314392089844,-0.0994262695312,0.27880859375,0.901916503906
58016617240,-0.314392089844,-0.0994262695312,0.27880859375,0.901916503906
58016641003,-0.314392089844,-0.0994262695312,0.27880859375,0.901916503906
58016654568,-0.314453125,-0.0994262695312,0.27880859375,0.901916503906
58016677007,-0.314392089844,-0.099365234375,0.27880859375,0.901916503906
58016693534,-0.314453125,-0.099365234375,0.27880859375,0.901916503906
58016714711,-0.314453125,-0.099365234375,0.27880859375,0.901916503906
58016737214,-0.314514160156,-0.0994262695312,0.27880859375,0.901916503906
58016754988,-0.314514160156,-0.0994262695312,0.27880859375,0.901916503906
58016774757,-0.314514160156,-0.099365234375,0.27880859375,0.901916503906
58016797203,-0.314514160156,-0.099365234375,0.27880859375,0.901916503906
58016815019,-0.314514160156,-0.099365234375,0.27880859375,0.901916503906
58016834732,-0.314514160156,-0.099365234375,0.27880859375,0.901916503906
58016857210,-0.314514160156,-0.099365234375,0.27880859375,0.901916503906
58016875007,-0.314575195312,-0.099365234375,0.27880859375,0.901916503906
58016894759,-0.314575195312,-0.099365234375,0.27880859375,0.90185546875
58016917113,-0.314575195312,-0.099365234375,0.27880859375,0.90185546875
58016935074,-0.314575195312,-0.099365234375,0.27880859375,0.90185546875
58016954876,-0.314575195312,-0.0993041992188,0.27880859375,0.90185546875
58016977078,-0.314575195312,-0.0993041992188,0.27880859375,0.90185546875
58016995009,-0.314575195312,-0.0993041992188,0.27880859375,0.90185546875
58017014666,-0.314575195312,-0.0993041992188,0.278869628906,0.90185546875
58017037319,-0.314575195312,-0.0993041992188,0.278869628906,0.90185546875
58017055023,-0.314575195312,-0.0993041992188,0.278869628906,0.90185546875
58017074703,-0.314575195312,-0.0993041992188,0.278869628906,0.90185546875
58017092518,-0.315002441406,-0.0992431640625,0.278869628906,0.901733398438
58017114978,-0.315002441406,-0.0992431640625,0.278869628906,0.901733398438
58017134796,-0.315002441406,-0.0992431640625,0.278869628906,0.901733398438
58017152498,-0.315002441406,-0.0991821289062,0.278869628906,0.901733398438
58017174964,-0.315002441406,-0.0991821289062,0.278869628906,0.901733398438
58017194623,-0.315002441406,-0.0991821289062,0.278869628906,0.901733398438
58017212499,-0.315002441406,-0.0991821289062,0.278869628906,0.901733398438
58017235006,-0.315002441406,-0.0991821289062,0.278869628906,0.901733398438
58017254674,-0.315063476562,-0.0991821289062,0.278869628906,0.901733398438
58017272493,-0.315063476562,-0.0991821289062,0.278869628906,0.901733398438
58017295044,-0.315063476562,-0.0991821289062,0.278869628906,0.901733398438
58017317534,-0.315063476562,-0.0991821289062,0.278869628906,0.901733398438
58017332479,-0.315063476562,-0.0991821289062,0.278869628906,0.901733398438
58017354977,-0.315063476562,-0.0991821289062,0.278869628906,0.901733398438
58017376030,-0.315307617188,-0.09912109375,0.278869628906,0.901672363281
58017392500,-0.315612792969,-0.0990600585938,0.27880859375,0.901550292969
58017415420,-0.315612792969,-0.0990600585938,0.27880859375,0.901550292969
58017436028,-0.315612792969,-0.0990600585938,0.27880859375,0.901550292969
58017452506,-0.315673828125,-0.0989990234375,0.278869628906,0.901550292969
58017474943,-0.315673828125,-0.0990600585938,0.278869628906,0.901550292969
58017502056,-0.315673828125,-0.0989990234375,0.278869628906,0.901489257812
58017512428,-0.315673828125,-0.0989990234375,0.278869628906,0.901550292969
58017534971,-0.315673828125,-0.0989990234375,0.278869628906,0.901550292969
58017556007,-0.315673828125,-0.0989990234375,0.278869628906,0.901550292969
58017570981,-0.315673828125,-0.0989990234375,0.278869628906,0.901489257812
58017594964,-0.315490722656,-0.098876953125,0.278930664062,0.901550292969
58017615276,-0.315307617188,-0.0986938476562,0.278991699219,0.901611328125
58017631681,-0.315307617188,-0.0986938476562,0.278991699219,0.901672363281
58017654247,-0.315307617188,-0.0986938476562,0.278991699219,0.901672363281
58017675176,-0.315307617188,-0.0986938476562,0.278991699219,0.901611328125
58017691624,-0.315307617188,-0.0986938476562,0.278991699219,0.901611328125
58017720209,-0.315307617188,-0.0986938476562,0.278991699219,0.901611328125
58017736659,-0.315368652344,-0.0986328125,0.278991699219,0.901611328125
58017751667,-0.315368652344,-0.0986328125,0.278991699219,0.901611328125
58017781682,-0.315368652344,-0.0986328125,0.278991699219,0.901611328125
58017796664,-0.315490722656,-0.0985107421875,0.278930664062,0.901611328125
58017812111,-0.315490722656,-0.0985107421875,0.278930664062,0.901611328125
58017834144,-0.315490722656,-0.0985107421875,0.278930664062,0.901611328125
58017856604,-0.315490722656,-0.0984497070312,0.278930664062,0.901611328125
58017871046,-0.315490722656,-0.0984497070312,0.278930664062,0.901611328125
58017894180,-0.315490722656,-0.0984497070312,0.278930664062,0.901611328125
58017916687,-0.315551757812,-0.0984497070312,0.278930664062,0.901611328125
58017931020,-0.315551757812,-0.0984497070312,0.278930664062,0.901611328125
58017954157,-0.315551757812,-0.0984497070312,0.278930664062,0.901611328125
58017976683,-0.315734863281,-0.0983276367188,0.278869628906,0.901550292969
58017991001,-0.316101074219,-0.0982055664062,0.278747558594,0.901489257812
58018014157,-0.316833496094,-0.0980224609375,0.278564453125,0.901306152344
58018036700,-0.31787109375,-0.0978393554688,0.278381347656,0.901062011719
58018059220,-0.3193359375,-0.09765625,0.278137207031,0.900634765625
58018074146,-0.321594238281,-0.097412109375,0.277954101562,0.899841308594
58018096699,-0.324645996094,-0.0970458984375,0.277465820312,0.898986816406
58018110995,-0.327758789062,-0.096435546875,0.276611328125,0.898193359375
58018134155,-0.332153320312,-0.0955200195312,0.275329589844,0.897033691406
58018156656,-0.339172363281,-0.094482421875,0.273071289062,0.895263671875
58018177873,-0.349060058594,-0.0919799804688,0.270629882812,0.892395019531
58018194155,-0.361389160156,-0.0863647460938,0.268859863281,0.888610839844
58018216653,-0.373229980469,-0.0775146484375,0.268249511719,0.884704589844
58018237856,-0.383911132812,-0.0660400390625,0.268615722656,0.880920410156
58018254185,-0.399230957031,-0.05810546875,0.269775390625,0.874328613281
58018276705,-0.411315917969,-0.055908203125,0.271240234375,0.868408203125
58018297822,-0.4248046875,-0.0538330078125,0.276611328125,0.860290527344
58018314164,-0.428649902344,-0.0466918945312,0.281372070312,0.857238769531
58018337130,-0.420593261719,-0.0340576171875,0.283569335938,0.861083984375
58018357795,-0.409423828125,-0.0186767578125,0.2861328125,0.866088867188
58018374151,-0.4052734375,-0.00433349609375,0.287719726562,0.86767578125
58018396681,-0.409790039062,0.00897216796875,0.290710449219,0.864501953125
58018417834,-0.414672851562,0.0239868164062,0.296264648438,0.860046386719
58018434159,-0.419860839844,0.0364379882812,0.303283691406,0.854614257812
58018456690,-0.424499511719,0.0445556640625,0.307983398438,0.850280761719
58018477869,-0.424377441406,0.0521850585938,0.311096191406,0.848754882812
58018494185,-0.422790527344,0.0595703125,0.312744140625,0.848449707031
58018516706,-0.421447753906,0.066650390625,0.313781738281,0.848205566406
58018537852,-0.420104980469,0.0728149414062,0.315490722656,0.847717285156
58018553543,-0.420532226562,0.076171875,0.316833496094,0.8466796875
58018576681,-0.421936035156,0.0789794921875,0.317993164062,0.845336914062
58018597842,-0.422546386719,0.0820922851562,0.319091796875,0.844299316406
58018613505,-0.422973632812,0.0829467773438,0.319641113281,0.843811035156
58018636649,-0.424011230469,0.0814819335938,0.319030761719,0.843688964844
58018659176,-0.424743652344,0.0812377929688,0.319213867188,0.843200683594
58018673503,-0.427307128906,0.08203125,0.321960449219,0.8408203125
58018696649,-0.4326171875,0.0833129882812,0.326538085938,0.836242675781
58018719147,-0.443664550781,0.0799560546875,0.331298828125,0.828796386719
58018733524,-0.455749511719,0.0728759765625,0.335266113281,0.8212890625
58018756676,-0.463439941406,0.0687866210938,0.338623046875,0.815979003906
58018779180,-0.468383789062,0.0719604492188,0.340026855469,0.812255859375
58018793524,-0.47705078125,0.0770874023438,0.341735839844,0.805969238281
58018816677,-0.485107421875,0.0798950195312,0.341247558594,0.801086425781
58018839160,-0.483093261719,0.07958984375,0.340393066406,0.802734375
58018860231,-0.479553222656,0.0789794921875,0.338256835938,0.805786132812
58018876607,-0.478881835938,0.0816650390625,0.335266113281,0.807189941406
58018899144,-0.466857910156,0.087646484375,0.333740234375,0.814208984375
58018920272,-0.449279785156,0.092529296875,0.332824707031,0.823852539062
58018936648,-0.44091796875,0.093017578125,0.332275390625,0.828552246094
58018959182,-0.442565917969,0.0919189453125,0.333129882812,0.827453613281
58018980368,-0.44140625,0.0928955078125,0.332702636719,0.828125
58018996660,-0.440307617188,0.092041015625,0.33056640625,0.829650878906
58019019159,-0.440368652344,0.0911254882812,0.328491210938,0.83056640625
58019040335,-0.445495605469,0.0905151367188,0.329284667969,0.827575683594
58019056707,-0.451782226562,0.0869750976562,0.330444335938,0.824096679688
58019079599,-0.455627441406,0.0825805664062,0.331420898438,0.822021484375
58019107845,-0.456481933594,0.0816040039062,0.327941894531,0.822998046875
58019116658,-0.454040527344,0.085693359375,0.322082519531,0.826293945312
58019139285,-0.450073242188,0.0896606445312,0.320861816406,0.828491210938
58019167862,-0.445556640625,0.0902709960938,0.320983886719,0.830810546875
58019176631,-0.437744140625,0.091552734375,0.318176269531,0.835876464844
58019199153,-0.430358886719,0.0953979492188,0.317993164062,0.83935546875
58019220431,-0.429809570312,0.09814453125,0.320251464844,0.838500976562
58019236660,-0.429321289062,0.100402832031,0.324584960938,0.836791992188
58019259206,-0.427124023438,0.10302734375,0.328735351562,0.835998535156
58019280487,-0.423645019531,0.105773925781,0.333129882812,0.835632324219
58019296655,-0.424682617188,0.10302734375,0.3369140625,0.833923339844
58019319123,-0.422241210938,0.092041015625,0.339721679688,0.835327148438
58019340344,-0.425048828125,0.0729370117188,0.344543457031,0.833801269531
58019356002,-0.423217773438,0.061279296875,0.352355957031,0.832397460938
58019379152,-0.411987304688,0.0677490234375,0.361511230469,0.833618164062
58019400347,-0.413024902344,0.074462890625,0.369750976562,0.828918457031
58019417113,-0.416931152344,0.0717163085938,0.375,0.824829101562
58019446629,-0.414672851562,0.0719604492188,0.37939453125,0.823913574219
58019460337,-0.413635253906,0.0767822265625,0.381286621094,0.823120117188
58019475975,-0.412475585938,0.0813598632812,0.382507324219,0.822692871094
58019499153,-0.412658691406,0.08447265625,0.383056640625,0.822021484375
58019520259,-0.41748046875,0.0836791992188,0.38134765625,0.820495605469
58019535959,-0.421020507812,0.0848999023438,0.377075195312,0.820556640625
58019559174,-0.416870117188,0.0894775390625,0.372375488281,0.824340820312
58019581657,-0.408569335938,0.09033203125,0.365966796875,0.831237792969
58019595975,-0.41015625,0.087646484375,0.362182617188,0.832397460938
58019619126,-0.421691894531,0.0888671875,0.367431640625,0.824157714844
58019641674,-0.409729003906,0.106201171875,0.366149902344,0.828674316406
58019664100,-0.412109375,0.107543945312,0.3583984375,0.830749511719
58019679135,-0.414306640625,0.104553222656,0.354553222656,0.831665039062
58019701616,-0.409362792969,0.112060546875,0.356506347656,0.832275390625
58019715977,-0.411254882812,0.113647460938,0.35693359375,0.830932617188
58019739127,-0.41552734375,0.110656738281,0.36083984375,0.827514648438
58019761654,-0.421203613281,0.104614257812,0.363342285156,0.824401855469
58019782824,-0.417663574219,0.0972290039062,0.357116699219,0.829772949219
58019799151,-0.41650390625,0.0994262695312,0.357727050781,0.829833984375
58019821673,-0.407897949219,0.1064453125,0.364379882812,0.830322265625
58019842932,-0.41064453125,0.114807128906,0.36865234375,0.825988769531
58019859237,-0.418884277344,0.121704101562,0.374755859375,0.818054199219
58019881625,-0.405578613281,0.131408691406,0.370483398438,0.8251953125
58019902857,-0.405456542969,0.115844726562,0.358947753906,0.832641601562
58019919173,-0.404724121094,0.106811523438,0.355529785156,0.835693359375
58019941671,-0.400817871094,0.0987548828125,0.355590820312,0.838500976562
58019970305,-0.404602050781,0.0944213867188,0.353820800781,0.837951660156
58019979130,-0.402893066406,0.102233886719,0.354370117188,0.837585449219
58020001644,-0.407775878906,0.107055664062,0.352905273438,0.835266113281
58020022712,-0.418823242188,0.107788085938,0.351379394531,0.830322265625
58020039131,-0.42578125,0.103881835938,0.351379394531,0.827270507812
58020061623,-0.421325683594,0.098388671875,0.349548339844,0.830993652344
58020082773,-0.412292480469,0.09619140625,0.349426269531,0.835815429688
58020099146,-0.408203125,0.0975952148438,0.354064941406,0.835693359375
58020121605,-0.412536621094,0.0957641601562,0.35546875,0.833190917969
58020142544,-0.412780761719,0.0938110351562,0.354064941406,0.833923339844
58020159128,-0.412292480469,0.0941162109375,0.353393554688,0.834411621094
58020181664,-0.413513183594,0.093017578125,0.352966308594,0.834106445312
58020202776,-0.41259765625,0.0919799804688,0.351257324219,0.835388183594
58020219135,-0.412536621094,0.0897827148438,0.3486328125,0.836730957031
58020241658,-0.418823242188,0.0863647460938,0.344299316406,0.835815429688
58020262658,-0.41845703125,0.085693359375,0.340148925781,0.837707519531
58020279609,-0.414611816406,0.0794677734375,0.337097167969,0.841491699219
58020301426,-0.413024902344,0.0848388671875,0.343078613281,0.839294433594
58020322731,-0.413269042969,0.101318359375,0.354553222656,0.832580566406
58020339204,-0.409912109375,0.115356445312,0.356567382812,0.83154296875
58020361635,-0.414489746094,0.109252929688,0.344299316406,0.835266113281
58020382747,-0.41845703125,0.099609375,0.337036132812,0.837463378906
58020398437,-0.410583496094,0.1005859375,0.341064453125,0.839599609375
58020421606,-0.409790039062,0.101318359375,0.341613769531,0.839660644531
58020442798,-0.411987304688,0.101379394531,0.340698242188,0.838989257812
58020458545,-0.412414550781,0.100524902344,0.34130859375,0.838623046875
58020481603,-0.413330078125,0.101928710938,0.341064453125,0.838073730469
58020502749,-0.409912109375,0.107604980469,0.341186523438,0.839050292969
58020518481,-0.412841796875,0.105102539062,0.342712402344,0.837280273438
58020541606,-0.411743164062,0.0943603515625,0.341735839844,0.839477539062
58020564123,-0.408752441406,0.0882568359375,0.346008300781,0.83984375
58020578441,-0.406005859375,0.091552734375,0.351684570312,0.838439941406
58020601433,-0.406494140625,0.0961303710938,0.349243164062,0.838745117188
58020624104,-0.408203125,0.09814453125,0.347045898438,0.838562011719
58020638454,-0.40185546875,0.0950927734375,0.344848632812,0.842895507812
58020661650,-0.408264160156,0.0844116210938,0.345581054688,0.840637207031
58020684158,-0.405578613281,0.0872802734375,0.348327636719,0.840515136719
58020698588,-0.404357910156,0.095947265625,0.350402832031,0.83935546875
58020721565,-0.408752441406,0.0953369140625,0.350036621094,0.83740234375
58020744103,-0.407653808594,0.0941772460938,0.3486328125,0.838684082031
58020765253,-0.405395507812,0.0936279296875,0.350524902344,0.838989257812
58020781677,-0.404724121094,0.0958862304688,0.352294921875,0.838317871094
58020804149,-0.4033203125,0.101684570312,0.352416992188,0.838317871094
58020825288,-0.403625488281,0.103454589844,0.354125976562,0.837219238281
58020841581,-0.403625488281,0.103759765625,0.355773925781,0.836486816406
58020864118,-0.401611328125,0.106811523438,0.356018066406,0.8369140625
58020885085,-0.39892578125,0.11328125,0.357238769531,0.836853027344
58020901589,-0.397827148438,0.118774414062,0.359924316406,0.83544921875
58020924166,-0.398315429688,0.12109375,0.361877441406,0.834045410156
58020945277,-0.399658203125,0.123107910156,0.3623046875,0.832946777344
58020961622,-0.397827148438,0.128479003906,0.362976074219,0.832702636719
58020967104,-0.395690917969,0.133483886719,0.364501953125,0.832275390625
58020989613,-0.395629882812,0.136169433594,0.366271972656,0.8310546875
58021011974,-0.396850585938,0.13818359375,0.367370605469,0.829711914062
58021027120,-0.397705078125,0.140625,0.367797851562,0.828674316406
58021049597,-0.398071289062,0.143432617188,0.369506835938,0.827270507812
58021072258,-0.3984375,0.147644042969,0.371948242188,0.825256347656
58021087114,-0.401550292969,0.150451660156,0.3740234375,0.822265625
58021110924,-0.403137207031,0.150329589844,0.375610351562,0.82080078125
58021132195,-0.403259277344,0.150268554688,0.376525878906,0.820373535156
58021148436,-0.402587890625,0.152404785156,0.376831054688,0.820129394531
58021169671,-0.402709960938,0.155029296875,0.377624511719,0.819213867188
58021187401,-0.403015136719,0.156921386719,0.378234863281,0.818420410156
58021207046,-0.402404785156,0.158874511719,0.378479003906,0.818237304688
58021229774,-0.402038574219,0.16015625,0.378662109375,0.818054199219
58021247431,-0.402099609375,0.159423828125,0.378723144531,0.818176269531
58021266983,-0.402221679688,0.157592773438,0.377502441406,0.819030761719
58021289663,-0.401428222656,0.156433105469,0.376220703125,0.820251464844
58021307445,-0.401062011719,0.156127929688,0.375793457031,0.820678710938
58021327126,-0.402709960938,0.155517578125,0.375427246094,0.820190429688
58021349542,-0.403930664062,0.154907226562,0.374755859375,0.819946289062
58021367414,-0.403564453125,0.154602050781,0.373657226562,0.820678710938
58021387028,-0.402893066406,0.155090332031,0.372375488281,0.821533203125
58021409675,-0.404113769531,0.156372070312,0.371765136719,0.820983886719
58021427378,-0.406433105469,0.157592773438,0.370422363281,0.820190429688
58021447035,-0.4072265625,0.158996582031,0.369689941406,0.819885253906
58021469720,-0.406982421875,0.159912109375,0.368957519531,0.820129394531
58021487416,-0.406066894531,0.160217285156,0.368408203125,0.820739746094
58021507099,-0.406372070312,0.159057617188,0.368041992188,0.820983886719
58021529469,-0.407165527344,0.157592773438,0.368347167969,0.820739746094
58021547378,-0.408813476562,0.155212402344,0.368957519531,0.820129394531
58021567131,-0.409912109375,0.152526855469,0.369079589844,0.820007324219
58021589598,-0.40966796875,0.150817871094,0.3681640625,0.820861816406
58021607913,-0.410339355469,0.149719238281,0.367492675781,0.821044921875
58021627081,-0.409973144531,0.149475097656,0.367248535156,0.821350097656
58021649577,-0.408752441406,0.148498535156,0.368103027344,0.82177734375
58021667374,-0.408142089844,0.148376464844,0.365539550781,0.8232421875
58021687096,-0.40771484375,0.14892578125,0.363830566406,0.824096679688
58021709764,-0.408081054688,0.14892578125,0.363464355469,0.824096679688
58021727435,-0.409484863281,0.148803710938,0.363647460938,0.823303222656
58021747013,-0.409729003906,0.149230957031,0.36376953125,0.823120117188
58021769551,-0.410217285156,0.150024414062,0.364440917969,0.822387695312
58021787518,-0.411193847656,0.151672363281,0.365173339844,0.8212890625
58021807191,-0.411804199219,0.154113769531,0.365905761719,0.820190429688
58021829619,-0.412841796875,0.154541015625,0.366943359375,0.819152832031
58021847506,-0.412780761719,0.154296875,0.368347167969,0.818603515625
58021866960,-0.41162109375,0.152954101562,0.370239257812,0.818542480469
58021889694,-0.40966796875,0.152038574219,0.3701171875,0.819763183594
58021913437,-0.408020019531,0.153625488281,0.369750976562,0.820434570312
58021927047,-0.407897949219,0.153076171875,0.369750976562,0.820617675781
58021949501,-0.408569335938,0.150024414062,0.369445800781,0.820983886719
58021972084,-0.409057617188,0.149230957031,0.369201660156,0.820983886719
58021987073,-0.409851074219,0.150573730469,0.3681640625,0.82080078125
58022009552,-0.410888671875,0.151428222656,0.367553710938,0.820373535156
58022027431,-0.409973144531,0.15185546875,0.367553710938,0.82080078125
58022047209,-0.408813476562,0.152221679688,0.366760253906,0.821655273438
58022069734,-0.410095214844,0.150390625,0.364440917969,0.822387695312
58022087413,-0.410034179688,0.148498535156,0.362854003906,0.823425292969
58022108449,-0.409973144531,0.147277832031,0.362609863281,0.823791503906
58022129520,-0.412475585938,0.14453125,0.361511230469,0.823547363281
58022147425,-0.412109375,0.141235351562,0.361389160156,0.824340820312
58022168384,-0.412353515625,0.138427734375,0.361511230469,0.824645996094
58022189548,-0.413330078125,0.137512207031,0.361267089844,0.824401855469
58022207474,-0.411682128906,0.138793945312,0.361938476562,0.824768066406
58022228451,-0.412292480469,0.13525390625,0.362548828125,0.824768066406
58022249599,-0.410461425781,0.134216308594,0.360595703125,0.82666015625
58022267381,-0.410461425781,0.135986328125,0.359069824219,0.827087402344
58022288420,-0.410461425781,0.138916015625,0.359008789062,0.826599121094
58022309621,-0.413940429688,0.140563964844,0.35986328125,0.82421875
58022327429,-0.416137695312,0.142028808594,0.359191894531,0.823120117188
58022348450,-0.414672851562,0.14404296875,0.359558105469,0.823364257812
58022369604,-0.413330078125,0.14404296875,0.361083984375,0.823425292969
58022387404,-0.411865234375,0.144226074219,0.36279296875,0.823364257812
58022408443,-0.4111328125,0.143676757812,0.362731933594,0.823791503906
58022429615,-0.412170410156,0.140686035156,0.361999511719,0.824157714844
58022447445,-0.410827636719,0.138000488281,0.360961914062,0.825744628906
58022470418,-0.409240722656,0.136901855469,0.361755371094,0.826354980469
58022489587,-0.408386230469,0.136535644531,0.363708496094,0.825988769531
58022507376,-0.410400390625,0.135009765625,0.364135742188,0.825012207031
58022529902,-0.414001464844,0.132507324219,0.36279296875,0.824279785156
58022549610,-0.415222167969,0.131103515625,0.360961914062,0.824645996094
58022567409,-0.414001464844,0.130981445312,0.359619140625,0.825866699219
58022589926,-0.413024902344,0.130432128906,0.359741210938,0.826416015625
58022610381,-0.414794921875,0.12841796875,0.360473632812,0.825500488281
58022626606,-0.416015625,0.126525878906,0.360900878906,0.825012207031
58022649066,-0.416198730469,0.125122070312,0.360717773438,0.8251953125
58022670302,-0.415588378906,0.124755859375,0.360656738281,0.825561523438
58022687073,-0.415100097656,0.124938964844,0.360717773438,0.825744628906
58022716617,-0.415893554688,0.12451171875,0.361694335938,0.825012207031
58022723409,-0.416259765625,0.12353515625,0.362243652344,0.82470703125
