58014373477,19,-42,-5,-19,-7,-52,0,35
58014373477,-14,23,11,6,10,3,-4,0
58014374275,-26,61,16,13,16,61,0,-41
58014374275,10,-14,0,-17,-5,-24,0,14
58014376225,-7,16,10,6,3,-7,-4,4
58014376225,-23,52,14,10,14,52,-2,-32
58014376901,1,-15,0,-10,0,-8,0,3
58014376901,0,-5,-3,-12,0,-25,-3,19
58014383521,-22,58,15,10,13,44,-2,-30
58014383521,-4,11,4,-12,1,14,2,-10
58014389868,11,-32,-8,-14,-6,-39,-2,24
58014389868,-10,19,6,8,7,12,-4,-9
58014404849,-9,19,0,4,2,31,0,-22
58014404849,15,-37,-12,-9,-10,-33,-1,18
58014422401,-2,-4,0,0,0,-15,-2,9
58014422401,-17,28,7,10,5,33,0,-23
58014425265,4,-14,-8,-9,-3,-4,2,1
58014425265,8,-15,-2,-5,-8,-26,-1,14
58014443547,-8,16,8,9,4,12,-2,-10
58014443547,-5,-6,-4,1,-1,8,-1,-9
58014450254,3,-20,0,-5,0,-16,2,11
58014450254,-2,3,4,5,-2,3,-3,-4
58014490533,27,-64,-16,-22,-14,-64,2,42
58014490533,-6,14,3,9,7,-4,-6,2
58014491398,-18,35,7,11,7,49,1,-35
58014491398,16,-38,-7,-17,-12,-39,2,20
58014492151,-1,3,5,4,2,-10,-3,9
58014492151,-19,34,9,6,4,40,1,-29
58014495375,10,-24,-9,-12,-8,-21,0,9
58014495375,4,-11,1,-4,4,-28,-4,20
58014502060,-24,57,16,14,15,49,-4,-34
58014502060,1,7,10,-5,1,7,1,-9
58014509653,6,-10,3,-14,0,-34,-4,20
58014509653,-17,42,12,9,11,24,-1,-13
58014518592,-18,39,12,1,9,34,1,-23
58014518592,5,-12,-4,-12,-1,-25,0,13
58014532104,-6,30,12,3,7,3,-5,3
58014532104,-20,56,11,2,7,44,1,-29
58014541093,-2,10,1,-7,4,1,-2,-5
58014541093,1,5,5,-9,1,-9,-3,9
58014563568,-17,33,6,5,7,26,0,-15
58014563568,-7,15,1,-5,4,13,0,-8
58014565026,-3,2,1,-5,-3,-10,-3,3
58014565026,-9,22,7,2,2,17,2,-9
58014577873,-9,18,4,-2,2,21,0,-12
58014577873,1,-4,1,-7,-7,-7,-3,5
58014584579,-12,8,5,-5,3,7,-1,-3
58014584579,-6,16,0,-3,1,19,-1,-13
58014601059,-1,-9,-5,-14,-5,-12,-2,2
58014601059,-5,5,-2,-2,-3,2,0,0
58014602537,-12,20,2,-7,3,22,2,-11
58014602537,-1,-2,-2,-9,-2,-4,2,5
58014623400,3,-6,-4,-7,-4,-9,1,8
58014623400,-7,13,6,2,3,16,-2,-11
58014624988,0,4,-10,-8,-8,-1,0,-5
58014624988,0,-23,-14,-10,-8,-18,-3,9
58014637785,0,-2,-6,-5,-3,0,1,-3
58014637785,0,-16,-6,2,-4,8,-1,-9
58014644702,13,-34,-14,-8,-11,-18,-3,10
58014644702,4,-16,-13,0,-9,-13,-2,4
58014668510,-2,-2,-8,5,-9,8,-3,-5
58014668510,7,-30,-14,-4,-12,-19,-1,4
58014670086,5,-27,-10,-2,-9,-15,0,9
58014670086,-3,-13,-4,6,-5,11,1,-8
58014683556,4,-23,-12,-3,-7,7,1,-5
58014683556,23,-50,-23,-22,-18,-49,-5,38
58014685001,-7,18,3,21,6,26,0,-6
58014685001,-18,34,5,12,8,29,7,-49
58014697885,42,-63,-27,-31,-31,-73,-5,50
58014697885,-2,21,6,19,3,14,-5,21
58014704736,-38,30,20,31,19,31,8,-55
58014704736,29,-86,-24,-35,-24,-78,-6,35
58014720983,15,-14,-6,-7,-6,-12,-10,31
58014720983,-39,46,17,21,23,60,6,-56
58014722518,15,-48,-21,-20,-16,-22,0,3
58014722518,28,-15,-14,-26,-14,-13,-10,45
58014743446,-35,69,20,32,21,69,4,-32
58014743446,-11,6,0,2,1,5,3,-23
58014745011,29,-29,-11,-22,-19,-41,-7,46
58014745011,-11,38,8,17,11,27,-4,5
58014757720,-27,12,13,16,12,13,4,-32
58014757720,23,-50,-18,-25,-14,-50,-1,20
58014764648,10,-3,-3,-7,-2,-4,-5,20
58014764648,-21,22,7,15,10,30,5,-32
58014781031,5,-24,-6,-12,-8,-17,1,-2
58014781031,14,-9,-10,-13,-12,-8,-8,20
58014782507,-16,35,13,19,15,36,-1,-18
58014782507,-4,4,0,4,1,3,5,-9
58014803515,12,-16,-11,-14,-9,-18,-5,19
58014803515,-6,21,5,5,3,13,-1,-3
58014805075,-9,6,1,7,5,5,1,-10
58014805075,9,-30,-10,-16,-10,-33,-3,18
58014817886,2,-7,0,-1,3,-1,-1,5
58014817886,-11,10,3,1,1,12,0,-17
58014824716,8,-17,-7,-11,-7,-16,0,4
58014824716,4,-5,-3,-2,-3,-2,-3,9
58014841103,-17,25,10,13,10,25,-1,-18
58014841103,1,-7,-4,-4,-1,-1,0,-3
58014842603,7,-8,-8,-6,-8,-7,-4,13
58014842603,-11,12,6,4,4,14,1,-5
58014863535,-4,-1,3,1,-2,0,3,-5
58014863535,8,-21,-6,-11,-6,-20,-1,10
58014865055,0,8,1,3,2,4,-2,1
58014865055,-7,4,5,8,5,6,-2,-13
58014877145,4,-11,-3,-3,-3,-14,0,6
58014877145,0,-1,2,4,3,0,-2,2
58014886091,-9,11,-1,-2,-3,14,0,-13
58014886091,1,-8,-2,-2,-3,-4,-2,0
58014901041,5,-5,-9,-9,-2,-3,-3,6
58014901041,-5,13,0,2,3,10,-1,-9
58014902544,-2,-4,4,-6,-2,-2,-2,0
58014902544,5,-8,0,-2,-3,-10,-1,10
58014923559,-4,6,4,3,1,4,-3,-3
58014923559,-8,1,4,8,3,2,0,-7
58014925010,3,-15,-4,-5,-1,-14,-1,10
58014925010,-2,1,1,7,-2,1,-1,0
58014937180,-5,6,0,0,0,10,1,-10
58014937180,7,-8,-2,-8,-3,-6,1,3
58014946047,3,-1,-7,-4,-5,-1,-2,7
58014946047,-7,4,4,4,3,18,-1,-8
58014961056,0,-3,-4,-5,-6,-3,0,1
58014961056,6,-3,-2,1,-4,-7,-2,9
58014962582,-6,12,1,1,-1,4,0,-4
58014962582,-4,3,4,6,1,-2,0,-7
58014983526,1,-15,-5,-6,-6,-19,-4,9
58014983526,-4,2,2,5,3,2,-2,-2
58014985036,-5,3,-3,-5,-1,4,0,-8
58014985036,3,-13,-8,-7,-8,-7,-2,3
58014997210,4,0,-5,-9,-5,1,-3,4
58014997210,-9,14,4,8,6,15,1,-10
58015006081,3,-5,-1,0,-3,-3,0,1
58015006081,5,1,3,3,5,-4,0,7
58015021143,-6,7,6,8,6,5,-1,-4
58015021143,-4,-2,0,-1,3,-2,0,-4
58015022518,8,-20,-6,-11,-4,-18,-3,8
58015022518,-3,10,2,0,2,0,-4,-2
58015043546,-3,0,-6,-5,-2,2,2,-7
58015043546,3,-16,-5,-5,-9,-5,-1,5
58015045033,1,1,-2,0,-1,1,-1,3
58015045033,-10,22,4,6,5,20,2,-12
58015057196,0,-3,0,-4,2,-2,-2,1
58015057196,-1,2,2,3,-3,-3,1,5
58015066083,-7,5,3,6,3,4,-3,-4
58015066083,-3,-5,0,-1,-4,-5,1,-2
58015081089,8,-22,-6,-7,-2,-19,-2,12
58015081089,-4,2,1,-2,6,0,-1,-2
58015082505,-1,1,-5,-2,-2,1,-1,-5
58015082505,5,-16,-6,-10,-7,-8,-1,4
58015103692,1,2,-2,1,-1,2,-2,0
58015103692,-7,21,4,9,6,20,1,-10
58015105043,2,-4,-3,0,0,-1,1,0
58015105043,1,3,-2,-1,-2,-3,-3,7
58015117058,-10,5,2,9,0,6,1,-3
58015117058,-1,-4,-1,-4,-3,-5,-2,-2
58015126050,6,-20,-2,-3,-5,-18,-1,9
58015126050,-3,-1,-5,-3,0,-1,0,-2
58015141027,-5,0,8,8,4,3,2,-9
58015141027,7,-12,-5,-6,-5,-6,-2,6
58015142526,1,2,4,5,1,3,3,1
58015142526,-7,14,5,3,4,19,1,-15
58015163545,1,-1,-2,-2,-5,0,-3,0
58015163545,2,-1,-7,-10,-5,-3,-1,9
58015165009,-7,6,2,2,3,3,-2,-5
58015165009,-2,-6,-4,-3,-4,-5,-2,0
58015177185,7,-14,-5,-5,-3,-16,-2,12
58015177185,-4,0,-2,0,0,-1,-2,-2
58015186093,-5,0,9,15,10,3,2,-9
58015186093,4,-6,-3,-2,-3,-10,-3,7
58015201074,-5,3,2,1,4,3,-2,-2
58015201074,-5,12,-2,1,-3,12,1,-11
58015202539,1,-1,2,-6,-2,0,-2,0
58015202539,7,-1,-9,-8,-5,-2,-2,8
58015223546,-6,17,6,11,2,6,1,-6
58015223546,-2,-3,-4,-3,-3,-4,0,-1
58015225010,4,-8,-2,-2,-1,-12,-3,10
58015225010,-3,-3,1,1,5,-1,-2,-1
58015237146,-9,-3,6,7,7,-1,-3,-10
58015237146,4,-11,-5,-8,-6,-9,-4,4
58015253547,-2,4,-1,2,-4,2,-2,1
58015253547,-3,6,1,-2,1,14,1,-11
58015261056,4,-3,-6,-9,-1,0,-3,2
58015261056,5,0,-3,-4,-3,0,-1,7
58015262505,-11,17,0,5,3,12,-1,-7
58015262505,-2,-3,1,0,-3,-4,0,1
58015283399,4,-5,0,2,-4,-13,0,6
58015283399,-5,-1,4,9,6,0,-2,-2
58015285007,-11,-3,-1,-1,-1,-2,-1,-7
58015285007,6,-22,-7,-11,-4,-16,-2,7
58015305827,-2,1,0,-4,1,2,-1,0
58015305827,-8,3,2,0,2,14,0,-12
58015307450,7,-3,-6,-8,-6,0,1,1
58015307450,-2,3,-5,-3,-4,2,-2,7
58015320949,-8,17,4,8,4,16,-1,-9
58015320949,-2,-1,-2,3,2,-3,-1,1
58015322620,1,-3,-2,0,0,-14,-5,8
58015322620,-3,4,6,7,2,1,-1,-2
58015343534,-2,-6,-4,-6,-3,-2,4,-9
58015343534,6,-22,-5,-9,-10,-20,-2,10
58015345043,2,0,1,1,-1,2,-4,-1
58015345043,-4,6,-1,4,0,10,1,-11
58015366053,5,-4,-7,-11,-7,-1,-1,2
58015366053,1,4,1,1,-3,2,-1,7
58015367539,-7,18,7,6,5,20,1,-12
58015367539,-2,-1,0,-6,-2,-1,1,1
58015381032,4,-7,-2,1,-1,-13,-2,8
58015381032,-5,3,2,4,4,2,-1,-4
58015382559,-3,-4,-2,-2,-2,-3,0,-6
58015382559,9,-22,-6,-11,-6,-19,-3,8
58015403562,-1,-2,1,3,-2,1,-2,-1
58015403562,-6,5,4,5,3,11,2,-10
58015405013,5,-5,-1,-10,-5,-4,2,3
58015405013,5,3,3,3,1,3,-1,5
58015426068,-9,15,4,5,5,18,-2,-11
58015426068,0,-1,-6,-5,-3,-2,-3,0
58015427530,4,-12,-9,-11,-6,-12,-3,10
58015427530,-6,4,4,6,2,2,-2,-4
58015440997,-1,-5,-4,-4,-3,-4,1,-3
58015440997,7,-14,-1,-6,-3,-16,-1,10
58015442539,-4,-1,-2,7,2,0,0,-2
58015442539,-9,7,2,7,2,12,0,-13
58015462155,2,-8,-8,-5,-4,-4,-2,3
58015462155,1,2,1,3,0,2,0,2
58015471024,-8,9,6,4,2,13,-1,-11
58015471024,2,-2,-4,-5,0,-2,-1,2
58015485984,5,-11,-5,-3,-4,-10,-2,10
58015485984,-5,11,-2,4,-1,2,0,-5
58015487491,2,-2,-5,-7,-3,-3,2,-2
58015487491,4,-12,-4,-2,-3,-12,-3,8
58015508657,-6,1,4,2,2,1,-1,-2
58015508657,-4,7,5,5,2,7,-2,-13
58015509998,3,-10,-2,-4,-7,-4,-2,2
58015509998,1,1,2,-2,-5,1,-2,5
58015522073,-5,5,2,1,0,11,0,-9
58015522073,0,-5,-6,-4,-3,-2,0,2
58015531102,3,-6,-4,-6,-2,-6,-3,7
58015531102,-7,4,2,5,1,4,2,-4
58015546006,0,-2,1,-2,-3,-3,1,-3
58015546006,4,-13,0,-3,-3,-12,-3,7
58015547531,-2,1,-1,7,0,1,-1,-3
58015547531,-10,6,-3,0,1,7,0,-10
58015568549,5,-8,-5,-10,-1,-5,0,2
58015568549,0,-1,-4,-3,-2,2,-2,4
58015570058,-6,8,0,0,1,10,1,-12
58015570058,3,-4,-6,-6,-6,-3,-3,1
58015582107,3,-2,2,0,2,-6,-3,8
58015582107,-5,5,0,0,3,5,-3,-4
58015591048,-8,-2,2,5,2,-2,0,-4
58015591048,7,-8,-4,-7,-2,-14,1,8
58015606105,-6,2,3,8,4,3,-2,-3
58015606105,-3,2,-2,-2,1,5,0,-10
58015607514,5,-8,-2,-3,-2,-6,0,3
58015607514,3,-1,-5,-6,-4,1,-3,4
58015628433,-5,12,0,2,-1,15,-2,-13
58015628433,3,-5,-3,-5,-3,-3,1,2
58015630058,2,0,2,3,0,-4,-3,5
58015630058,-9,9,2,8,3,6,-2,-5
58015642009,-9,-2,3,4,0,-2,-1,-3
58015642009,6,-14,-4,-5,-3,-15,-3,9
58015651035,-4,1,2,0,3,3,-2,-2
58015651035,-4,-3,-7,-6,0,3,3,-8
58015666004,6,-21,-4,-8,-7,-6,1,5
58015666004,2,-2,-7,-7,-6,2,-1,2
58015667586,-9,18,4,10,3,16,0,-13
58015667586,2,-5,-1,-5,-1,-3,-1,1
58015688535,1,2,1,2,-1,-4,-3,5
58015688535,-8,13,6,7,7,5,0,-4
58015690026,-2,-4,-1,0,-3,-2,0,-2
58015690026,5,-34,-5,-7,-5,-17,-2,9
58015702214,-7,2,0,3,1,2,0,-3
58015702214,-2,-5,-3,-7,-3,1,-2,-7
58015710991,6,-8,-9,-10,-8,-4,-2,4
58015710991,1,3,-1,1,-2,2,-2,1
58015726068,-6,22,3,13,7,20,0,-14
58015726068,3,-4,-4,3,-4,-1,1,1
58015727555,-1,-2,2,1,3,-5,-5,5
58015727555,-7,9,7,5,-1,2,-2,-4
58015748699,1,-3,1,-5,-4,-4,-2,-2
58015748699,5,-24,-6,-5,-2,-18,-3,11
58015750028,-3,6,-4,5,4,1,0,-1
58015750028,-2,-1,-4,-1,2,2,2,-9
58015762185,4,-13,-6,-8,-3,-2,-1,4
58015762185,-2,3,2,-1,0,2,-1,0
58015778572,-10,14,2,5,0,20,1,-11
58015778572,2,0,-1,-3,1,-1,-2,1
58015785898,1,2,-3,-4,-4,-5,-1,6
58015785898,-6,0,6,7,4,1,0,-5
58015787491,-1,-6,0,-7,-2,-5,-1,-2
58015787491,7,-18,-4,-5,-6,-22,-4,12
58015808872,-3,1,0,1,1,-1,-2,-2
58015808872,-6,0,4,7,0,1,3,-8
58015810552,7,-18,-5,-6,-6,-7,-2,7
58015810552,1,4,1,1,-1,4,-4,0
58015830943,-4,9,0,0,2,15,-1,-12
58015830943,2,1,-3,-2,-4,0,0,0
58015832477,4,-1,-9,-11,-7,-3,0,10
58015832477,-8,4,0,3,3,4,2,-5
58015846008,1,-3,-7,-5,-8,-5,-1,0
58015846008,8,-11,-4,-5,-4,-16,-2,10
58015847561,-3,1,1,3,0,-1,-2,-2
58015847561,-6,2,9,11,8,2,1,-10
58015868447,1,0,-1,-7,-5,-7,-2,5
58015868447,-1,4,1,3,2,3,-1,0
58015870007,-2,9,1,1,1,12,1,-12
58015870007,6,0,-2,-4,-2,0,1,1
58015891017,4,-1,-7,-14,-5,-2,-3,8
58015891017,-7,10,0,1,1,5,-2,-6
58015892652,1,-3,-3,-5,-6,-4,0,0
58015892652,5,-2,0,3,-3,-15,0,8
58015905981,-6,-1,5,6,3,-1,0,-2
58015905981,-5,1,4,7,4,1,-2,-8
58015907563,4,-23,-5,-7,-6,-10,-2,8
58015907563,-2,3,2,-1,0,3,0,-1
58015928429,-3,6,-2,-1,-4,12,1,-11
58015928429,3,-1,-3,-2,-6,0,1,1
58015929981,5,3,-5,-4,-3,0,-3,10
58015929981,-7,17,5,11,1,17,-1,-9
58015951055,1,-3,-5,-5,0,-3,-2,1
58015951055,0,-2,-4,-3,0,-13,-3,5
58015952536,-7,2,0,3,9,0,-1,-3
58015952536,-6,-6,0,2,-3,-2,-2,-10
58015965301,6,-28,-8,-8,-7,-15,-3,6
58015965301,-1,0,3,1,-1,3,-3,0
58015972147,-6,5,-2,-1,3,9,0,-12
58015972147,4,-5,-7,-9,-3,-2,-1,1
58015988648,1,4,-2,-1,-1,2,-1,6
58015988648,-9,22,8,10,4,18,-1,-8
58015990068,3,-1,3,0,-2,-2,1,0
58015990068,-1,-5,-2,0,-5,-12,0,7
58016010324,-8,3,7,10,6,0,-1,-2
58016010324,-4,-4,-1,-5,-3,-3,0,-9
58016010976,8,-22,-3,-7,-4,-16,-2,7
58016010976,-1,1,-4,-6,-2,1,-3,1
58016033599,-2,2,0,6,3,13,-1,-10
58016033599,5,-6,-8,-10,-6,-2,0,3
58016034170,0,4,5,3,1,3,0,3
58016034170,-11,11,8,6,5,18,2,-11
58016047933,-3,1,1,0,-3,-2,-1,0
58016047933,3,-8,-2,-3,-7,-12,0,9
58016048545,-7,2,3,4,2,1,-4,-3
58016048545,-3,-3,0,-7,1,-3,-2,-5
58016070323,6,-34,-7,-7,-3,-17,-2,8
58016070323,0,-2,0,-2,0,1,0,-1
58016071002,-5,6,7,8,-1,5,1,-10
58016071002,3,-5,-9,-7,-4,-4,-1,5
58016084674,3,8,0,1,2,2,0,4
58016084674,-13,21,2,6,3,14,-1,-8
58016092835,-4,0,1,-3,-1,0,-2,1
58016092835,7,-9,-8,-10,-6,-14,-4,10
58016116009,-5,7,1,5,-1,0,2,-2
58016116009,-1,-6,-5,-7,-4,-3,-1,-4
58016116704,4,-10,-6,-7,-3,-13,-2,7
58016116704,-5,0,6,4,2,1,-2,-1
58016130195,-5,13,9,4,5,7,-2,-13
58016130195,6,-9,-2,-1,-2,-3,-2,3
58016130965,-1,3,0,1,-3,3,-1,5
58016130965,-8,10,0,6,2,15,1,-11
58016145161,2,0,-7,-6,-4,-2,0,2
58016145161,5,-9,-5,-9,-6,-9,0,8
58016145960,-3,6,1,-1,-2,3,-3,-4
58016145960,1,-2,0,-4,-8,-3,-2,-3
58016167653,7,-11,-1,0,-4,-12,0,8
58016167653,-1,0,4,5,4,1,-1,-3
58016168431,-7,0,-2,2,2,7,1,-13
58016168431,2,-10,-3,-6,-3,-5,1,2
58016190369,1,2,1,-3,-1,2,-2,5
58016190369,-10,9,1,5,0,13,-3,-8
58016190988,2,-3,-4,-3,-4,-1,2,2
58016190988,4,-7,-5,-5,0,-6,-4,7
58016205301,-7,9,5,2,2,4,-1,-5
58016205301,-5,-4,-1,4,4,-3,2,-4
58016205979,6,-6,-4,-2,0,-12,-3,10
58016205979,-2,2,3,7,2,1,-1,-2
58016227786,-8,3,-3,-1,2,7,1,-10
58016227786,4,-20,-4,-4,-8,-5,-2,2
58016228497,1,-1,-2,-5,-2,2,-2,5
58016228497,-6,14,2,2,0,11,0,-11
58016250300,1,-4,-6,-6,-3,-3,0,2
58016250300,4,-1,2,0,1,-7,-3,9
58016250974,-6,8,3,4,1,6,0,-5
58016250974,-6,-2,3,8,4,-2,1,-3
58016265302,4,-6,-2,-3,-2,-14,-1,6
58016265302,-5,4,-2,0,2,3,0,-4
58016266006,-3,-1,-3,-3,2,5,0,-8
58016266006,4,-8,-2,-10,-5,-7,-2,3
58016287785,2,0,-5,-7,-5,1,-5,4
58016287785,-7,12,2,5,3,16,1,-11
58016288459,3,-2,-3,-4,-1,-3,-2,1
58016288459,4,2,5,2,3,-1,1,6
58016310202,-5,9,6,5,6,7,-1,-5
58016310202,-7,1,8,3,3,-3,-2,-4
58016311008,3,-17,-6,-9,-8,-19,-1,6
58016311008,-3,1,0,7,2,2,-3,-2
58016325208,-5,-1,-5,-2,-3,2,1,-9
58016325208,7,-9,-10,-13,-6,-6,-3,1
58016325943,3,1,-4,0,-4,2,-3,4
58016325943,-9,15,5,6,2,16,1,-11
58016347893,2,-4,-1,-1,-6,-2,-2,2
58016347893,2,2,0,4,-4,-5,1,8
58016348525,-8,8,2,8,7,6,-1,-5
58016348525,-1,-3,-1,-3,0,-3,-1,-2
58016370348,7,-20,-4,-12,-8,-20,-2,9
58016370348,-3,1,1,2,2,2,0,-3
58016371025,-3,-1,-1,-7,-2,3,2,-5
58016371025,4,-12,-6,-10,-6,-5,-2,6
58016384687,1,0,1,1,0,3,-1,2
58016384687,-8,11,6,9,5,20,0,-11
58016392857,1,-3,-1,-1,-4,-2,-2,1
58016392857,-4,0,1,2,-1,-3,0,5
58016407946,-9,11,7,5,6,3,-1,-3
58016407946,-3,-1,0,-4,-1,-4,-1,-2
58016408492,8,-20,-2,-7,-3,-21,0,11
58016408492,-4,1,-5,-4,-4,0,-3,-2
58016430305,1,-2,-2,-2,-3,3,2,-6
58016430305,4,-4,-4,-4,-7,-6,-2,6
58016431020,1,3,0,0,-2,4,1,1
58016431020,-6,17,2,6,4,17,-1,-10
58016444711,1,-1,-3,-1,0,0,0,1
58016444711,1,1,-5,-4,-2,-3,-2,3
58016452867,-8,5,-3,4,-1,1,-2,-4
58016452867,0,-4,-3,-5,-2,-4,2,-2
58016467745,5,-23,-5,-5,-5,-19,-4,10
58016467745,-1,0,4,1,-1,0,1,-1
58016468464,-6,1,5,11,5,3,-2,-8
58016468464,8,-4,-3,-8,-5,-10,-2,6
58016490272,0,3,1,0,-1,3,-3,0
58016490272,-5,17,0,-2,0,16,1,-13
58016491004,0,-3,-4,-4,-6,0,0,0
58016491004,3,-2,-6,-8,-10,-1,-2,7
58016504635,-5,13,2,4,-1,6,-3,-7
58016504635,0,-5,-6,-8,-4,-4,-1,0
58016512696,5,-14,-2,-4,-2,-14,-1,9
58016512696,-4,-4,-1,0,3,0,-1,-2
58016527780,-6,0,8,13,5,2,1,-8
58016527780,3,-19,-1,-6,-4,-5,0,5
58016528505,-1,3,2,1,0,4,-2,-1
58016528505,-6,8,1,5,2,13,-1,-11
58016550339,-4,-2,-6,-4,-2,0,0,1
58016550339,1,0,-4,-7,-6,-1,-2,11
58016550976,-6,9,2,8,3,10,-1,-8
58016550976,-1,-5,-3,-5,-4,-3,1,-1
58016564660,2,-10,0,-2,0,-15,-1,9
58016564660,-4,3,3,4,2,-1,-1,-2
58016572802,-8,-1,8,6,0,0,1,-10
58016572802,9,-14,-7,-5,-2,-11,-3,6
58016587802,0,2,0,-3,-3,3,0,0
58016587802,-3,2,-6,-6,-2,9,-2,-9
58016588471,3,-3,-7,-9,-3,-1,0,1
58016588471,2,-1,-2,-6,-4,1,0,5
58016610290,-9,24,3,8,1,11,1,-8
58016610290,3,-2,-4,1,-1,-3,-1,0
58016610978,3,-1,-2,0,-3,-15,-3,9
58016610978,-6,1,4,10,5,0,0,-2
58016624641,-7,-12,1,0,0,-1,1,-9
58016624641,8,-25,-8,-10,-8,-18,-3,9
58016640233,-3,0,-2,-1,0,2,-2,0
58016640233,-4,3,-2,-3,-3,11,-2,-10
58016647645,3,-5,-8,-15,-6,-1,1,3
58016647645,6,2,-3,-4,0,2,-2,5
58016648911,-7,23,3,9,7,17,0,-12
58016648911,1,-3,-5,-2,-2,-2,0,1
58016670603,2,-3,-7,-3,-4,-13,-3,11
58016670603,-8,6,7,9,4,1,1,-3
58016671390,-5,-7,-7,-4,-3,-3,-1,-7
58016671390,9,-26,-6,-12,-4,-16,-1,6
58016684490,0,-1,-1,-2,-1,2,1,-1
58016684490,-7,6,1,8,1,12,1,-12
58016692727,6,-6,-4,-14,-7,-3,0,3
58016692727,0,4,1,2,-4,2,-2,5
58016707914,-9,23,5,8,4,16,0,-10
58016707914,-2,0,-2,1,0,-2,-1,1
58016708527,3,-7,-1,-3,-3,-12,-3,9
58016708527,-6,3,3,5,3,2,-2,-2
58016730332,4,-5,3,2,-3,-3,0,-6
58016730332,6,-29,-7,-11,-7,-19,-1,7
58016731023,-3,-2,2,-1,1,1,-2,0
58016731023,-8,8,2,6,3,11,2,-9
58016753492,3,-3,-3,-2,-7,0,-1,1
58016753492,3,5,4,2,-2,3,-1,3
58016754108,-7,21,1,6,4,16,0,-11
58016754108,-1,1,-1,-2,0,-2,-1,1
58016767737,3,-10,-6,-9,-4,-12,-2,9
58016767737,-3,2,3,1,2,3,-2,-3
58016768523,-1,-11,-4,-9,-4,-3,2,-4
58016768523,7,-22,-5,-4,-5,-16,-3,8
58016790245,-4,-3,-1,3,1,1,-3,-2
58016790245,-12,13,4,7,5,10,0,-11
58016790976,3,-5,2,-4,-4,-2,-3,3
58016790976,2,4,2,3,3,2,0,3
58016813524,-9,10,1,4,-1,10,-3,-8
58016813524,1,-1,-1,-4,0,-2,-1,1
58016814189,7,-6,-9,-9,-8,-10,-1,8
58016814189,-7,8,-3,6,-4,4,-2,-4
58016827772,1,-4,-6,-6,-4,-2,-1,-3
58016827772,6,-6,-2,-4,-3,-11,-1,9
58016828534,-5,0,6,8,3,1,0,-2
58016828534,-6,6,5,1,-2,5,1,-12
58016850300,3,-7,-3,-6,0,-3,0,2
58016850300,0,1,-5,-1,0,1,-5,4
58016850949,-7,14,-3,-5,-3,3,0,-8
58016850949,2,0,-3,-7,-5,-2,2,2
58016873480,6,-7,-2,0,-3,-7,1,7
58016873480,-5,5,2,2,2,4,1,-4
58016874149,-3,-3,-4,4,2,-1,0,-3
58016874149,4,-12,1,-5,-5,-13,-3,9
58016888283,-5,1,2,3,4,1,-1,-2
58016888283,-4,3,-2,-2,-3,5,0,-8
58016888973,5,-13,-5,-2,-3,-5,-1,2
58016888973,0,2,-4,-5,-3,2,-2,5
58016910338,-9,5,1,2,4,12,-1,-10
58016910338,3,-4,-4,-8,-7,-4,1,1
58016911002,3,-4,1,1,1,-5,-4,9
58016911002,-10,1,4,4,4,6,-1,-4
58016933527,-2,-1,4,5,3,-3,-1,-3
58016933527,4,-15,-4,-3,-1,-14,-3,7
58016934178,-4,0,3,0,3,3,-1,-3
58016934178,-2,3,-5,-3,0,4,1,-10
58016947780,3,-11,-3,-5,-6,-6,0,3
58016947780,6,0,-6,-3,-7,1,1,3
58016948451,-7,11,4,5,1,13,0,-10
58016948451,3,-5,-4,-6,-2,-4,1,2
58016970290,-1,0,3,-1,0,-6,-4,7
58016970290,-8,8,1,5,-1,5,0,-5
58016970953,-3,-1,5,2,5,-2,-1,-5
58016970953,6,-14,-5,-7,-5,-15,-2,10
58016993525,-4,2,-1,4,-2,3,0,-3
58016993525,-4,-2,-2,-6,-5,2,0,-8
58016994172,5,-14,-6,-6,-9,-5,-2,2
58016994172,0,2,-6,-2,-2,1,-3,4
58017007801,-4,16,3,5,7,19,0,-11
58017007801,3,-2,-6,-1,-5,-3,-2,2
58017008499,-2,1,2,7,4,-4,-2,6
58017008499,-8,6,7,9,5,5,0,-4
58017030268,-2,-3,-1,0,-4,-4,0,-3
58017030268,6,-20,-4,-9,3,-15,-1,10
58017030982,-5,2,2,0,-1,2,0,-2
58017030982,0,1,-6,-7,-1,4,0,-8
58017053504,8,-14,-7,-9,-8,-5,-2,5
58017053504,1,1,-1,1,-2,2,-2,1
58017054201,-8,21,7,2,0,19,0,-10
58017054201,4,-3,1,-3,-5,-3,-2,1
58017067738,3,1,1,3,1,-3,-2,2
58017067738,-7,11,4,8,6,3,1,-4
58017068474,-3,-5,-4,-3,-6,-3,-2,-1
58017068474,5,-22,-6,-10,-7,-21,-2,9
58017091094,-1,2,1,-3,-3,0,0,-1
58017091094,2,-2,-2,0,-4,1,-2,-6
58017091701,7,-7,-4,-3,-4,-6,-4,4
58017091701,0,4,1,2,-1,2,-2,1
58017113386,-10,20,2,5,7,21,-1,-14
58017113386,2,-1,1,-1,-1,-1,-1,0
58017114105,1,-2,-2,-4,-2,-2,-1,5
58017114105,-7,7,4,7,4,1,-1,-6
58017127737,-4,-5,-2,-5,0,-5,1,-1
58017127737,0,-15,-4,-5,-4,-17,-4,9
58017128512,-1,2,2,0,-3,0,1,-2
58017128512,-7,-2,5,9,7,4,-1,-9
58017150894,4,-6,-1,-2,-3,-3,-1,5
58017150894,-7,2,4,2,2,3,0,-1
58017151665,-10,17,-1,1,-1,16,-1,-11
58017151665,2,1,-3,-1,-4,0,0,0
58017173380,2,-1,-8,-10,-8,-3,-3,8
58017173380,-6,6,-2,4,3,5,-2,-5
58017174098,-1,-7,-2,-3,-1,-4,0,-1
58017174098,3,-12,-4,-7,-6,-15,1,9
58017187656,-3,-2,1,3,-1,-1,-3,-2
58017187656,-6,-1,9,12,8,1,1,-9
58017188469,5,-8,-5,-5,-4,-9,-3,5
58017188469,-2,4,2,2,5,3,-3,0
58017210847,-5,12,1,2,-1,14,-1,-10
58017210847,4,1,-5,-8,-6,0,1,0
58017211611,8,-3,-8,-10,-7,0,-1,9
58017211611,-8,11,0,7,-1,10,0,-9
58017233496,-2,-5,-1,-3,0,-5,-1,0
58017233496,2,-5,3,-1,-2,-14,-3,8
58017234192,-2,-2,-1,1,6,0,-1,-3
58017234192,-5,-1,9,8,1,-1,0,-9
58017247776,5,-18,-5,-9,-7,-11,1,6
58017247776,-2,1,0,0,2,3,-4,-1
58017248453,-5,3,-1,-2,1,12,-1,-9
58017248453,6,-2,-4,-9,-2,0,-1,1
58017270949,6,0,-7,-7,-3,0,-2,10
58017270949,-8,13,5,8,2,13,0,-6
58017271649,0,-4,-5,-1,-2,-3,-2,0
58017271649,5,-2,-3,0,-7,-19,-5,10
58017293574,-7,1,6,5,2,-1,1,-3
58017293574,-4,-3,-3,0,-3,-3,1,-10
58017294177,10,-27,-6,-11,-9,-13,1,6
58017294177,-3,0,1,-2,0,3,-3,0
58017316080,-4,4,-3,0,1,10,1,-10
58017316080,6,-6,-7,-13,-10,-1,-1,2
58017316635,0,4,1,1,-1,1,-1,6
58017316635,-9,14,3,6,8,12,-2,-9
58017331017,2,-3,-5,1,-3,-3,-2,0
58017331017,4,-3,-3,-4,0,-16,-1,8
58017331655,-4,4,3,6,8,-1,0,-3
58017331655,-6,-5,-7,-4,-4,-1,3,-7
58017353389,6,-26,-5,-10,-2,-18,-5,7
58017353389,-1,-1,1,0,-1,1,-1,0
58017354141,-7,5,4,2,1,8,2,-11
58017354141,6,-6,-5,-7,-2,-1,0,3
58017367115,1,3,-1,6,-1,2,-1,5
58017367115,-7,14,5,12,6,15,-1,-8
58017375339,-2,-1,-2,2,-3,-2,-1,1
58017375339,5,-6,-3,-5,-1,-10,0,8
58017390945,-5,2,4,6,-1,-1,-2,-3
58017390945,-4,-6,-4,-8,1,-2,1,-6
58017391722,4,-22,-8,-10,-8,-18,-2,9
58017391722,1,-2,-3,2,-4,0,-2,0
58017413981,-8,8,4,5,3,10,0,-11
58017413981,5,-5,-4,-4,-5,-2,-3,2
58017414598,1,3,1,4,-1,3,-1,5
58017414598,-8,15,4,11,3,15,-2,-9
58017427139,-1,-2,-4,-2,-2,-2,-2,1
58017427139,5,-10,-8,-5,-8,-11,-3,10
58017435358,-5,2,1,1,0,2,-1,-3
58017435358,-2,-7,-4,-5,-3,-3,1,-6
58017450976,9,-15,-2,-6,-5,-12,0,9
58017450976,-6,-2,4,1,3,0,-1,-1
58017451695,-7,9,2,6,3,9,0,-14
58017451695,6,-2,-1,-5,-7,-5,-1,2
58017473373,-1,2,0,1,-3,2,-1,3
58017473373,-6,13,0,6,1,13,1,-9
58017474119,-1,-1,-6,-5,-3,-2,0,1
58017474119,4,-8,-8,-5,-5,-9,-4,11
58017487005,-4,9,1,2,2,3,-1,-5
58017487005,-2,-3,-4,-5,-4,-3,0,-4
58017494892,7,-14,-1,-6,-6,-14,-4,9
58017494892,-2,0,3,4,4,1,-2,-2
58017510848,-5,1,3,2,3,8,1,-10
58017510848,2,-11,-2,-7,-2,-4,0,2
58017511595,0,2,-1,4,2,2,-3,3
58017511595,-10,5,3,1,0,12,2,-11
58017533454,0,-3,-4,-11,-6,-3,1,1
58017533454,3,-5,1,-1,-7,-7,-1,8
58017534133,-6,8,3,3,2,5,0,-4
58017534133,-3,-2,-2,0,1,-2,0,-2
58017547044,3,-14,-5,-3,-5,-12,-1,7
58017547044,-1,1,2,1,1,1,-2,-3
58017555189,-4,6,2,-5,-2,6,-1,-10
58017555189,2,-11,-5,-8,-4,-5,-1,2
58017570178,1,1,-2,-3,-4,1,-3,6
58017570178,-6,10,5,4,3,13,0,-10
58017576973,4,-4,-5,-4,-4,-2,0,1
58017576973,3,-2,-1,0,-1,-6,-2,8
58017593356,-5,0,1,8,2,5,1,-4
58017593356,-7,-2,8,8,6,-2,0,-5
58017594128,4,-10,-3,-3,-1,-11,-2,9
58017594128,-9,0,5,3,3,3,-2,-3
58017607030,-4,-3,-3,-4,0,3,-2,-10
58017607030,8,-9,-8,-7,-7,-8,-1,2
58017616003,4,-3,-5,-10,-7,1,0,5
58017616003,-8,10,3,7,4,15,2,-11
58017630885,2,-3,-3,-8,-6,-3,1,2
58017630885,4,-3,-2,1,1,-3,-1,7
58017632527,-9,5,1,7,4,7,0,-6
58017632527,-5,-3,2,6,-1,-2,1,-4
58017653394,2,-9,-3,-7,-3,-16,-2,9
58017653394,-2,-1,4,4,-4,2,-4,-3
58017654945,-2,-6,-6,-4,-3,4,1,-8
58017654945,7,-5,-7,-12,-4,-6,-2,3
58017667003,7,0,-2,-2,-2,2,-2,3
58017667003,-9,11,1,2,5,15,-2,-11
58017675945,2,-6,0,-2,-2,-4,-1,1
58017675945,2,-2,-1,-1,0,-6,0,5
58017690809,-9,11,3,7,3,5,1,-5
58017690809,-5,-3,0,-1,-1,-3,3,-2
58017692448,6,-18,-6,-5,-7,-18,-5,7
58017692448,-5,1,-1,-1,-3,2,-2,-2
58017712466,1,-9,-3,-9,-3,5,1,-7
58017712466,3,-11,-7,-9,-5,-5,-2,2
58017721017,-1,0,-1,2,2,1,-2,3
58017721017,-4,11,4,5,3,16,-1,-13
58017735865,-2,-5,-2,0,-2,-3,-1,1
58017735865,1,0,2,2,-1,-4,-2,3
58017737463,-3,5,2,8,5,2,2,-4
58017737463,1,-4,0,-5,-5,-3,0,-2
58017750848,4,-20,-3,-5,-6,-19,-2,11
58017750848,-3,1,-1,1,2,1,-1,-2
58017752421,1,-1,-3,-3,-4,2,1,-5
58017752421,6,-14,-6,-6,-7,-9,-4,6
58017780870,-1,3,2,-2,3,2,-1,0
58017780870,-4,18,-1,6,-1,20,1,-13
58017782470,0,-2,2,-3,-3,-1,0,0
58017782470,1,0,-2,-4,-7,-3,-1,11
58017795835,-7,9,2,5,7,3,-1,-6
58017795835,1,-5,-3,-4,-1,-5,-1,-1
58017797467,5,-19,-4,-6,-3,-22,-3,10
58017797467,-3,2,0,1,3,0,1,-3
58017811313,-6,1,2,4,5,2,-1,-8
58017811313,6,-7,-2,-3,-4,-7,-1,7
58017812902,0,4,2,2,2,4,0,0
58017812902,-8,17,1,5,6,16,1,-10
58017833413,-2,-2,-1,-1,-1,-1,-1,0
58017833413,5,0,-6,-10,-6,-3,-2,9
58017834974,-6,5,0,1,-1,5,1,-6
58017834974,2,-5,-3,-3,-2,-4,0,-2
58017855831,8,-13,-2,-6,-3,-14,-1,6
58017855831,-3,-2,0,1,3,-1,-1,-2
58017857463,-6,1,8,12,6,1,-1,-10
58017857463,4,-13,-5,-3,-3,-5,-3,5
58017870224,2,4,0,1,-4,3,0,1
58017870224,-8,8,3,4,2,15,0,-11
58017877086,-2,-1,-2,-2,-2,1,1,1
58017877086,5,0,-7,-10,-6,-1,-3,7
58017893494,-9,14,4,8,1,11,0,-7
58017893494,-1,-4,-5,-4,-6,-4,-3,0
58017894982,3,-6,0,-1,-4,-14,-1,11
58017894982,-5,1,1,6,4,0,-2,-2
58017915976,-5,-1,4,4,5,-1,0,-11
58017915976,6,-10,-5,-5,-6,-12,-1,5
58017917460,-5,3,2,2,2,3,-3,0
58017917460,-9,5,5,0,3,14,1,-12
58017930300,6,-5,-6,-11,-4,-1,-1,2
58017930300,2,0,-5,-5,-4,1,-3,6
58017937204,-9,13,2,7,7,12,-1,-8
58017937204,3,-3,-3,-6,-5,-4,1,0
58017953526,3,-4,-1,5,1,-10,-4,8
58017953526,-4,2,2,7,9,0,-2,-1
58017954998,-4,-2,1,3,1,0,2,-10
58017954998,3,-20,-3,-9,-6,-18,-3,7
58017976016,-7,1,3,-1,-1,1,0,1
58017976016,-2,5,-1,-1,0,12,0,-9
58017977491,3,-5,-7,-11,-9,0,-1,1
58017977491,1,2,2,-2,-3,2,-2,6
58017990301,-12,18,7,9,5,13,-4,-9
58017990301,-2,-3,-2,2,0,-3,2,1
58017997013,3,-5,-2,-1,-4,-12,-1,6
58017997013,-6,5,3,4,2,1,0,-3
58018013451,-3,-5,-1,-5,-4,-3,0,-7
58018013451,7,-22,-3,-12,-6,-18,-2,7
58018014959,-4,0,-3,-4,0,1,-6,0
58018014959,-6,5,-2,2,4,11,0,-12
58018035971,6,-8,-2,-8,-1,-4,-3,3
58018035971,-3,2,1,1,0,2,-1,7
58018037489,-5,22,5,11,3,17,-1,-10
58018037489,-2,-2,-5,-2,-3,-2,-4,1
58018058422,1,-8,-4,-3,-3,-7,0,6
58018058422,-7,2,4,4,4,1,-4,-4
58018059962,-2,-8,-2,-9,0,-3,0,-6
58018059962,6,-25,-9,-5,-8,-18,-2,7
58018073346,-2,0,-6,-1,0,0,0,-1
58018073346,-7,5,-2,4,1,11,0,-11
58018074933,4,-8,-4,-7,-6,-2,0,3
58018074933,3,3,1,3,4,3,-4,2
58018095969,-12,22,6,11,7,19,-1,-9
58018095969,2,-1,2,0,-2,-1,2,0
58018097451,2,-10,-6,-7,-6,-12,-2,11
58018097451,-7,5,2,3,3,2,-1,-1
58018110379,2,-7,-6,-5,-8,-5,-1,-5
58018110379,6,-16,-6,-6,-5,-15,-1,7
58018117082,-1,-1,4,3,-1,0,-1,-2
58018117082,-8,4,5,6,4,8,-2,-13
58018133495,7,-7,-5,-5,-7,-8,-2,3
58018133495,-3,1,1,3,5,2,-2,1
58018134977,-7,7,-1,3,0,15,5,-8
58018134977,4,-2,-5,-6,-1,-1,1,2
58018155981,4,-8,-4,-10,-5,-12,-2,11
58018155981,-8,6,4,2,1,4,-2,-4
58018157595,1,-2,-2,-4,-4,-3,-1,-2
58018157595,7,-8,-2,-4,-3,-11,-2,8
58018169541,-2,-1,-2,0,5,2,-3,-2
58018169541,-8,6,5,6,4,7,-1,-12
58018178523,0,-6,0,0,-3,-3,-2,1
58018178523,-1,1,-2,-3,-1,2,1,6
58018193455,-7,6,3,6,4,11,0,-8
58018193455,-2,-3,-2,-9,-6,-2,-3,2
58018194954,3,-7,-4,-4,3,-7,-3,9
58018194954,0,3,4,5,2,3,1,-3
58018215977,-8,-2,4,5,7,-2,-1,-5
58018215977,6,-4,0,-2,-3,-11,-1,5
58018217451,3,3,-6,0,1,0,-2,-3
58018217451,-6,6,6,-2,-5,2,-3,-9
58018229585,2,-9,-8,-6,-5,-7,-3,3
58018229585,1,-1,-15,-9,-9,1,-8,6
58018238523,-3,-4,3,4,4,18,7,-4
58018238523,-4,-5,3,1,-2,-2,-1,2
58018253531,8,-3,-4,-3,-5,-4,2,9
58018253531,-3,7,-9,2,0,5,-1,-2
58018255017,-12,1,5,8,2,-4,-9,-7
58018255017,0,-9,-5,-5,-4,-9,1,6
58018275861,3,3,8,2,-3,3,-3,-3
58018275861,-2,0,12,-4,-3,6,1,-8
58018277512,0,-12,-7,-4,-7,-8,-2,3
58018277512,4,0,-14,-26,-7,2,-2,5
58018289620,-8,14,12,23,5,9,-2,-8
58018289620,-3,-5,-3,11,1,-3,5,2
58018298463,3,3,8,-8,4,-6,0,8
58018298463,-7,5,5,3,3,3,1,-5
58018313530,-9,-2,-3,-16,-1,-1,0,-4
58018313530,6,-16,-8,-7,-1,-7,3,8
58018315014,-3,5,2,2,3,1,0,-3
58018315014,-9,-6,1,9,-7,-6,-8,-14
58018336446,0,-17,-12,-15,-6,-8,-4,3
58018336446,11,-1,8,-1,-1,-2,0,3
58018337927,-6,17,-10,-11,-4,5,-1,-11
58018337927,5,-2,1,6,-1,-1,5,3
58018349658,4,1,3,2,1,-5,-3,2
58018349658,-8,-1,-11,0,1,3,-2,-6
58018358507,-3,-3,4,13,3,-3,1,-5
58018358507,7,-13,4,-2,1,-16,-16,11
58018373455,-7,1,-10,-5,-2,1,12,-2
58018373455,0,0,1,1,-1,2,5,-4
58018374942,6,-13,-6,-4,-5,-2,-1,2
58018374942,-2,0,0,-5,3,3,-3,2
58018395877,-5,19,2,17,3,24,-3,-11
58018395877,1,-7,0,-17,-9,-4,-3,0
58018397460,-5,0,13,15,8,-2,-7,1
58018397460,-9,-1,11,18,1,7,5,-5
58018409625,2,-5,-3,-9,0,-4,2,-3
58018409625,6,-30,12,-4,-1,-12,1,10
58018418494,-7,1,1,1,-2,2,-6,-2
58018418494,3,-3,-20,-14,-4,2,0,-1
58018433552,7,20,6,-6,-3,-7,-1,2
58018433552,1,6,-9,-10,-4,0,-11,1
58018434979,-5,24,-7,-8,-6,9,3,-9
58018434979,4,5,17,6,1,-1,4,1
58018456055,-3,-7,-11,-16,-1,-6,1,3
58018456055,-9,9,3,11,10,3,3,-5
58018457481,0,-2,6,10,-4,-3,-1,-2
58018457481,4,-20,-22,-19,-2,-17,2,12
58018469583,-6,-6,17,23,2,-1,-5,0
58018469583,-4,1,3,6,-1,0,2,-16
58018478515,8,-18,-2,-12,-4,-6,-23,3
58018478515,1,4,-5,1,-2,2,37,-2
58018493509,-11,-7,16,49,7,14,-3,-16
58018493509,2,-6,-10,-24,-7,-3,-10,1
58018494959,4,-5,-17,-20,-1,-2,0,10
58018494959,-9,32,19,6,1,1,-4,-4
58018516161,-4,-5,5,8,-3,-5,-6,0
58018516161,4,-3,7,9,-3,-18,3,11
58018517456,-3,2,7,-3,1,0,4,-2
58018517456,-6,-10,1,9,5,1,-10,-12
58018529599,3,10,-3,-14,-2,0,2,6
58018529599,-2,4,-1,9,4,1,-5,1
58018538518,-11,12,4,0,-1,14,1,-11
58018538518,-1,-8,1,8,-3,0,-4,0
58018552725,6,-5,-17,-26,-2,-1,13,9
58018552725,-6,6,-5,-3,-5,-2,-4,-5
58018559609,4,-5,-1,10,-4,-4,11,0
58018559609,7,-16,-6,-3,-3,-16,-13,8
58018575944,-3,-1,5,9,1,-3,-3,-1
58018575944,-5,3,-1,3,10,6,2,-12
58018577453,9,-16,-9,2,-11,-23,3,8
58018577453,-5,1,2,16,2,2,-8,-2
58018589575,-7,11,-3,-15,-4,16,-1,-7
58018589575,1,-5,-6,-2,-2,-3,-7,1
58018598500,3,-1,0,-3,-3,0,11,7
58018598500,-8,19,4,10,2,14,5,-8
58018612879,-1,-8,-10,-7,-1,-7,-7,-1
58018612879,9,-8,-4,2,-1,-15,5,15
58018619563,-5,-1,-3,-14,2,1,-13,-3
58018619563,-7,-6,-1,-7,6,-1,7,-10
58018636068,6,-16,-5,-14,-7,-8,-32,2
58018636068,-5,1,3,-1,0,1,11,-1
58018637438,-10,10,5,12,5,31,20,-12
58018637438,7,-3,-11,-10,-4,0,-8,1
58018658614,3,-2,-6,-12,-1,-2,-24,7
58018658614,-10,8,9,4,-2,11,15,-13
58018659959,1,-3,-6,5,4,-4,-6,-1
58018659959,5,-3,3,6,-2,-12,-2,9
58018672803,-7,0,4,11,5,-1,13,-5
58018672803,-4,1,0,2,-1,-1,-10,-4
58018679621,4,-23,-4,-13,-4,-20,-6,5
58018679621,-1,-3,-5,-11,-4,1,-15,-2
58018695964,0,5,-2,0,1,9,2,-11
58018695964,0,-3,-6,-4,-6,0,10,3
58018697461,0,2,4,3,-2,0,-10,1
58018697461,-12,20,6,10,5,20,9,-11
58018718495,-1,-3,-8,-7,-5,-3,4,0
58018718495,1,-5,-2,-1,-2,-6,-3,7
58018719964,-4,2,1,2,1,1,-3,-2
58018719964,-1,-8,-4,-10,-4,-2,-25,-4
58018732796,4,-17,-8,-10,-9,-17,48,11
58018732796,-7,0,0,7,3,1,-1,-1
58018739586,2,4,3,-1,-1,-2,-28,-3
58018739586,5,-10,-6,-8,-4,-3,12,4
58018756097,-1,0,3,-2,-3,1,-18,3
58018756097,-10,22,3,8,7,21,13,-9
58018757458,0,-3,-2,-1,-2,1,7,1
58018757458,3,-3,-3,-9,-5,-13,10,11
58018778426,-7,8,4,-2,1,0,-16,-3
58018778426,-3,-6,-9,-8,-4,-5,-11,-6
58018779960,6,-23,-23,-14,-10,-17,-3,11
58018779960,-2,-3,14,5,2,0,5,-1
58018792796,-7,5,-1,6,7,11,1,-3
58018792796,6,-11,-5,-13,-11,-5,-12,1
58018799598,1,5,25,11,4,4,-17,-6
58018799598,-12,12,-11,1,3,21,2,-18
58018816137,9,-3,10,-3,1,-2,-22,0
58018816137,12,-10,6,-2,-3,-10,42,10
58018817470,-19,13,-35,7,2,2,-6,-2
58018817470,2,-1,1,-8,-6,-3,29,0
58018838502,9,-12,-2,-4,-4,-13,-11,6
58018838502,2,1,10,3,-3,-2,-14,-1
58018839936,-10,5,8,-1,2,12,4,-10
58018839936,9,-17,-11,-2,0,-11,-12,2
58018852126,-8,1,-10,-6,-1,2,1,-2
58018852126,-8,9,17,8,6,11,-14,-7
58018860965,0,-2,-31,-16,-7,-1,-2,1
58018860965,7,0,6,4,2,-3,-8,12
58018875939,-6,-4,-29,-24,-5,-2,16,-1
58018875939,-1,0,7,0,0,-3,-18,-8
58018877429,11,-16,8,5,-1,-16,15,12
58018877429,-6,0,20,0,1,-2,1,-2
58018898460,-3,9,-4,13,-1,12,9,-10
58018898460,8,-2,17,5,1,-3,-1,4
58018899962,-4,1,-7,4,0,2,-1,1
58018899962,-4,15,1,-4,-1,4,2,-4
58018912133,4,-2,1,-28,-7,-3,-1,2
58018912133,4,-9,-16,19,-1,-9,-3,10
58018921000,-5,10,23,37,8,5,0,-4
58018921000,-8,-3,0,-17,-4,-3,3,-3
58018935893,4,-7,2,0,-1,-6,-15,5
58018935893,-6,1,-12,-7,-1,-1,3,-2
58018937441,-4,5,5,0,2,2,12,-8
58018937441,2,-18,-21,1,-3,-6,-7,1
58018958503,-2,-1,16,13,-2,-1,-1,4
58018958503,-7,20,-13,-8,7,19,-2,-6
58018959989,5,-4,-6,-21,-8,-1,2,2
58018959989,1,-3,8,4,-3,-8,-13,5
58018972074,-5,7,6,6,2,2,5,-4
58018972074,-5,-6,-4,4,2,-5,-2,-5
58018981030,7,-10,4,0,0,-8,2,7
58018981030,-2,3,-7,4,3,3,-2,-2
58018995994,-5,0,-3,0,-2,2,6,-8
58018995994,4,-19,-10,-18,-15,-12,-1,2
58018997452,2,-2,-5,-14,-7,1,2,6
58018997452,-8,15,3,7,7,21,-2,-11
58019018524,-1,-4,0,6,-5,-3,-10,2
58019018524,5,-1,-8,-2,1,-5,-15,9
58019019936,-5,7,3,-2,-1,4,10,-3
58019019936,-2,-2,12,1,1,-3,-1,-3
58019032111,-1,-11,20,1,-1,-14,-8,2
58019032111,-7,1,12,5,5,2,-8,-3
58019041050,0,-3,-15,-25,-6,0,4,-4
58019041050,8,-14,2,7,5,-8,2,2
58019055946,0,-1,-16,0,-5,2,1,8
58019055946,-15,14,-4,-1,2,13,-5,-22
58019057465,1,-3,-1,4,-4,-2,12,0
58019057465,-5,0,10,1,0,-10,-55,7
58019079015,-10,5,3,3,5,2,74,-5
58019079015,-3,-3,0,-5,-1,-3,3,-1
58019080415,4,-13,-1,-3,-4,-13,16,8
58019080415,-2,1,-38,-13,-6,1,-15,-2
58019092097,1,-2,-1,-3,0,8,-9,-5
58019092097,4,-1,13,-1,-1,0,-17,6
58019108529,-4,0,-12,-2,1,2,10,1
58019108529,-10,24,3,8,1,26,16,-10
58019116045,3,-2,-4,0,-2,-2,-23,2
58019116045,1,-2,-1,1,-2,-3,3,8
58019117464,-2,4,3,3,3,3,-18,-2
58019117464,-3,-4,1,0,-3,-3,11,-3
58019138441,12,-24,-10,-10,-5,-23,-5,11
58019138441,0,-1,-5,-2,0,0,-7,-1
58019139940,0,-2,3,-9,-4,1,-10,-6
58019139940,2,-9,-7,-3,-6,-5,8,2
58019152003,4,3,9,10,4,4,-7,3
58019152003,-11,21,-4,-1,1,19,14,-10
58019168497,3,1,5,1,-4,0,-16,0
58019168497,3,0,-2,-6,-4,-3,-15,5
58019175918,-7,10,0,1,2,-1,-9,-3
58019175918,6,-6,-6,-1,-3,-5,-11,-1
58019177443,4,-26,0,-6,-2,-13,11,15
58019177443,-3,2,-4,-1,1,-1,-4,-1
58019198410,-11,0,9,2,1,3,-10,-11
58019198410,10,-11,-9,-7,-6,-8,9,8
58019199967,9,6,16,6,1,2,-13,0
58019199967,-14,6,-5,2,4,16,19,-8
58019212116,-5,-7,-1,-7,-4,1,3,1
58019212116,7,-2,-5,-8,-6,0,4,5
58019220995,-16,5,-7,2,3,2,-10,-6
58019220995,0,-6,-1,-3,-3,-5,9,-2
58019235956,10,-12,-1,0,-3,-16,-6,8
58019235956,-6,-3,6,4,3,-2,-1,-2
58019237461,0,-1,16,13,5,1,1,-9
58019237461,1,8,-2,-3,-3,-4,-2,-3
58019258582,7,3,2,8,9,3,5,0
58019258582,-2,1,-6,-2,2,8,0,-2
58019259981,-5,-5,-6,0,-2,-1,-4,-1
58019259981,22,-4,-7,-10,-10,-3,6,22
58019272072,-3,2,5,12,8,26,7,1
58019272072,-2,-4,-4,-7,-7,-3,0,-1
58019280986,-24,-33,-14,-14,-12,-46,-19,-24
58019280986,-3,-17,-1,-2,1,-5,-13,-4
58019295918,-3,-25,5,8,-3,1,10,9
58019295918,15,-17,4,1,0,-3,3,13
58019297460,4,-1,-12,-19,-14,13,-5,12
58019297460,-9,-2,5,-2,-4,28,-2,-20
58019318420,-9,-2,-9,-3,-4,-1,9,-4
58019318420,-5,-11,-10,-7,-1,1,-5,4
58019319953,-2,42,-4,4,7,6,2,-2
58019319953,0,-13,8,-3,-5,-5,3,3
58019332109,4,84,-13,-8,0,-17,-8,7
58019332109,-7,26,-9,7,-4,1,1,-4
58019341014,1,3,14,7,5,11,12,-16
58019341014,16,14,0,-9,-4,-24,-4,32
58019355271,2,-9,11,3,8,1,0,-2
58019355271,-9,8,18,-6,-4,-8,-9,-34
58019362129,11,-16,0,-6,-9,-3,-2,5
58019362129,6,-7,-15,6,22,2,28,-8
58019378414,-15,-31,-5,2,-6,7,-11,-28
58019378414,-14,-5,-12,-6,-32,-1,-18,4
58019379953,10,-36,-4,5,6,18,20,16
58019379953,-9,17,26,4,4,0,-2,-3
58019392157,-11,-3,9,2,36,-1,14,2
58019392157,9,14,3,-16,-6,-31,-1,2
58019401005,-7,10,11,-12,-11,-6,-15,2
58019401005,-3,17,-6,23,6,15,0,-2
58019416555,2,-6,-16,-15,-29,-7,-15,-1
58019416555,-3,-14,3,16,30,11,12,4
58019417921,-5,14,-9,17,15,6,15,0
58019417921,-9,-8,-12,-7,3,-9,-12,-4
58019446009,8,-30,-1,-14,-16,-27,-11,-1
58019446009,-6,-14,0,17,10,1,4,4
58019447459,-7,-3,-1,-1,-8,-7,-6,-2
58019447459,5,-38,-1,-10,-13,-12,-6,-18
58019452090,-5,1,9,1,-8,1,-4,3
58019452090,-1,16,7,-8,-15,-4,0,-11
58019460999,8,4,-8,5,13,-4,-7,-4
58019460999,-4,6,5,-6,-12,-8,-11,-3
58019475272,-9,29,2,33,35,63,13,-15
58019475272,3,-8,-4,-9,-11,1,-2,0
58019482096,4,-12,-4,-15,-8,-9,-4,12
58019482096,-9,9,-1,11,8,0,1,2
58019498487,0,3,-5,-8,-14,-10,-10,-8
58019498487,11,-8,-6,1,6,-7,-1,8
58019499943,-19,7,10,6,7,0,2,-6
58019499943,30,-4,-6,-8,-3,20,9,53
58019512100,21,14,9,10,0,-6,-8,21
58019512100,28,-4,3,-1,-3,15,9,42
58019520965,-18,-16,-6,-10,-2,5,6,-73
58019520965,-6,-3,5,7,4,-1,-33,2
58019535270,-54,-27,-35,-11,-14,-42,-17,-82
58019535270,-46,-17,0,-22,2,-4,-17,-15
58019542179,71,12,22,6,11,1,62,36
58019542179,-66,-22,2,20,-13,-70,-43,-48
58019558518,22,-4,9,13,0,-2,22,17
58019558518,45,14,-3,1,13,15,-29,52
58019559962,-2,-18,-12,-31,-11,-5,49,32
58019559962,18,-4,-46,41,-9,9,4,-29
58019580964,-2,-5,49,-8,-12,-14,-4,20
58019580964,8,-19,5,28,4,-7,-14,-25
58019582485,-7,-8,-3,-23,-19,-15,-10,27
58019582485,-4,-17,26,-24,4,5,75,13
58019595362,10,-6,2,1,7,3,-10,-2
58019595362,-11,46,-37,-9,0,9,2,-31
58019602119,-18,25,-29,3,4,0,-34,-12
58019602119,-18,22,-1,-29,-8,-13,-20,7
58019618419,3,15,12,-15,-5,-4,-3,-5
58019618419,0,-14,-3,-10,-7,-11,18,8
58019619912,-18,-13,19,10,6,14,-4,0
58019619912,21,-1,17,-20,-1,4,1,-3
58019640981,5,-11,-40,-18,3,-5,6,23
58019640981,-6,-19,13,27,1,-2,7,-6
58019642456,-11,9,14,1,2,-4,-20,-15
58019642456,11,-23,-13,6,-3,-1,-9,2
58019663295,-5,-7,-35,3,1,3,2,3
58019663295,-10,-9,17,-2,1,1,17,-20
58019664884,22,-7,1,5,-1,-5,-23,-13
58019664884,-9,-3,-12,-5,-2,3,-15,-5
58019678381,0,-62,7,4,8,36,9,1
58019678381,25,-16,22,-14,-10,-7,32,127
58019679948,-9,127,-4,39,14,10,5,-109
58019679948,-52,79,-36,-20,1,0,-54,-95
58019700923,-39,31,23,-16,-4,-2,-32,-54
58019700923,-13,73,4,5,-8,-3,-9,15
58019702426,36,37,16,19,4,-2,69,54
58019702426,6,-2,6,-12,-15,-20,19,-50
58019715282,-22,-41,-36,-3,-8,-29,-78,-40
58019715282,-19,-30,-33,-19,-10,-7,-38,-34
58019722093,9,-12,30,15,7,51,1,83
58019722093,30,2,32,8,5,6,46,8
58019738432,44,-1,8,9,7,17,49,87
58019738432,-24,-12,-2,-2,5,3,-6,-50
58019739959,-25,-21,-3,2,-3,-13,-25,-27
58019739959,17,-34,-12,-7,-5,-5,6,28
58019760884,-8,18,1,0,-3,2,7,26
58019760884,-12,-14,-20,-9,-7,-7,-8,-37
58019762456,18,-11,-10,5,0,-5,-19,7
58019762456,2,-15,2,-5,0,8,-3,10
58019774598,-10,53,7,3,6,11,2,-28
58019774598,3,4,-19,23,5,0,-13,-34
58019783476,-17,-40,1,-30,-12,-25,-118,-3
58019783476,-1,-11,15,18,10,8,75,25
58019798539,-2,3,-9,-68,-14,-3,7,-18
58019798539,-2,-59,18,19,5,-4,3,-19
58019800004,-53,20,32,5,1,0,-77,3
58019800004,8,20,-8,7,-5,16,64,21
58019820885,9,69,30,38,11,2,-73,-17
58019820885,14,9,17,26,5,2,105,1
58019822470,-21,-4,-38,-30,-8,6,9,-14
58019822470,-6,7,27,46,7,2,-39,0
58019834571,10,-16,18,7,10,17,68,26
58019834571,-8,-20,-20,-47,-15,2,-55,-14
58019843492,9,-10,10,36,2,1,32,-13
58019843492,8,-18,8,-7,2,-15,-50,17
58019858441,7,-13,-8,0,7,-3,20,1
58019858441,13,24,22,-6,7,4,-12,-11
58019859950,9,-16,-37,-16,-5,-8,29,-6
58019859950,5,-3,-5,-29,0,5,-14,12
58019880892,-9,0,-11,5,-12,4,-8,-2
58019880892,-1,7,-8,-5,1,-1,20,-11
58019882412,12,-18,-26,-3,-6,6,4,7
58019882412,-11,11,-2,-8,2,2,-17,2
58019894605,1,-7,-9,19,-5,-4,3,-6
58019894605,-4,-7,-25,-2,-3,-12,1,3
58019903513,-2,-9,-3,-7,2,-1,10,-2
58019903513,-14,0,14,-7,4,7,-11,-2
58019918362,-18,-22,10,-5,-7,-11,10,-6
58019918362,0,3,1,-16,-5,2,-26,-1
58019919962,0,21,17,4,-2,16,-12,-66
58019919962,14,3,-13,-7,-2,1,-14,-4
58019940907,32,2,-26,-2,-9,-7,1,19
58019940907,1,22,15,11,9,16,12,6
58019942434,-18,-7,-8,0,-3,-5,-15,1
58019942434,2,-14,-15,1,-4,-22,-20,46
58019954640,-6,-3,-5,-5,2,0,2,-6
58019954640,-9,7,17,10,2,-6,-19,8
58019971028,55,-25,1,5,1,-6,86,127
58019971028,-20,0,-13,-6,-3,6,-17,-128
58019978438,-47,14,5,-9,-4,-6,-62,-101
58019978438,5,-1,-13,-8,1,-4,1,-23
58019979916,25,1,-7,-6,-15,0,29,11
58019979916,26,-5,4,0,9,6,46,-1
58020000867,-13,-2,-31,-17,-20,2,-37,10
58020000867,-3,3,-4,-8,-11,-18,-22,46
58020002427,4,9,14,11,16,0,8,-15
58020002427,15,7,-1,4,-1,12,55,127
58020014465,-12,-51,-32,-28,-18,-60,-46,-43
58020014465,-6,-3,-10,1,4,3,-16,14
58020023428,-9,8,-8,-4,-3,21,-13,21
58020023428,-3,4,0,-1,-1,0,8,-5
58020038425,20,4,6,7,6,8,35,44
58020038425,-5,9,7,6,3,3,12,-13
58020039922,-12,-7,-5,1,-5,-10,-21,-46
58020039922,-6,-8,-1,-4,-4,-15,-19,-15
58020060870,9,6,12,6,4,11,20,37
58020060870,-5,-11,1,11,9,-1,1,-63
58020062578,-8,-31,-22,-16,-8,-19,-7,-72
58020062578,-13,-2,-8,-5,-1,0,-20,17
58020074443,7,18,18,6,3,21,15,28
58020074443,8,-8,-2,-10,-7,0,14,-14
58020083475,-2,-3,0,-3,-1,-7,-17,1
58020083475,-14,25,9,4,1,6,-14,3
58020098388,11,2,0,6,6,3,21,-7
58020098388,3,-7,-9,0,-3,-8,5,-3
58020099934,-15,0,-6,0,4,0,-10,-11
58020099934,1,-9,-12,-4,-4,-4,-14,-6
58020120948,10,-14,0,-4,-3,-4,14,5
58020120948,8,0,7,2,-1,0,4,7
58020122437,-10,-6,-4,-3,-4,4,-2,-36
58020122437,-1,-7,-22,-11,-6,-2,-15,0
58020134574,4,5,11,2,6,8,6,25
58020134574,-14,26,10,5,5,12,-5,8
58020149572,4,2,1,-2,1,-3,0,-10
58020149572,1,-11,-1,2,-6,-10,1,4
58020158278,-4,5,9,2,-1,1,-2,1
58020158278,-2,-3,-5,-5,-6,-3,-2,-13
58020159948,4,-13,-4,-2,-3,-12,2,1
58020159948,-6,-2,8,-3,5,2,-5,8
58020180950,-4,10,3,6,-1,9,0,-36
58020180950,1,-10,-3,-3,-3,-1,2,-1
58020182453,-4,2,5,-3,4,0,-6,3
58020182453,-8,7,6,9,4,13,0,-2
58020194612,1,-1,-4,0,1,1,7,1
58020194612,5,-10,-7,-10,-3,-15,-8,-2
58020203472,-5,9,2,4,-4,2,-3,-4
58020203472,6,-1,1,-6,-3,-2,-2,8
58020218393,19,10,-2,-1,0,-3,-5,22
58020218393,-26,0,13,12,-4,2,-4,-6
58020219923,-16,6,7,8,6,10,-7,-35
58020219923,30,-2,5,5,-2,-4,-7,11
58020241084,2,-4,-16,-20,-7,-1,12,-13
58020241084,30,63,19,17,18,70,37,33
58020242487,76,6,-8,5,-6,1,-52,21
58020242487,-56,-9,17,56,-9,-24,26,-48
58020254431,-8,-3,-10,-35,-12,-7,-41,-12
58020254431,-27,-10,0,32,-1,-12,43,-21
58020263461,30,3,-16,-38,-8,-11,-23,22
58020263461,5,4,15,33,13,6,-71,-14
58020278908,-34,12,27,18,7,11,105,-13
58020278908,-30,-35,-38,-35,-18,-25,19,-11
58020280373,15,0,36,39,-1,0,-41,37
58020280373,41,5,-24,-20,4,61,92,55
58020300670,0,-3,-12,-3,1,0,-113,4
58020300670,-1,-9,6,-13,4,0,6,-13
58020307104,-67,-4,9,22,2,-5,17,-2
58020307104,-5,6,-4,-27,-1,-3,-12,-10
58020314465,-13,-2,10,24,5,0,27,-9
58020314465,23,-3,0,10,8,-3,-22,19
58020323434,1,0,-32,-2,-1,-5,17,-18
58020323434,-6,-8,4,-6,-5,-12,-1,-6
58020338372,25,-8,-8,-14,-16,-2,8,24
58020338372,4,-8,12,13,-2,0,-43,-3
58020340253,-11,-9,-6,-14,-1,1,18,-11
58020340253,0,-13,-15,-20,-9,-17,-12,0
58020361068,6,-7,-25,6,-2,-6,-13,11
58020361068,3,2,15,-3,1,-1,-7,-8
58020362447,-19,-21,-9,-2,-4,-20,10,-12
58020362447,2,1,-17,-8,0,-3,1,7
58020374595,0,4,-2,-13,7,6,-5,-10
58020374595,0,5,17,-1,-5,-8,-8,-1
58020383490,-4,1,-18,-21,-5,4,16,13
58020383490,-20,18,10,4,3,6,-32,-34
58020397618,-7,-8,27,6,0,-5,4,4
58020397618,-3,-10,-49,-28,-6,-11,-6,7
58020404601,-6,7,-6,-11,1,1,-2,-6
58020404601,-1,-3,14,-3,-1,-3,-2,4
58020421001,5,-17,-17,11,-6,-10,12,4
58020421001,4,2,-8,-6,2,0,-11,0
58020422419,2,-2,-1,-1,-2,7,-1,-14
58020422419,1,-9,-10,-5,-6,-7,-4,21
58020434613,40,0,-3,-2,4,0,52,24
58020434613,-25,-6,2,-3,-6,-9,-41,-128
58020443495,-25,-4,-24,-15,-10,-2,-51,-9
58020443495,1,-10,-5,-7,-7,-8,-5,43
58020457772,17,50,34,32,24,54,32,24
58020457772,39,2,7,2,-5,3,67,127
58020464610,-53,-56,-46,-30,-17,-82,-78,-75
58020464610,-43,9,-16,-13,-1,1,-68,-112
58020480863,4,-7,15,0,-5,4,0,103
58020480863,37,24,34,18,9,10,57,127
58020482422,26,17,14,0,7,23,43,-13
58020482422,-2,8,1,-4,-1,-1,-2,-24
58020494483,-22,-12,-11,-7,-7,-15,-32,-52
58020494483,-3,-8,-10,5,3,-3,-11,-28
58020503464,10,4,9,7,-1,18,32,51
58020503464,-3,-2,8,1,5,3,6,-12
58020517645,-8,-24,-10,-5,1,-21,-16,-49
58020517645,-8,-3,-14,-9,-1,1,-20,2
58020524477,-3,16,15,4,3,19,6,-15
58020524477,11,-11,-3,-2,-6,2,7,7
58020540941,-2,-3,-6,0,-4,-5,-19,28
58020540941,-22,13,-12,-5,4,25,-15,-44
58020542430,3,0,13,10,2,9,24,3
58020542430,5,-2,-19,-19,-4,-4,23,43
58020563492,-9,6,3,-1,3,-1,-15,-14
58020563492,-14,-7,-5,-7,-5,-4,-13,-47
58020564959,18,-16,9,2,-2,-18,-14,18
58020564959,4,1,10,6,5,3,21,32
58020577681,-25,-3,-7,-5,1,0,-15,-42
58020577681,10,-17,-13,-7,-7,-11,12,-16
58020584524,2,7,7,7,3,9,7,29
58020584524,-1,8,-1,4,2,7,-15,-3
58020600726,0,-9,-19,-13,-7,-5,15,-8
58020600726,10,0,0,8,-1,-6,-28,-4
58020606927,-11,-13,8,15,3,-2,12,11
58020606927,-4,-6,-14,-49,-3,-3,-25,0
58020623413,18,-18,23,49,-1,-34,-11,24
58020623413,-17,0,11,-3,-1,-4,-23,1
58020624905,-9,0,-63,-49,-3,2,13,-20
58020624905,12,-5,35,30,5,-10,-31,1
58020637792,-17,2,2,-25,-1,2,-3,1
58020637792,-9,-1,-12,-5,2,25,30,-21
58020644503,9,9,19,16,-1,1,-38,0
58020644503,11,-3,-11,-5,-6,2,30,22
58020660872,-8,10,4,-4,0,4,2,-13
58020660872,-7,-3,-9,6,-6,-7,-30,-11
58020662466,-1,4,13,3,4,2,20,7
58020662466,-5,0,12,11,2,0,16,3
58020683330,-6,-3,9,12,0,0,-12,-9
58020683330,4,-29,-29,-16,-2,-10,9,-4
58020684876,7,3,16,2,-3,2,3,6
58020684876,-3,-1,33,4,2,15,15,-8
58020697760,9,-6,-13,-1,-4,1,-8,-3
58020697760,2,2,-1,-12,-5,0,10,7
58020704534,-2,12,20,22,8,12,18,1
58020704534,-3,-3,-39,-17,-4,-2,0,-1
58020720757,-1,2,29,45,9,-10,0,3
58020720757,-6,7,24,1,3,-3,-10,-2
58020722404,-7,0,-1,5,0,0,7,-5
58020722404,0,-29,-34,-24,-15,-29,-6,1
58020743372,1,-1,-14,-25,-7,3,-13,3
58020743372,-10,5,17,26,4,28,8,-24
58020745055,6,-9,-3,-2,-1,-2,-3,-1
58020745055,1,1,1,6,0,4,1,11
58020757004,-3,26,4,3,4,17,8,-9
58020757004,-5,-2,-6,-2,-3,-8,-13,-1
58020765946,2,-8,-3,-12,-5,-16,-13,7
58020765946,-4,15,27,14,5,4,16,-1
58020780868,-12,-12,-48,-19,-5,-3,-6,-7
58020780868,9,-4,-5,-10,-4,-20,-2,8
58020782462,2,1,2,19,2,2,-2,-2
58020782462,-4,17,32,15,7,19,1,-8
58020803452,-1,-2,-38,-30,-11,0,-11,-1
58020803452,6,2,-9,-22,-5,-6,-18,11
58020804961,-5,27,21,9,3,12,11,-3
58020804961,-5,-2,-33,-10,-6,-2,-12,-2
58020816914,5,-8,18,1,-1,-22,-15,9
58020816914,-1,-4,14,4,3,-4,-6,-1
58020825964,0,-3,-10,-9,-3,-4,8,-2
58020825964,9,-20,0,5,-6,-24,4,6
58020840835,1,-3,-7,2,4,2,1,0
58020840835,-6,0,5,10,0,5,-12,-8
58020842387,2,-16,5,-3,-4,-2,5,2
58020842387,1,0,-4,-1,1,3,3,6
58020863393,-9,18,8,1,1,22,16,-11
58020863393,-1,-1,-19,2,-3,-3,4,0
58020864897,6,-1,-27,-18,-12,-14,-8,10
58020864897,-5,6,-11,13,1,3,14,-4
58020877084,1,-6,16,-6,-2,-5,-8,-1
58020877084,4,-14,4,-2,-2,-13,4,8
58020891989,-6,-1,-1,10,-4,1,11,-1
58020891989,-6,14,29,17,4,26,0,-14
58020900896,4,-8,4,5,2,0,5,3
58020900896,-2,4,13,-1,-1,1,-8,2
58020902436,-10,13,5,-5,5,12,5,-13
58020902436,5,-4,9,19,1,-6,-49,3
58020923394,6,-11,-15,-8,-6,-11,35,10
58020923394,-9,25,28,6,8,2,12,-2
58020924948,-5,-12,-87,-51,-13,-6,-12,1
58020924948,5,1,-7,-10,-5,-14,-17,7
58020937162,-3,2,9,2,2,0,9,-1
58020937162,-2,8,8,5,1,6,-12,-13
58020945950,9,-1,15,-41,-2,0,-11,1
58020945950,-5,-3,-11,13,1,-3,14,3
58020960897,-10,32,55,31,5,22,-12,-9
58020960897,-1,-3,-55,-55,-10,-2,4,2
58020962405,8,2,31,31,1,-7,-12,11
58020962405,-5,-4,16,20,1,-1,14,0
58020982672,0,0,4,-20,-4,0,5,-5
58020982672,0,-12,10,37,2,-9,-7,6
58020983490,-4,3,1,-10,3,2,3,-3
58020983490,-7,-6,-6,-20,-4,-9,-23,-9
58021005249,2,-15,-21,-3,-5,-10,23,3
58021005249,5,-1,-14,-18,-12,-1,-19,9
58021006000,-8,-16,24,55,6,-4,21,-13
58021006000,8,-2,-1,-13,1,-1,-1,4
58021020273,-5,-6,-13,-12,-1,-12,-2,-6
58021020273,-5,10,11,12,2,-1,-19,-4
58021020948,-3,5,14,7,5,2,-7,-8
58021020948,6,-15,-18,-12,-4,-9,-5,9
58021042874,2,3,-2,1,0,0,4,0
58021042874,-5,-10,-1,0,6,-1,-4,-11
58021043432,0,-6,-18,-8,-3,-3,-7,2
58021043432,-4,1,9,-4,-2,0,1,0
58021065097,-7,14,-5,-2,0,5,-22,-7
58021065097,5,-5,-16,-12,-10,-4,23,2
58021065905,6,9,12,16,7,6,0,5
58021065905,-3,9,-12,-7,3,3,10,-4
58021080142,-6,-3,21,10,-4,-2,0,-8
58021080142,7,-14,-7,-3,2,-12,1,6
58021080959,-7,3,8,15,11,-3,-4,-3
58021080959,-2,-1,1,-21,-15,-19,-2,-6
58021102523,9,-17,-8,-18,-12,-10,-7,6
58021102523,1,1,9,7,0,-2,4,7
58021110287,-12,7,1,-5,1,18,-3,-12
58021110287,-2,-1,-14,5,-3,1,18,1
58021125120,-3,-4,0,-20,1,-16,-31,8
58021125120,-3,9,7,2,-5,1,4,-2
58021125944,1,-1,2,-30,-15,-7,26,-3
58021125944,4,-25,-15,-23,-3,-18,-8,4
58021139589,-12,-1,-4,11,6,3,-29,-1
58021139589,1,-2,-8,-2,-3,7,25,-7
58021147863,8,-5,-9,-1,-6,-8,-15,4
58021147863,2,3,-8,14,10,5,18,6
58021162761,-2,25,13,13,3,24,-2,-6
58021162761,-1,-5,-6,-3,0,-4,8,0
58021163450,1,-3,3,9,1,-2,3,-1
58021163450,-3,4,4,6,-2,4,-9,-6
58021185805,-1,-6,-4,-3,6,-1,18,-6
58021185805,3,-26,-23,8,2,-3,1,19
58021186577,-1,1,5,4,4,-1,-14,-1
58021186577,-7,7,-2,-1,-3,7,3,-17
58021200195,6,-12,-14,-9,-3,-5,4,4
58021200195,5,4,6,-16,-4,-2,-24,2
58021200904,-6,11,6,3,0,15,19,-3
58021200904,-1,-4,-21,-9,-4,2,-3,4
58021222699,3,-4,-10,0,-3,-14,-20,7
58021222699,-3,0,22,3,1,0,-1,-7
58021223389,-6,-7,-7,0,0,-7,-25,-3
58021223389,5,-20,-15,-11,-7,-27,8,17
58021245935,0,-4,-27,-12,-4,2,-1,0
58021245935,-5,4,12,11,1,5,6,-13
58021246592,3,1,10,-12,-8,-9,-7,6
58021246592,1,3,-6,-6,-1,7,-2,3
58021260293,-1,12,17,6,4,16,-5,-9
58021260293,-2,1,-8,-8,-4,-4,-25,0
58021260929,-1,-3,-10,-2,-5,-11,4,7
58021260929,-3,6,18,8,5,9,2,-4
58021282728,-3,-5,-1,5,3,-3,16,-2
58021282728,2,-12,0,-11,-2,-22,-9,10
58021283441,1,-5,3,-3,1,0,-17,-1
58021283441,-7,-1,18,6,5,7,-20,-16
58021305837,3,-17,0,-3,-2,-5,10,5
58021305837,-1,2,-8,-2,-1,2,2,1
58021306604,-8,9,27,6,2,17,6,-13
58021306604,1,3,17,1,-4,2,-13,2
58021320226,3,-2,-21,-17,-9,-2,-8,5
58021320226,-3,9,27,11,9,10,14,-7
58021320898,-2,-6,-15,-11,-6,-3,0,0
58021320898,3,4,21,10,2,-12,-7,6
58021342734,-7,6,-3,1,-2,1,9,-1
58021342734,-12,4,21,13,2,0,-19,-8
58021343407,6,-20,-15,-5,-4,-11,21,9
58021343407,-2,-1,-3,-3,1,3,0,3
58021365930,-4,1,1,6,-4,13,0,-9
58021365930,2,-4,-22,-5,-3,0,5,1
58021366627,0,1,-17,-9,-3,-1,-13,8
58021366627,-3,18,7,2,6,15,23,-5
58021380246,5,-3,12,2,0,-3,2,1
58021380246,-3,-2,14,2,-7,-21,-6,0
58021380990,-2,1,15,9,3,-1,-10,-2
58021380990,-3,-11,-17,-2,-3,3,14,-3
58021402762,8,-11,22,4,0,-8,-6,5
58021402762,-5,0,6,2,3,4,6,1
58021403422,-1,-1,-6,-9,-1,-5,-4,-10
58021403422,2,3,37,-3,-2,-3,-2,3
58021425847,1,-2,-34,-22,-11,-10,-6,11
58021425847,-10,29,11,13,5,15,10,-7
58021426576,-1,1,0,5,-2,0,-9,0
58021426576,4,-16,1,-3,1,-12,-30,6
58021440220,-3,7,1,3,4,0,19,-2
58021440220,3,-15,-14,-10,-3,-5,-3,4
58021440897,3,-17,-17,-2,-1,-11,0,6
58021440897,0,-1,-7,0,0,-2,8,2
58021462698,-3,5,6,5,-1,2,-16,-5
58021462698,9,-5,-26,-6,-3,-4,-5,2
58021463425,1,7,9,4,-1,2,10,3
58021463425,-6,18,-7,7,1,9,3,-6
58021485923,-1,-2,-1,1,2,-2,-4,0
58021485923,1,-13,-2,0,0,-3,14,4
58021486601,-4,-3,1,3,-2,0,1,0
58021486601,-6,-4,2,1,3,-3,1,-8
58021500132,6,-43,-15,-8,-8,-15,7,5
58021500132,-2,-4,-9,0,-3,-2,-1,0
58021500833,4,13,17,9,5,18,-6,5
58021500833,7,-17,7,-3,-6,-3,-10,4
58021522786,-7,6,8,7,2,-4,15,7
58021522786,-3,14,3,-1,3,11,-3,-7
58021523433,-2,-4,9,3,-4,-5,-19,-2
58021523433,5,-9,17,-1,-3,-4,31,9
58021546082,-9,10,21,5,2,6,-7,-4
58021546082,-3,-4,14,1,1,-3,-9,-6
58021546572,3,-18,-2,-5,-4,-17,3,4
58021546572,-6,-1,-30,-19,-4,-3,-4,-1
58021560208,-6,0,-3,9,3,14,-4,-8
58021560208,-2,-3,-39,-25,-9,-1,-11,2
58021560929,2,-2,14,17,11,1,45,-4
58021560929,-13,13,2,7,-1,11,-28,-13
58021582704,9,1,-3,-2,-1,-1,-21,0
58021582704,2,-11,-9,-12,-8,-15,14,10
58021583450,-3,8,-1,8,0,1,12,-3
58021583450,4,1,1,5,2,-4,-17,-8
58021606394,4,-12,-29,-15,-4,-13,30,11
58021606394,1,0,35,16,8,0,-7,0
58021607080,-10,-47,-93,-76,-18,-21,-24,-10
58021607080,6,-27,-10,-24,-6,-9,-5,5
58021620134,0,-2,45,31,9,-3,-9,1
58021620134,-8,-21,-33,-39,-5,4,16,-7
58021620828,-2,2,-1,19,1,1,-1,2
58021620828,5,-7,-17,-6,-9,-15,-8,7
58021642665,-3,6,-1,4,3,0,-17,-5
58021642665,1,1,16,11,1,1,2,-5
58021643415,6,-3,4,1,1,-5,-10,5
58021643415,-5,-1,-7,11,0,1,4,0
58021665900,-8,11,4,-11,0,6,7,-13
58021665900,9,-7,4,10,-1,-8,-19,1
58021666576,1,3,-17,-12,-8,1,5,2
58021666576,-11,4,19,28,9,16,1,-13
58021680154,0,-6,-14,-22,-10,-3,-1,0
58021680154,-4,3,2,4,1,8,17,0
58021680918,-1,15,28,-14,2,7,-17,-4
58021680918,-6,2,11,32,9,-1,21,-7
58021702699,2,-7,-5,5,-1,-4,-13,6
58021702699,-1,1,-13,-17,-2,-2,10,-3
58021703373,1,-5,19,50,11,9,-6,3
58021703373,3,-13,-19,-21,-6,-7,12,4
58021725970,5,-4,-6,-13,-2,-2,-14,8
58021725970,-7,-2,9,20,5,13,-4,-7
58021726589,-1,-4,-12,-15,-6,-3,-5,0
58021726589,2,3,-1,-8,2,-6,6,6
58021740260,-9,15,14,15,4,5,9,-5
58021740260,-5,0,7,20,9,-3,3,-7
58021741283,4,-5,7,-12,-6,-10,8,5
58021741283,-1,5,0,0,3,2,-10,-1
58021762615,-5,-4,-13,-17,-3,8,14,-11
58021762615,3,-11,2,2,-9,-11,-11,2
58021763690,-1,0,-11,-11,-2,0,-18,4
58021763690,-6,16,10,16,3,20,14,-8
58021785789,4,-9,-12,-2,-7,-5,-4,1
58021785789,0,0,1,-19,-4,-11,-22,3
58021786686,-4,2,7,19,9,5,16,-5
58021786686,-5,-4,-3,-36,-20,-4,-20,-6
58021800126,2,-16,-11,-3,-3,-12,5,8
58021800126,-5,3,-2,-22,-6,2,-15,-1
58021801129,-5,-4,2,-7,-1,8,-3,-7
58021801129,10,-10,-12,-7,-3,-5,5,4
58021822902,2,-3,-15,-7,-1,1,-9,3
58021822902,-3,19,7,8,1,10,6,-9
58021823404,0,-3,-11,-2,-6,-3,-5,0
58021823404,-1,-4,-3,3,0,-6,-1,4
58021846087,-7,7,18,13,7,3,-2,-3
58021846087,-3,-3,-3,10,-1,0,34,-4
58021846612,8,-21,-20,-5,-4,-21,-4,10
58021846612,-4,-2,26,9,4,-1,32,-3
58021860268,-3,-9,-26,-8,-5,-10,-3,3
58021860268,8,-24,-11,-14,-10,-14,-16,6
58021860893,-5,2,21,7,-2,0,12,-2
58021860893,-12,14,-13,3,1,2,-21,-21
58021882720,7,-6,24,10,4,-4,2,-3
58021882720,-1,-3,-4,5,-4,-10,10,7
58021883433,-4,17,46,23,12,16,7,-8
58021883433,-10,-8,-32,-14,-9,-5,-26,-2
58021905029,13,-17,39,8,-1,6,21,17
58021905029,-7,2,-17,-1,-1,2,-23,-1
58021912697,-3,6,9,-4,-1,11,5,-4
58021912697,6,-9,9,3,2,-1,41,8
58021920203,-2,2,2,7,3,-1,-8,-1
58021920203,-3,17,46,13,5,21,9,-8
58021920875,-8,-9,-34,-12,-10,-7,-9,1
58021920875,7,-3,3,0,4,-2,27,13
58021942883,-2,-5,-18,-4,-2,-5,-8,-2
58021942883,-1,-6,1,4,4,-2,1,-1
58021943418,5,-12,-2,0,1,-15,0,11
58021943418,-1,2,-11,-6,0,-1,-46,-4
58021965696,-9,8,1,-1,2,11,0,-14
58021965696,1,0,-15,0,-4,1,3,8
58021966424,3,1,-2,2,1,0,-1,3
58021966424,-1,-2,1,-6,-2,0,-19,-7
58021980161,-5,-2,-21,-17,-10,-4,18,0
58021980161,9,-5,-13,-1,0,-4,-6,9
58021980993,-5,4,-1,-7,-3,-3,-8,-5
58021980993,3,-2,-3,-4,-2,0,12,0
58022002765,5,-8,-1,-1,-3,-17,-13,3
58022002765,-2,-4,0,4,4,-1,3,-2
58022003427,-6,-2,-36,-5,-2,1,-1,-7
58022003427,6,-10,-8,-11,-3,-7,4,8
58022025882,-1,2,2,7,6,1,-3,0
58022025882,-3,-2,-1,-1,-1,2,-2,-7
58022026579,0,0,3,-3,-3,-2,-7,0
58022026579,4,-1,3,1,-5,-2,-4,7
58022040180,-5,15,-10,0,-1,7,-7,-6
58022040180,0,-2,9,-6,-2,-3,-7,-3
58022040865,4,-8,2,-4,-5,-19,11,9
58022040865,-6,1,-24,0,2,0,2,0
58022062736,-8,1,29,10,4,3,2,-8
58022062736,6,-29,-23,-19,-8,-17,-13,5
58022063397,-3,0,10,4,1,1,-2,-2
58022063397,-7,0,10,-2,-2,8,-11,-8
58022086012,2,-2,-25,-4,-8,-4,2,1
58022086012,2,4,-10,-5,-5,4,5,9
58022086601,-4,15,13,12,4,14,-7,-7
58022086601,1,-1,-13,-12,-5,-2,-4,0
58022099530,-7,-5,11,8,0,-10,-11,2
58022099530,-1,-2,12,13,7,1,7,-4
58022107771,-2,-5,-1,-1,0,-3,8,-8
58022107771,5,-19,3,-4,-5,-21,-11,5
58022122781,0,-4,-2,10,0,-1,-9,0
58022122781,-11,8,2,6,2,22,25,-11
58022123451,3,-2,0,0,-1,-1,-19,0
58022123451,3,2,6,4,-1,3,8,3
58022145889,0,6,2,-10,-3,10,6,-5
58022145889,-5,0,3,6,2,-4,-22,-2
58022146620,1,-14,-8,-17,-4,-21,-5,5
58022146620,-4,7,14,23,10,3,-7,-3
58022159503,-5,-8,3,4,1,-2,-2,-8
58022159503,7,-22,-18,-24,-11,-23,2,12
58022167732,1,-4,5,11,3,2,7,0
58022167732,-5,8,24,7,3,15,-4,-11
58022182824,5,-1,-37,-33,-9,-4,3,2
58022182824,2,5,19,17,2,2,-6,4
58022183451,-12,11,4,-4,1,16,4,-6
58022183451,2,-6,5,2,-2,-3,2,-1
58022205965,9,-9,-20,-28,-9,-22,-7,10
58022205965,-5,10,6,10,0,-1,8,-5
58022206606,-5,-4,-21,10,-5,-5,-6,-7
58022206606,2,-13,-20,-30,-7,-7,1,6
58022219508,3,-3,1,-6,0,1,1,2
58022219508,-7,9,4,15,5,13,-13,-11
58022227756,4,-14,-5,-4,-5,1,31,3
58022227756,-3,3,8,17,3,-2,-17,2
58022242649,-5,11,5,1,0,4,3,-9
58022242649,-1,-3,-13,-1,6,-3,-2,-1
58022243371,5,-7,-3,-21,-13,-19,-4,12
58022243371,-5,9,1,5,-1,-3,-15,-2
58022265924,-3,-4,-1,0,-3,0,6,-6
58022265924,6,-12,-15,-8,-9,-14,0,9
58022266572,1,-1,-3,-4,-3,1,-24,0
58022266572,-4,-4,-8,-9,-4,7,16,-7
58022279549,4,-14,-1,-6,-2,-2,-7,1
58022279549,4,-3,-5,-13,-9,-2,3,2
58022287628,-4,1,12,9,4,16,-3,-10
58022287628,0,-6,-10,-9,-4,-4,2,1
58022302744,3,-11,4,7,0,-11,0,13
58022302744,-10,11,13,-2,2,1,-22,-3
58022303388,2,2,-7,0,-4,3,17,-2
58022303388,9,-6,-11,1,-1,-13,-5,9
58022326077,-3,0,7,12,4,3,-6,-1
58022326077,-9,1,5,5,-1,6,0,-12
58022326599,3,-12,-2,1,1,-7,-15,-1
58022326599,-2,-5,-13,-18,-8,-3,15,2
58022339498,-8,9,14,12,6,15,21,-15
58022339498,1,-5,-5,-5,-5,-3,-2,1
58022347685,0,-5,-13,-13,-6,-11,-2,7
58022347685,-7,6,-5,11,6,3,-14,-4
58022362652,-4,-1,10,3,-2,2,-3,-5
58022362652,5,-5,-5,-4,-4,-13,13,10
58022363459,-4,3,9,4,4,2,0,-3
58022363459,-2,0,24,15,4,9,-1,-6
58022385839,-2,-7,-45,-9,-7,-6,-8,-1
58022385839,3,-4,8,-3,2,0,-5,1
58022386572,-5,7,11,5,4,8,12,-9
58022386572,0,-6,9,0,-5,-4,7,-1
58022399547,1,-2,-22,-8,-1,-16,-37,8
58022399547,-4,-9,0,1,4,2,62,-2
58022407634,-7,1,16,13,4,-1,-12,-11
58022407634,8,-14,21,6,-2,-11,3,8
58022422695,-9,2,-15,-20,-7,1,-13,-1
58022422695,-3,-1,12,2,-2,5,-13,-8
58022423399,6,-15,1,-6,-7,-7,-2,4
58022423399,3,-2,-21,-11,-5,-2,7,7
58022445982,-6,15,19,14,6,19,4,-9
58022445982,0,-4,-15,-5,-4,-2,-11,2
58022446556,1,3,-6,-2,-1,-9,-1,8
58022446556,-4,7,-3,3,3,2,-7,-5
58022468793,-3,-5,21,9,5,-2,10,-8
58022468793,4,-16,-11,-2,0,-12,-12,7
58022469577,-3,4,-2,2,1,2,-2,-2
58022469577,-4,-4,-11,-3,-2,4,-5,-6
58022482645,6,-19,4,1,-8,-4,5,7
58022482645,3,1,-2,-2,-2,0,-8,7
58022483436,-8,13,0,1,1,12,-7,-9
58022483436,2,-6,-8,-4,-6,-3,2,1
58022505741,1,-2,7,7,2,-12,0,4
58022505741,-4,5,5,8,4,2,-5,-4
58022506528,-4,-3,-10,-5,-3,-1,7,-6
58022506528,4,-26,-10,-6,-1,-14,1,8
58022528342,0,2,8,4,2,1,5,-1
58022528342,-4,-3,-14,-6,-6,1,-5,-4
58022529115,8,-9,-3,-7,-5,-3,-3,5
58022529115,-2,2,-5,-2,1,1,0,2
58022542710,-7,22,12,6,7,22,6,-11
58022542710,0,-3,-4,-5,-1,-1,-3,0
58022543424,-3,-1,5,5,0,-5,-4,7
58022543424,-5,0,2,-1,-3,1,4,-4
58022565916,1,-7,-5,-3,-2,-4,1,-2
58022565916,1,-16,-6,-5,-5,-19,-7,7
58022566578,-1,0,-3,-3,4,0,1,-1
58022566578,-2,3,-4,-2,1,5,-7,-5
58022588429,8,-8,-3,-3,-4,-8,-4,6
58022588429,3,2,0,-4,-3,3,-5,3
58022589095,-6,13,1,4,2,14,0,-11
58022589095,1,-1,1,-7,-4,-2,0,0
58022601927,1,-4,-3,-4,2,-9,4,9
58022601927,-8,3,9,4,3,1,-3,-5
58022610965,-2,-6,-11,-4,-2,-4,-5,-1
58022610965,5,-18,-4,-3,-1,-23,-1,9
58022625912,-4,-4,-1,5,2,-1,8,-2
58022625912,-6,4,5,1,4,8,4,-8
58022627431,4,-12,-7,-3,-4,-8,-6,5
58022627431,2,3,0,-1,0,3,1,2
58022648275,-6,9,4,3,0,14,-1,-10
58022648275,1,-6,-6,1,1,-2,-1,1
58022649886,1,-3,-5,-7,-7,-8,-1,7
58022649886,-7,6,0,1,3,10,-6,-7
58022662046,-1,-7,2,-2,-5,-5,-1,-2
58022662046,4,-11,-4,-4,-6,-13,-2,5
58022670969,-1,0,5,6,7,0,-2,-2
58022670969,-8,2,12,9,6,7,-3,-12
58022686391,6,-10,-7,-3,-3,-8,-7,5
58022686391,-1,1,-7,-5,0,2,5,1
58022687876,-6,0,-3,-3,0,13,1,-9
58022687876,1,-4,-8,-2,-2,-3,2,3
58022715832,6,-1,-7,-3,-2,-5,-4,5
58022715832,-5,12,4,4,3,6,-7,-8
58022717458,2,-4,-2,0,-5,-3,-1,0
58022717458,2,-4,-2,-4,-5,-14,-2,7
58022722713,-6,-1,7,3,3,0,1,-1
58022722713,-3,-4,-10,4,4,3,0,-8
58022729572,4,-16,0,2,-3,-4,1,3
58022729572,-3,0,7,6,-1,1,-1,-1
