64600314394,0.41748046875,-0.1884765625,0.849609375
64600337995,0.42236328125,-0.18408203125,0.85302734375
64600360218,0.3203125,-0.1435546875,0.69384765625
64600374334,-0.4609375,-0.37646484375,0.6455078125
64600397922,0.6669921875,-0.26318359375,1.2939453125
64600419207,0.4111328125,-0.330078125,1.15283203125
64600434248,-0.06640625,-0.46533203125,0.61474609375
64600458633,-0.26123046875,-0.43603515625,0.16162109375
64600503436,0.0263671875,-0.2236328125,0.19677734375
64600511771,0.61865234375,0.015625,0.71826171875
64600519445,1.0654296875,0.10546875,1.333984375
64600540024,1.02685546875,-0.02734375,1.5947265625
64600555583,0.95361328125,-0.0390625,0.7119140625
64600586409,0.57177734375,-0.18603515625,0.91162109375
64600629165,0.4404296875,-0.17919921875,0.85107421875
64600639210,0.41162109375,-0.18994140625,0.857421875
64600639984,0.41162109375,-0.1962890625,0.85205078125
64600659803,0.46484375,-0.20068359375,0.88037109375
64600674121,-0.1240234375,-0.38232421875,0.91259765625
64600696707,1.115234375,0.0556640625,1.15771484375
64600721961,1.076171875,0.1005859375,1.3017578125
64600734009,1.0791015625,0.01611328125,1.5830078125
64600756626,0.64697265625,-0.22705078125,1.3583984375
64600774430,0.01904296875,-0.45068359375,0.70263671875
64600794154,-0.25537109375,-0.45654296875,0.15234375
64600816566,0.087890625,-0.22314453125,0.23828125
64600834472,0.74951171875,0.0390625,0.88671875
64600854016,1.0048828125,0.025390625,1.18798828125
64600876632,0.5732421875,-0.228515625,0.72607421875
64600899147,0.5498046875,-0.20556640625,0.87646484375
64600914035,0.62646484375,-0.04150390625,0.86328125
64600936512,0.697265625,0.0302734375,0.876953125
64600958969,0.66552734375,0.033203125,1.03076171875
64600975507,0.5107421875,-0.025390625,1.0908203125
64600996628,0.3251953125,-0.19482421875,1.10546875
64601019073,0.21044921875,-0.28759765625,1.14697265625
64601034002,0.15673828125,-0.349609375,1.142578125
64601056494,0.087890625,-0.28076171875,1.1220703125
64601079081,-0.0068359375,-0.23095703125,1.0234375
64601095434,-0.11962890625,-0.25390625,0.93994140625
64601116633,-0.18115234375,-0.22509765625,0.884765625
64601139175,-0.15380859375,-0.15185546875,0.8017578125
64601163012,-0.1396484375,-0.19091796875,0.830078125
64601176661,-0.25439453125,-0.1552734375,0.76953125
64601199195,-0.31396484375,-0.1884765625,0.81787109375
64601215404,-0.25927734375,-0.14404296875,0.82666015625
64601236520,-0.29248046875,-0.056640625,0.80859375
64601254482,-0.36181640625,0.0595703125,0.7861328125
64601275507,-0.4599609375,0.13720703125,0.802734375
64601296704,-0.49658203125,0.0986328125,0.79541015625
64601314458,-0.47412109375,0.11767578125,0.78564453125
64601335474,-0.43798828125,0.0703125,0.77880859375
64601356521,-0.3935546875,0.06298828125,0.75439453125
64601374456,-0.36181640625,-0.0546875,0.7275390625
64601395475,-0.39453125,-0.1796875,0.70166015625
64601416515,-0.3857421875,-0.298828125,0.73486328125
64601440521,-0.32080078125,-0.40625,0.76513671875
64601455484,-0.275390625,-0.46337890625,0.81103515625
64601476661,-0.29296875,-0.52734375,0.85595703125
64601494436,-0.33642578125,-0.5537109375,0.86572265625
64601516968,-0.37060546875,-0.51904296875,0.86962890625
64601536678,-0.39599609375,-0.4189453125,0.8701171875
64601554432,-0.42724609375,-0.3037109375,0.90283203125
64601576935,-0.41845703125,-0.2099609375,0.91650390625
64601596661,-0.37841796875,-0.1630859375,0.9365234375
64601619772,-0.3603515625,-0.0986328125,0.95947265625
64601636153,-0.380859375,-0.0595703125,0.9931640625
64601658605,-0.40966796875,-0.07470703125,0.99267578125
64601679829,-0.43701171875,-0.10009765625,0.97509765625
64601696169,-0.4521484375,-0.11181640625,0.87255859375
64601718617,-0.40869140625,-0.1943359375,0.849609375
64601739806,-0.46044921875,-0.23876953125,0.8330078125
64601756116,-0.50439453125,-0.27783203125,0.81201171875
64601778663,-0.4921875,-0.38818359375,0.8095703125
64601799745,-0.48486328125,-0.4296875,0.7958984375
64601829826,-0.46533203125,-0.427734375,0.77783203125
64601838663,-0.4658203125,-0.4375,0.791015625
64601859829,-0.44140625,-0.3759765625,0.79638671875
64601875490,-0.42236328125,-0.34130859375,0.798828125
64601898650,-0.39501953125,-0.318359375,0.7958984375
64601919797,-0.3671875,-0.271484375,0.8046875
64601935458,-0.36279296875,-0.24658203125,0.82470703125
64601958625,-0.35888671875,-0.2509765625,0.8134765625
64601979772,-0.36865234375,-0.25439453125,0.7958984375
64601995479,-0.38720703125,-0.26025390625,0.78369140625
64602018385,-0.39404296875,-0.2744140625,0.7724609375
64602041122,-0.419921875,-0.30078125,0.78271484375
64602055449,-0.44091796875,-0.3232421875,0.791015625
64602078614,-0.47802734375,-0.330078125,0.81396484375
64602101161,-0.47119140625,-0.32861328125,0.7978515625
64602115494,-0.44921875,-0.326171875,0.80517578125
64602138625,-0.44970703125,-0.36376953125,0.83740234375
64602161101,-0.43115234375,-0.35693359375,0.8349609375
64602175980,-0.400390625,-0.27001953125,0.81298828125
64602198656,-0.33935546875,-0.125,0.802734375
64602221107,-0.298828125,-0.07470703125,0.81103515625
64602242131,-0.32080078125,-0.04931640625,0.8564453125
64602258651,-0.31689453125,-0.04248046875,0.87451171875
64602281123,-0.3134765625,-0.09423828125,0.88525390625
64602303651,-0.2744140625,-0.11328125,0.908203125
64602324726,-0.2412109375,-0.1171875,0.935546875
64602341124,-0.23681640625,-0.12255859375,0.9296875
64602362133,-0.2705078125,-0.119140625,0.90234375
64602384793,-0.23779296875,-0.13525390625,0.87841796875
64602401181,-0.134765625,-0.11474609375,0.8955078125
64602422544,-0.09375,-0.07763671875,0.89697265625
64602438639,-0.06689453125,-0.1142578125,0.92919921875
64602461109,-0.02490234375,-0.1513671875,0.96728515625
64602482293,0.033203125,-0.16015625,1.01123046875
64602498593,0.044921875,-0.103515625,0.9833984375
64602521750,0.087890625,-0.08935546875,0.9150390625
64602542161,0.20849609375,-0.11279296875,0.8876953125
64602558599,0.287109375,-0.10693359375,0.94580078125
64602581150,0.30224609375,-0.0830078125,0.97216796875
64602602135,0.333984375,-0.12939453125,0.966796875
64602618655,0.3623046875,-0.177734375,0.97705078125
64602641115,0.37158203125,-0.2158203125,0.96142578125
64602663616,0.3798828125,-0.20263671875,0.95166015625
64602678658,0.400390625,-0.15478515625,0.94091796875
64602701114,0.41259765625,-0.11279296875,0.92529296875
64602722286,0.423828125,-0.1083984375,0.89013671875
64602738684,0.498046875,-0.14697265625,1.02587890625
64602761100,0.64208984375,-0.0537109375,1.16015625
64602782343,0.5009765625,-0.173828125,1.04248046875
64602798671,0.25439453125,-0.4375,0.94677734375
64602821087,0.18994140625,-0.40380859375,0.82421875
64602842351,0.3125,-0.16552734375,0.744140625
64602858004,0.45556640625,-0.01171875,0.77734375
64602881113,0.5,0.0146484375,0.7939453125
64602902252,0.466796875,-0.02978515625,0.822265625
64602917948,0.4443359375,-0.12109375,0.8525390625
64602941101,0.3837890625,-0.23193359375,0.8837890625
64602963629,0.36669921875,-0.30712890625,0.89306640625
64602977996,0.3837890625,-0.2958984375,0.87255859375
64603007202,0.3955078125,-0.22900390625,0.86865234375
64603029687,0.40283203125,-0.16943359375,0.85009765625
64603037976,0.40771484375,-0.14501953125,0.837890625
64603061134,0.4013671875,-0.14404296875,0.85986328125
64603083579,0.3984375,-0.16748046875,0.87158203125
64603097981,0.39111328125,-0.20703125,0.884765625
64603121201,0.38037109375,-0.23583984375,0.875
64603143570,0.39697265625,-0.22900390625,0.87451171875
64603157918,0.4130859375,-0.20458984375,0.87353515625
64603181158,0.40478515625,-0.20068359375,0.87451171875
64603209498,0.38818359375,-0.21044921875,0.87060546875
64603219448,0.37939453125,-0.21875,0.86083984375
64603241090,0.392578125,-0.21435546875,0.85595703125
64603263633,0.40771484375,-0.21337890625,0.85107421875
64603292248,0.40576171875,-0.20361328125,0.86376953125
64603301127,0.41015625,-0.201171875,0.84619140625
64603323621,0.40869140625,-0.19677734375,0.8525390625
64603337977,0.40771484375,-0.18798828125,0.84912109375
64603361127,0.40625,-0.1875,0.85595703125
64603384071,0.40673828125,-0.20068359375,0.857421875
64603397982,0.40478515625,-0.19580078125,0.869140625
64603421075,0.39599609375,-0.20263671875,0.8681640625
64603443607,0.400390625,-0.2119140625,0.86279296875
64603464850,0.40673828125,-0.20751953125,0.8603515625
64603481073,0.40380859375,-0.20068359375,0.8583984375
64603511167,0.40380859375,-0.2001953125,0.8515625
64603524673,0.408203125,-0.1962890625,0.85888671875
64603541125,0.4013671875,-0.201171875,0.8544921875
64603563570,0.4072265625,-0.201171875,0.85693359375
64603584613,0.4140625,-0.20556640625,0.853515625
64603601037,0.41162109375,-0.2109375,0.85595703125
64603623577,0.40625,-0.2119140625,0.8466796875
64603644767,0.404296875,-0.19384765625,0.85400390625
64603661108,0.41259765625,-0.2001953125,0.8525390625
64603683672,0.4111328125,-0.20361328125,0.84912109375
64603704817,0.39794921875,-0.20703125,0.8466796875
64603721062,0.40673828125,-0.20556640625,0.8544921875
64603743621,0.41162109375,-0.20751953125,0.8642578125
64603766099,0.40478515625,-0.208984375,0.861328125
64603781834,0.40966796875,-0.20263671875,0.86572265625
64603803619,0.4013671875,-0.20703125,0.85791015625
64603824883,0.4013671875,-0.20849609375,0.8466796875
64603841095,0.408203125,-0.208984375,0.853515625
64603863576,0.412109375,-0.19970703125,0.85546875
64603886061,0.40771484375,-0.20849609375,0.85498046875
64603901103,0.40380859375,-0.212890625,0.8544921875
64603923570,0.404296875,-0.20556640625,0.8544921875
64603946101,0.39990234375,-0.20654296875,0.85546875
64603961140,0.40576171875,-0.21240234375,0.85546875
64603989694,0.396484375,-0.20751953125,0.85498046875
64604006107,0.4033203125,-0.2001953125,0.8583984375
64604021079,0.40673828125,-0.1962890625,0.85888671875
64604043574,0.40625,-0.2021484375,0.8525390625
64604066150,0.4111328125,-0.203125,0.85888671875
64604080441,0.40673828125,-0.2080078125,0.8623046875
64604103594,0.404296875,-0.21337890625,0.85107421875
