64596445564,0.185546875,0.143310546875,0.447265625,-0.863159179688
64596466781,0.185791015625,0.143310546875,0.447265625,-0.863037109375
64596481856,0.185363769531,0.141235351562,0.447509765625,-0.863403320312
64596505523,0.186157226562,0.1494140625,0.448547363281,-0.861267089844
64596526819,0.185729980469,0.15380859375,0.449279785156,-0.860229492188
64596550599,0.184326171875,0.159545898438,0.450439453125,-0.85888671875
64596573064,0.182495117188,0.164367675781,0.45166015625,-0.857727050781
64596587982,0.181762695312,0.164978027344,0.4521484375,-0.857482910156
64596641362,0.182983398438,0.160888671875,0.451782226562,-0.858215332031
64596642188,0.185607910156,0.154663085938,0.450866699219,-0.859252929688
64596642977,0.188232421875,0.150573730469,0.450073242188,-0.85986328125
64596662976,0.189208984375,0.1513671875,0.450256347656,-0.859375
64596685077,0.190490722656,0.155700683594,0.450012207031,-0.858459472656
64596700751,0.1904296875,0.156066894531,0.450256347656,-0.858276367188
64596723070,0.1904296875,0.156066894531,0.450256347656,-0.858276367188
64596751772,0.190490722656,0.156066894531,0.450256347656,-0.858276367188
64596764163,0.190612792969,0.15576171875,0.450256347656,-0.858276367188
64596782408,0.191284179688,0.157409667969,0.450012207031,-0.857971191406
64596804769,0.191833496094,0.157531738281,0.450317382812,-0.857666015625
64596819104,0.193664550781,0.151245117188,0.449462890625,-0.858825683594
64596850400,0.196166992188,0.145385742188,0.448303222656,-0.85986328125
64596864338,0.198120117188,0.143005371094,0.447692871094,-0.860168457031
64596879114,0.198120117188,0.145812988281,0.448364257812,-0.859313964844
64596901630,0.196166992188,0.151550292969,0.44970703125,-0.858093261719
64596924200,0.194091796875,0.154968261719,0.450622558594,-0.857482910156
64596939122,0.19384765625,0.152709960938,0.450378417969,-0.858093261719
64596961762,0.195434570312,0.146545410156,0.448974609375,-0.859497070312
64596984067,0.196166992188,0.147644042969,0.448364257812,-0.859497070312
64597000663,0.195922851562,0.146911621094,0.447326660156,-0.860168457031
64597021697,0.194702148438,0.146911621094,0.446411132812,-0.860961914062
64597044118,0.193054199219,0.146911621094,0.445617675781,-0.861755371094
64597059076,0.192443847656,0.146728515625,0.445251464844,-0.862060546875
64597081613,0.193054199219,0.146179199219,0.445251464844,-0.861999511719
64597104695,0.191589355469,0.147399902344,0.445068359375,-0.862243652344
64597126596,0.184936523438,0.151977539062,0.4443359375,-0.86328125
64597141575,0.177795410156,0.154541015625,0.445678710938,-0.863647460938
64597164138,0.173400878906,0.151184082031,0.448913574219,-0.863464355469
64597186743,0.172607421875,0.141296386719,0.453063964844,-0.863098144531
64597201631,0.174438476562,0.125732421875,0.45654296875,-0.863342285156
64597224141,0.174133300781,0.105651855469,0.458984375,-0.864807128906
64597239267,0.168762207031,0.083740234375,0.459655761719,-0.867919921875
64597261612,0.157287597656,0.0609130859375,0.458435058594,-0.87255859375
64597284136,0.139709472656,0.0381469726562,0.456665039062,-0.877746582031
64597299110,0.118591308594,0.0146484375,0.455139160156,-0.882385253906
64597321701,0.0970458984375,-0.0109252929688,0.453308105469,-0.885986328125
64597344249,0.078125,-0.0386352539062,0.45166015625,-0.887939453125
64597359230,0.0618286132812,-0.06787109375,0.449462890625,-0.888549804688
64597384569,0.0478515625,-0.0980224609375,0.446472167969,-0.888122558594
64597405560,0.0363159179688,-0.128540039062,0.442993164062,-0.886535644531
64597419229,0.026123046875,-0.157897949219,0.439086914062,-0.884094238281
64597441655,0.0165405273438,-0.185241699219,0.434143066406,-0.881469726562
64597464141,0.00823974609375,-0.209350585938,0.427917480469,-0.879211425781
64597479160,0.0009765625,-0.229736328125,0.420227050781,-0.877868652344
64597501584,-0.00457763671875,-0.248046875,0.411010742188,-0.877258300781
64597524089,-0.0091552734375,-0.261901855469,0.40087890625,-0.877868652344
64597539144,-0.0128173828125,-0.271850585938,0.390441894531,-0.879516601562
64597561618,-0.0169067382812,-0.278076171875,0.381774902344,-0.881286621094
64597584156,-0.0211791992188,-0.282653808594,0.377807617188,-0.881469726562
64597599111,-0.0245971679688,-0.286376953125,0.381164550781,-0.878723144531
64597621665,-0.0278930664062,-0.288452148438,0.392211914062,-0.873046875
64597644205,-0.0296630859375,-0.290283203125,0.409362792969,-0.864501953125
64597659203,-0.0297241210938,-0.290832519531,0.431762695312,-0.853332519531
64597681712,-0.02880859375,-0.289611816406,0.45703125,-0.840515136719
64597704235,-0.0279541015625,-0.286376953125,0.482299804688,-0.827453613281
64597719353,-0.0257568359375,-0.281066894531,0.504760742188,-0.815856933594
64597741647,-0.0213623046875,-0.274475097656,0.521728515625,-0.807495117188
64597764151,-0.013671875,-0.267822265625,0.531372070312,-0.803588867188
64597781975,-0.00732421875,-0.259033203125,0.531494140625,-0.806457519531
64597801586,-0.00445556640625,-0.24853515625,0.522705078125,-0.815490722656
64597824206,-0.00537109375,-0.237060546875,0.507141113281,-0.828674316406
64597842033,-0.0074462890625,-0.225646972656,0.487487792969,-0.843444824219
64597864539,-0.0078125,-0.216369628906,0.468383789062,-0.856628417969
64597879500,-0.00628662109375,-0.207763671875,0.454040527344,-0.866394042969
64597909496,-0.00323486328125,-0.201049804688,0.447082519531,-0.871643066406
64597923071,-0.00079345703125,-0.195922851562,0.447509765625,-0.87255859375
64597939497,-0.0003662109375,-0.191772460938,0.454406738281,-0.869934082031
64597962037,-0.002197265625,-0.188781738281,0.466430664062,-0.864196777344
64597983053,-0.00360107421875,-0.18603515625,0.48291015625,-0.855712890625
64597999502,-0.0045166015625,-0.184265136719,0.502868652344,-0.844482421875
64598021147,-0.00518798828125,-0.183715820312,0.525024414062,-0.8310546875
64598042276,-0.0057373046875,-0.183715820312,0.548095703125,-0.815979003906
64598064783,-0.006591796875,-0.18359375,0.570251464844,-0.800720214844
64598088672,-0.00701904296875,-0.183654785156,0.589416503906,-0.78662109375
64598103688,-0.0052490234375,-0.186401367188,0.603332519531,-0.775390625
64598118115,-0.00164794921875,-0.189880371094,0.61181640625,-0.767883300781
64598141710,0.0003662109375,-0.192321777344,0.615600585938,-0.764282226562
64598162243,0.00042724609375,-0.193664550781,0.615783691406,-0.763732910156
64598178008,-0.00018310546875,-0.195251464844,0.613525390625,-0.76513671875
64598201168,0.00042724609375,-0.196838378906,0.610412597656,-0.767211914062
64598223669,0.0025634765625,-0.198852539062,0.608642578125,-0.768127441406
64598238055,0.00506591796875,-0.200805664062,0.608642578125,-0.767639160156
64598261188,0.00689697265625,-0.201721191406,0.609924316406,-0.766357421875
64598283760,0.00836181640625,-0.20166015625,0.611633300781,-0.764953613281
64598298050,0.0100708007812,-0.200805664062,0.613159179688,-0.763977050781
64598321185,0.0116577148438,-0.199340820312,0.613525390625,-0.764038085938
64598343634,0.0137939453125,-0.197448730469,0.612915039062,-0.764953613281
64598358144,0.0162353515625,-0.195129394531,0.611206054688,-0.766906738281
64598380975,0.0187377929688,-0.192565917969,0.608459472656,-0.769653320312
64598403705,0.0214233398438,-0.189392089844,0.604431152344,-0.773498535156
64598424860,0.0244750976562,-0.184936523438,0.598937988281,-0.778747558594
64598441202,0.0298461914062,-0.178527832031,0.591796875,-0.785522460938
64598463740,0.0375366210938,-0.169372558594,0.583312988281,-0.793518066406
64598484602,0.0460815429688,-0.157775878906,0.573913574219,-0.80224609375
64598501246,0.0538940429688,-0.143188476562,0.564575195312,-0.811096191406
64598523626,0.0604858398438,-0.126892089844,0.555480957031,-0.819580078125
64598544691,0.065673828125,-0.1103515625,0.546020507812,-0.827880859375
64598561129,0.07080078125,-0.0939331054688,0.536560058594,-0.835632324219
64598583405,0.0758666992188,-0.0776977539062,0.527221679688,-0.8427734375
64598604761,0.0809936523438,-0.0616455078125,0.518127441406,-0.849243164062
64598621191,0.0873413085938,-0.0468139648438,0.509033203125,-0.855041503906
64598643647,0.0950927734375,-0.0336303710938,0.500061035156,-0.860107421875
64598664742,0.103149414062,-0.0215454101562,0.490844726562,-0.864868164062
64598681201,0.109130859375,-0.0084228515625,0.481811523438,-0.869445800781
64598703678,0.112670898438,0.0059814453125,0.4736328125,-0.873474121094
64598724723,0.115234375,0.0206298828125,0.467041015625,-0.87646484375
64598741177,0.118469238281,0.0341796875,0.460998535156,-0.878784179688
64598764098,0.122314453125,0.0465087890625,0.455627441406,-0.880493164062
64598792283,0.127014160156,0.0579223632812,0.451232910156,-0.881408691406
64598801165,0.131958007812,0.0689697265625,0.447570800781,-0.881774902344
64598823756,0.137451171875,0.0789184570312,0.444396972656,-0.881713867188
64598844744,0.141967773438,0.0888671875,0.442016601562,-0.881225585938
64598861140,0.143676757812,0.10009765625,0.440246582031,-0.880615234375
64598883704,0.144836425781,0.11181640625,0.439331054688,-0.879516601562
64598904704,0.148986816406,0.120910644531,0.438781738281,-0.877868652344
64598921158,0.155456542969,0.126953125,0.438293457031,-0.876159667969
64598943702,0.160949707031,0.133117675781,0.437316894531,-0.874694824219
64598964849,0.163330078125,0.141906738281,0.435668945312,-0.873718261719
64598981196,0.164672851562,0.151123046875,0.434204101562,-0.872680664062
64599003644,0.16650390625,0.156066894531,0.431884765625,-0.87255859375
64599024737,0.168884277344,0.155517578125,0.430541992188,-0.872924804688
64599040527,0.173217773438,0.150207519531,0.430480957031,-0.872985839844
64599063709,0.175109863281,0.146240234375,0.430358886719,-0.873352050781
64599084907,0.172607421875,0.147277832031,0.429992675781,-0.873840332031
64599100521,0.1689453125,0.151306152344,0.429443359375,-0.874145507812
64599131203,0.167053222656,0.155639648438,0.428771972656,-0.874084472656
64599144829,0.168090820312,0.15771484375,0.428649902344,-0.873596191406
64599160497,0.171691894531,0.156982421875,0.429138183594,-0.872802734375
64599183700,0.176086425781,0.154541015625,0.429748535156,-0.872009277344
64599206180,0.179382324219,0.152221679688,0.429992675781,-0.871643066406
64599220510,0.180725097656,0.150939941406,0.429870605469,-0.871643066406
