64214075336,1,2,2,0,-1,0,-1,-4
64214075336,-5,-9,-4,-1,-1,-1,-2,1
64214076018,0,-3,0,0,1,-1,0,2
64214076018,2,3,3,1,2,3,-2,-6
64214080151,2,-8,-5,-2,1,0,-3,2
64214080151,3,11,2,-2,-2,-4,-8,-5
64214081837,-1,4,4,-1,1,2,-1,-3
64214081837,-18,-10,-7,-4,-4,-5,-1,-9
64214094284,9,7,4,-2,-3,-2,-1,4
64214094284,3,-1,0,0,0,-3,1,-5
64214094942,-6,-9,-4,-1,-3,-3,-1,-1
64214094942,6,7,3,0,-2,-3,-2,-3
64214109920,-11,-7,-9,-1,0,2,1,0
64214109920,0,-1,1,-1,-4,-9,1,7
64214117887,14,3,1,-1,-2,-2,1,6
64214117887,-4,-7,-3,-2,0,6,5,0
64214123565,6,6,2,-1,-2,-3,-1,-5
64214123565,-2,-6,-2,-1,0,5,0,4
64214148533,-6,5,2,-1,-2,-4,-1,-8
64214148533,6,-4,-3,-1,-2,-5,-4,2
64214151420,-7,-2,-2,1,1,-3,-4,-10
64214151420,-2,7,3,1,-1,1,1,-2
64214168231,-3,-1,-5,0,-1,3,-4,-2
64214168231,-1,0,1,0,1,-2,-1,-3
64214202775,-1,-3,-6,-1,-1,-10,0,0
64214202775,4,2,4,-1,-4,0,-1,1
64214207093,-3,-2,-4,0,-1,0,1,6
64214207093,-7,-3,-3,-2,-1,-2,-3,-7
64214207809,0,-1,-1,-2,0,3,-4,-10
64214207809,1,-1,1,0,1,-3,0,3
64214208635,1,-1,4,0,1,1,3,0
64214208635,-9,3,2,-2,-1,-1,3,-1
64214213375,11,1,-1,0,-2,1,-1,8
64214213375,-3,-2,-4,-2,-1,-2,-4,-10
64214237150,3,0,0,-3,-1,1,2,0
64214237150,5,-6,-4,0,1,3,-2,10
64214237930,-20,2,2,1,-4,-12,-7,-19
64214237930,0,-3,-3,-2,1,-2,-3,-5
64214243378,-2,-1,-3,-1,0,-3,-2,-1
64214243378,2,2,2,-1,0,2,0,-3
64214258974,4,-5,0,-2,2,0,-1,4
64214258974,-1,2,2,0,-1,0,-1,1
64214274050,-6,-5,-4,-3,-3,-6,-6,-5
64214274050,-1,-3,-4,-4,-2,-2,0,-3
64214274586,2,-5,-9,-2,0,1,4,15
64214274586,-9,0,13,0,-3,-1,-1,-5
64214297103,15,3,2,0,1,5,2,4
64214297103,-1,5,4,0,1,-1,-6,-7
64214297918,2,-1,-4,-2,-1,2,1,3
64214297918,-1,-10,-10,-3,1,3,2,6
64214310657,-7,0,-1,-4,-5,-13,-3,-1
64214310657,-2,2,0,1,0,-1,0,-2
64214319040,-5,-2,-2,-1,0,5,1,-5
64214319040,1,2,-5,0,0,0,-5,-2
64214334420,-2,-1,-1,-2,-3,-2,1,5
64214334420,10,2,-1,0,-1,-2,-1,-2
64214335151,1,0,1,0,-4,-2,1,12
64214335151,-3,0,-1,0,-1,-3,0,-4
64214356896,-2,-6,-3,1,0,1,-3,4
64214356896,-4,0,0,-1,-2,-3,-1,3
64214357622,-4,16,9,0,-1,-2,-5,-6
64214357622,11,-13,-5,-1,-3,-4,-3,6
64214379557,-1,14,4,-1,-2,0,0,-3
64214379557,-4,-20,-13,-1,-1,1,-2,-3
64214380343,-7,6,5,-2,-1,-1,-4,-13
64214380343,1,1,-4,0,1,-3,1,6
64214394016,-5,-3,-4,0,-2,5,-2,-5
64214394016,-7,0,1,0,-2,-6,1,-6
64214395196,1,-8,-3,-3,0,-2,-7,-12
64214395196,1,0,-2,-1,-2,-2,4,2
64214417067,-1,0,0,-1,0,4,1,4
64214417067,-5,-6,-6,-1,-4,-9,-2,0
64214417921,10,3,5,-1,0,1,0,5
64214417921,-1,8,5,1,1,4,-2,-3
64214439543,-1,-7,-1,-2,0,-3,-2,3
64214439543,3,10,1,-2,-2,-2,1,0
64214440307,-6,-14,-7,-1,-1,-4,0,-1
64214440307,-5,0,-1,-1,-2,-1,-5,-4
64214453929,-3,-5,-6,-1,1,-2,-1,-7
64214453929,-1,2,2,-3,-1,0,-2,2
64214454619,3,-2,-2,0,-3,-9,0,4
64214454619,-3,4,0,-2,0,0,-1,-2
64214477219,0,-7,-2,0,-2,-3,0,-3
64214477219,-3,-1,0,-1,3,5,1,1
64214477810,-2,-1,-3,-2,-1,4,1,5
64214477810,-4,-5,-4,-3,-4,-12,-4,1
64214499547,1,0,-2,-2,-1,-3,-1,-4
64214499547,6,-2,2,0,0,0,0,0
64214500539,-1,-4,-5,-1,-1,3,-3,-3
64214500539,-9,-7,0,0,-1,-1,0,-8
64214513811,-7,6,5,-1,-1,1,-1,-5
64214513811,11,-3,3,-1,1,-2,-1,12
64214514632,-3,-2,-9,-2,1,4,1,-5
64214514632,5,-1,0,-2,0,4,-1,1
64214537129,0,-3,-1,0,1,2,1,-1
64214537129,-5,-2,-5,-2,-4,-6,0,-1
64214537928,0,3,6,1,0,-3,-6,-6
64214537928,-2,-1,-4,-1,0,2,0,-2
64214559697,3,-1,0,-1,-1,-4,0,-3
64214559697,-5,2,0,0,-1,0,-3,2
64214560397,1,-3,-2,-1,1,2,6,5
64214560397,-2,1,-1,-3,-2,2,3,-1
64214573986,1,9,-1,-1,-4,-5,-6,-4
64214573986,-6,-15,-6,-2,-3,-4,-4,-15
64214574657,-5,-4,1,-1,-2,-2,-7,-6
64214574657,1,-16,-8,-2,0,1,4,18
64214597083,-4,16,7,-1,0,-1,1,-17
64214597083,6,2,-3,0,0,5,0,6
64214597914,-10,-5,-5,-2,-5,-4,-4,-20
64214597914,5,-5,-6,0,-1,-2,-1,11
64214619636,-4,3,6,-2,-1,-1,-5,1
64214619636,5,-2,0,-1,-1,-1,3,3
64214620342,-1,3,2,-1,1,4,3,5
64214620342,1,3,-1,1,-2,-2,-1,-6
64214633906,-3,-11,-4,-2,-3,-6,-4,-2
64214633906,-3,6,2,0,0,2,-1,-10
64214634641,4,7,-5,-2,-2,-3,0,8
64214634641,-13,-17,-2,-1,-2,-2,-4,-11
64214657146,5,7,2,2,0,0,1,4
64214657146,-4,2,3,0,0,-2,-10,-6
64214657927,0,-3,-3,-1,-1,8,1,1
64214657927,4,5,0,-2,-6,-11,-4,-6
64214679636,2,-13,-7,0,0,0,-1,6
64214679636,-3,5,3,0,0,0,1,-7
64214680348,-1,6,1,1,0,-5,0,4
64214680348,1,-4,-1,0,1,4,1,-5
64214693822,1,-1,-2,1,0,1,-2,0
64214693822,8,9,11,-3,-4,-8,0,6
64214694619,1,2,3,4,2,1,-1,1
64214694619,1,-1,3,-1,-2,-2,2,5
64214724670,-4,-6,-8,0,-2,0,-2,4
64214724670,-4,0,-3,-2,-2,3,-1,-4
64214725346,2,-4,-1,-4,-2,-4,2,3
64214725346,-4,-3,-4,-2,-1,-2,-3,-5
64214739688,2,3,0,-2,-3,-1,0,4
64214739688,-5,-7,-5,1,0,1,-1,7
64214740348,4,-3,0,1,0,-2,-3,6
64214740348,-6,9,2,-1,0,1,-3,-19
64214754065,5,-2,2,1,-3,-6,-2,5
64214754065,-8,-1,-1,0,-1,-1,-4,-14
64214754662,2,-8,-9,-2,-1,0,2,6
64214754662,-2,15,5,0,0,2,-3,-7
64214777236,-5,-16,-7,-1,-1,-2,-4,-16
64214777236,4,7,6,-1,-2,-4,2,4
64214777802,-9,-2,-2,-4,-5,-4,0,6
64214777802,-6,-1,-2,-2,2,3,5,-4
64214799744,1,3,1,-1,0,3,-1,6
64214799744,-15,-10,-10,-1,-3,-5,-1,-7
64214800355,17,1,2,-3,-1,0,1,8
64214800355,0,1,1,0,0,-2,-2,-4
64214813907,-3,-6,-4,-1,0,0,3,0
64214813907,-2,-5,-4,-4,-3,5,-2,5
64214814622,-13,3,1,0,-1,-6,-3,-21
64214814622,3,2,-4,0,-2,1,0,16
64214837149,-4,-5,3,-1,0,1,-5,-29
64214837149,2,2,3,0,-1,-5,-4,-3
64214837930,-6,-4,-2,-1,0,1,-1,8
64214837930,-8,-2,-2,-1,2,1,-3,-3
64214859667,6,7,0,-2,1,3,-1,2
64214859667,1,-6,-4,0,-1,-1,9,9
64214860370,-6,-5,-5,-1,-5,-2,1,-10
64214860370,0,1,1,1,0,-3,-9,2
64214873871,-2,-6,-13,-2,1,1,1,0
64214873871,5,0,10,2,2,2,-4,-3
64214874707,-6,4,3,1,0,-5,-2,2
64214874707,-5,3,2,-2,-3,-2,0,-8
64214897108,4,-7,1,0,-1,-4,-1,6
64214897108,3,-7,-12,-2,1,4,-4,1
64214897910,-5,-2,0,0,1,-1,-4,-8
64214897910,5,-2,0,-2,1,7,-2,-6
64214919321,-2,-1,-5,-2,-8,-17,4,3
64214919321,-6,0,-1,-1,-1,-2,7,0
64214925674,12,-2,5,-1,0,2,-4,9
64214925674,-7,-6,-5,-2,1,-2,-8,-19
64214933184,-6,4,5,-2,0,4,-4,-7
64214933184,1,7,-5,0,0,0,-4,0
64214942175,-4,-10,-5,-1,-1,-3,2,-4
64214942175,12,6,5,0,1,-3,2,19
64214957014,-10,-1,4,-1,-1,4,-1,-3
64214957014,6,-2,-5,0,-3,-4,-3,-1
64214958588,10,13,7,0,0,4,0,3
64214958588,-2,-7,-8,-2,-2,-4,6,11
64214979551,0,5,1,-2,-4,-4,-3,2
64214979551,-6,0,1,0,1,-1,-5,-4
64214981194,2,-5,-5,-1,-3,1,-2,-8
64214981194,-3,-1,1,1,-1,0,-2,-2
64214993220,6,4,3,-2,-1,1,3,2
64214993220,-5,-9,-7,-2,-2,1,-2,-2
64215002167,-3,-3,0,1,0,-1,-2,-4
64215002167,0,3,1,2,-3,-1,-2,0
64215017052,0,-9,-5,2,2,2,3,19
64215017052,-8,21,15,2,-1,-4,-6,-17
64215018563,-1,-13,-9,-2,-1,-2,0,1
64215018563,3,2,1,-1,-3,-6,-1,7
64215039650,16,-8,-11,-4,-2,-2,3,3
64215039650,-13,1,2,-2,0,0,1,0
64215041170,2,1,-1,-2,-1,-4,-9,6
64215041170,-12,-26,-16,-4,-2,0,3,-7
64215053323,-1,6,2,-1,-3,-4,4,5
64215053323,12,30,27,6,-3,-9,-10,-27
64215062224,-6,-3,-6,-1,2,3,8,5
64215062224,-1,-2,-1,-3,-1,-1,-4,1
64215077636,-11,-14,-14,-3,-1,-2,-3,-3
64215077636,4,-14,-12,-4,-2,1,-1,8
64215079145,1,11,6,-1,-2,-3,0,-7
64215079145,-2,-4,-2,3,-2,-2,0,-3
64215099710,0,11,7,-1,0,2,-2,-5
64215099710,3,-7,-7,-3,-2,-3,-1,10
64215101190,-3,-4,-1,0,1,3,0,-6
64215101190,5,5,0,-2,-2,-5,4,11
64215113264,-7,-1,1,0,1,-1,-8,-20
64215113264,-3,-2,-14,-1,-7,-9,-2,2
64215122207,-14,-18,-5,-4,-2,2,-2,-1
64215122207,17,33,30,6,1,2,-2,-10
64215137171,3,1,3,0,-1,-2,2,11
64215137171,9,-3,-7,-1,4,5,2,13
64215138669,6,-8,-15,-6,-7,-3,-8,-16
64215138669,-19,-16,-9,-3,-2,-3,-4,-4
64215159619,-12,-2,4,-3,0,3,3,2
64215159619,2,3,-5,-1,0,1,3,6
64215161109,-7,-2,-3,0,-1,-4,-3,1
64215161109,0,-3,2,-1,-1,-2,-3,-1
64215182223,-5,1,-3,0,1,-1,-3,-8
64215182223,-4,-10,-7,-3,-1,5,8,-3
64215183663,7,11,6,2,1,-2,-1,3
64215183663,-1,0,-5,-3,-8,-11,2,-7
64215204652,2,1,-3,0,-2,-2,-4,-5
64215204652,-10,-18,-7,-3,-1,0,-5,-5
64215206136,3,21,21,3,-1,2,-1,-8
64215206136,4,2,0,1,0,2,9,17
64215219026,0,-8,-6,-1,1,-1,-1,-6
64215219026,2,11,5,1,1,2,-8,0
64215225940,-6,-11,-9,-2,-3,-7,-7,-5
64215225940,4,-7,-8,-5,-4,-2,-7,-6
64215242074,-4,3,0,1,1,1,4,3
64215242074,-13,-6,-4,-3,-8,1,-1,-4
64215243700,2,4,-6,-5,3,3,6,2
64215243700,4,7,11,13,10,6,-6,-3
64215264646,-3,-16,-3,-2,-8,-11,-6,1
64215264646,9,4,3,-1,3,1,2,-2
64215266166,-11,-2,-6,-11,-12,-10,-5,-1
64215266166,4,-2,-4,-12,0,4,-4,-4
64215278799,-8,3,-11,-20,-14,20,13,-5
64215278799,-4,-4,9,28,8,-15,-8,1
64215287191,2,5,5,11,2,-21,-4,-2
64215287191,-4,-8,-19,-46,-34,2,0,3
64215302093,1,0,4,11,32,2,-7,-5
64215302093,3,6,16,16,8,6,-12,0
64215303587,0,0,-3,-7,12,1,17,4
64215303587,-10,-7,-2,13,-2,-8,-7,-11
64215324820,0,-1,-7,-32,-37,1,22,7
64215324820,6,-7,-16,-23,-14,1,-15,8
64215326191,-3,-1,3,11,5,-1,-17,-4
64215326191,-3,0,-7,-40,-27,5,10,-3
64215338312,0,3,3,20,6,-6,-7,-1
64215338312,-4,-7,-2,9,11,-5,2,-1
64215347197,0,-5,-5,-11,-3,25,5,-2
64215347197,0,3,5,17,33,-19,-15,-2
64215362050,2,6,16,36,55,-7,-27,-4
64215362050,-1,-7,-13,-19,-51,-2,16,2
64215363581,-2,-2,-4,-19,-22,4,6,2
64215363581,2,3,7,-4,-23,4,-12,5
64215384647,2,0,6,13,-27,-20,20,1
64215384647,-2,7,28,103,125,5,-7,-4
64215386379,3,-2,-11,-11,2,-17,12,11
64215386379,-3,-4,-9,-7,-20,4,-4,-3
64215398165,-4,-5,-11,-36,-53,-1,-8,-7
64215398165,-3,-5,-2,-17,16,14,13,-2
64215407176,-4,-1,4,8,1,9,-3,-11
64215407176,-1,7,6,28,25,-8,8,8
64215421990,-1,-6,-17,-34,-15,32,-13,-8
64215421990,-3,-10,-15,-48,-72,-30,39,-4
64215423587,4,-3,1,-20,-11,-1,-24,-1
64215423587,-5,0,27,94,76,-14,-16,4
64215444488,1,-2,-25,-33,-15,13,33,0
64215444488,10,11,12,42,37,9,-13,1
64215446128,-8,-6,20,48,29,-5,4,1
64215446128,-5,-7,-1,-36,-30,-14,-1,-23
64215458185,-7,-3,17,69,58,-5,-33,2
64215458185,-5,-8,-35,-84,-50,3,-14,1
64215467167,21,22,-1,25,3,-7,18,21
64215467167,5,8,-8,-25,-4,40,32,0
64215482032,-8,-10,7,-6,4,-43,-13,-4
64215482032,-10,-18,-7,-15,-1,2,-19,-5
64215483629,-1,0,3,-6,-26,1,-14,-4
64215483629,2,-1,-5,3,-9,6,9,-7
64215504516,8,10,4,-13,-4,-4,18,17
64215504516,-5,-6,-2,-8,-46,-7,-10,0
64215506157,-14,-9,-10,-11,32,7,-6,-6
64215506157,6,-8,-9,-10,-19,-7,-5,6
64215518368,-7,-1,-2,3,5,20,11,-12
64215518368,-6,3,4,-16,-12,-8,-35,-5
64215527167,21,22,13,41,20,13,21,5
64215527167,4,-1,-11,-46,-21,-3,-16,-5
64215542129,-9,-23,1,29,12,-14,4,2
64215542129,4,24,7,3,18,-2,6,8
64215543633,-13,-13,-4,-19,-38,-14,-20,-24
64215543633,-16,-19,-9,15,28,12,11,11
64215564589,4,8,-5,-29,-33,-12,-25,-6
64215564589,-5,-25,-6,10,24,10,4,-7
64215566154,-1,7,-1,-16,-16,-26,16,6
64215566154,1,5,0,7,-4,-15,-21,4
64215578329,5,3,0,-4,-7,10,13,7
64215578329,3,5,6,10,12,0,-8,-13
64215587179,-8,-6,1,7,8,31,19,2
64215587179,-11,-6,-7,-20,-31,-15,7,4
64215602123,10,22,0,17,25,4,6,-10
64215602123,6,2,2,2,-2,14,11,8
64215603584,10,-8,1,-26,-23,-9,-13,3
64215603584,-6,0,2,28,28,5,2,-2
64215624678,-6,1,-4,-20,-17,-1,-8,-3
64215624678,-2,3,-2,1,-15,-4,11,2
64215626167,2,-2,-9,-10,-1,-4,-19,3
64215626167,-6,-3,1,11,25,8,-1,-6
64215647171,1,-3,1,-5,0,7,2,2
64215647171,-3,-4,-6,-10,-9,-9,-10,-3
64215648649,-9,-1,-1,4,-2,10,6,-2
64215648649,15,5,-3,-12,-16,-2,-10,-9
64215661338,-13,-7,-5,-5,0,10,16,2
64215661338,0,9,-2,7,7,1,5,-1
64215668256,-5,-17,-4,-14,1,-8,8,0
64215668256,-10,-5,1,7,-3,-7,-1,-8
64215684619,14,8,12,30,23,6,-5,-2
64215684619,6,2,1,-1,0,2,1,2
64215686204,-3,5,2,5,-1,-3,-10,-3
64215686204,4,-2,-3,-11,-6,-4,-5,3
64215698749,-9,-1,-6,-23,-15,-3,1,-1
64215698749,-4,-10,8,33,15,-4,6,0
64215707190,2,-1,-6,-6,-8,-31,-31,1
64215707190,4,5,3,-4,-1,7,39,0
64215721547,-10,-1,0,8,25,-3,-23,-2
64215721547,0,-1,1,-13,-10,-6,3,9
64215728409,8,2,-4,2,6,8,-6,-1
64215728409,-4,-6,-1,2,-4,0,7,7
64215752156,1,6,2,3,-3,1,-4,-3
64215752156,3,-4,-7,-13,-11,-12,-2,-1
64215753625,-13,-17,-2,4,-8,3,7,-3
64215753625,9,10,-10,-16,-14,3,8,5
64215758356,1,-6,4,30,36,-6,-16,-8
64215758356,-5,-7,0,-7,-10,16,-3,-4
64215773199,1,10,-8,-11,-2,16,26,2
64215773199,-4,-3,3,5,36,-4,-7,-4
64215781333,1,-4,-4,-9,-36,-25,4,7
64215781333,-5,-10,-4,1,3,4,9,4
64215795697,5,3,-2,-3,6,9,-9,-8
64215795697,-7,3,3,-1,-21,-9,-9,-4
64215804490,-3,-16,-5,-10,-9,3,7,6
64215804490,0,3,-7,-5,-11,-8,-15,-8
64215806156,9,13,17,33,37,0,-16,5
64215806156,2,2,-2,-15,-28,-8,-8,-1
64215818169,20,7,0,2,13,13,-2,1
64215818169,-19,-13,-5,2,-3,1,24,2
64215827161,-16,-8,-4,-9,-5,-4,-2,-4
64215827161,2,3,2,9,1,3,-13,-5
64215841500,-5,0,-2,-14,-13,17,-1,2
64215841500,13,7,-4,-17,-7,-26,0,2
64215848270,-3,-1,1,6,-1,2,5,-1
64215848270,1,3,1,5,-7,-10,-7,5
64215879490,5,-2,-2,-5,13,1,-1,0
64215879490,0,0,-2,1,7,13,5,7
64215881171,1,-4,-2,-9,-13,-46,-30,-15
64215881171,-11,-9,-9,-9,0,14,17,2
64215887573,-9,-2,5,8,-26,-13,-13,-4
64215887573,13,15,3,13,33,11,7,1
64215888975,-2,0,0,5,10,10,14,5
64215888975,10,1,-2,1,2,11,0,-1
64215901081,-5,-2,-2,-10,-13,-15,-7,-5
64215901081,-6,-5,3,-9,-11,-7,-8,-5
64215909646,2,-3,-7,-14,-25,8,2,1
64215909646,-2,-1,-3,4,29,19,-2,2
64215924476,-8,2,5,14,-3,-31,-16,-2
64215924476,-2,-10,-4,-6,-9,3,-5,-6
64215926089,-5,5,1,0,1,-3,-6,-3
64215926089,3,-8,-6,-2,-12,-5,6,8
64215963334,3,0,-3,-12,6,1,-6,1
64215963334,-2,4,2,6,5,6,10,0
64215964950,6,-2,1,-3,-13,0,2,-1
64215964950,-15,-3,-1,3,13,9,-11,-11
64215965794,12,3,-4,-6,-10,-1,10,6
64215965794,-7,-2,0,-1,-7,-10,-6,-6
64215969686,-4,-3,-7,-12,-4,12,0,-5
64215969686,5,1,-1,6,5,-25,7,4
64215984643,-2,0,-2,0,-1,5,2,3
64215984643,-5,-12,-2,-11,-4,12,-1,-3
64215986156,-3,-3,3,20,4,0,6,2
64215986156,1,2,1,-2,6,-2,-7,-4
64216007125,-6,-1,-2,-5,-11,-6,-5,-2
64216007125,12,18,1,-2,-6,3,10,5
64216008649,4,-7,-4,6,9,11,4,0
64216008649,-7,-3,2,1,-10,-4,0,-2
64216030171,-5,-8,0,-3,7,-3,-8,-5
64216030171,-2,4,0,-10,-20,4,8,4
64216031593,-6,-4,-7,-4,11,-11,-4,-1
64216031593,5,1,-1,-12,-15,-3,-7,-1
64216051998,-2,-4,-2,-3,-4,2,-10,-7
64216051998,-7,-4,-4,10,7,-1,-3,-5
64216053623,2,3,-7,-11,-8,-16,-9,4
64216053623,-6,-8,1,8,7,12,8,-4
64216067155,3,1,0,-13,-15,1,5,-1
64216067155,0,0,-2,7,21,5,-2,-3
64216068635,-2,-5,-4,-8,-16,-1,5,12
64216068635,-4,-2,2,5,11,-15,-21,-14
64216081430,-1,4,0,2,7,18,18,-1
64216081430,-1,-5,-1,6,11,-7,-17,-7
64216088199,6,-2,-2,-2,-15,-5,-1,-5
64216088199,-11,-6,-3,-3,0,7,4,4
64216104677,9,1,-1,4,2,-6,-1,2
64216104677,-14,-2,-5,-11,-11,8,2,-1
64216106165,5,6,3,1,3,11,-7,-2
64216106165,12,7,-1,-3,-8,-5,12,4
64216127125,-3,-4,-4,0,3,15,14,4
64216127125,4,-3,-1,-5,-6,-15,-16,1
64216128586,-7,-3,-3,-10,-16,-2,4,-5
64216128586,-2,0,3,8,13,4,-2,3
64216149569,-5,1,5,21,25,-4,-8,-6
64216149569,3,-4,-3,-6,-10,-6,0,4
64216157162,-5,0,1,2,9,2,3,-4
64216157162,1,-1,-7,-10,-17,-16,-2,0
64216179521,-3,-3,-6,-8,-5,5,1,-1
64216179521,-7,-2,2,-1,11,-4,-10,-9
64216181141,2,3,3,22,5,13,-5,-3
64216181141,6,8,8,2,3,2,21,12
64216187194,-3,-11,-3,5,1,-17,-15,-1
64216187194,2,-1,-4,-5,-6,-5,-1,1
64216188585,-4,-3,-4,-14,-4,7,12,0
64216188585,-1,1,-2,3,-1,0,-13,-6
64216201509,0,2,-3,-6,-4,2,3,0
64216201509,0,5,0,-17,-27,-14,-12,-4
64216208370,3,6,12,22,44,17,8,2
64216208370,-14,-8,1,3,-7,-5,-11,-4
64216232211,2,1,-2,-1,1,9,8,0
64216232211,-2,-4,-4,-9,-22,-8,-2,2
64216233662,0,-1,-3,-6,-4,1,5,-1
64216233662,2,0,1,5,5,-1,-3,-2
64216254652,-3,2,-3,-7,-13,-1,1,-2
64216254652,8,2,0,9,13,0,6,6
64216256120,-7,-13,-8,-10,-4,-5,-9,-2
64216256120,4,9,3,6,-2,-7,-5,-5
64216261471,-1,0,4,-9,-4,0,6,4
64216261471,-13,-4,3,12,3,4,-1,-2
64216275793,6,0,-4,1,7,-3,8,4
64216275793,-2,-4,-5,-12,-12,3,-12,1
64216284624,2,3,-2,-1,0,-1,-1,-3
64216284624,3,2,-2,-4,2,3,2,-2
64216286149,-12,-6,-5,-18,-21,-11,-6,-5
64216286149,11,6,0,10,7,-5,-2,-2
64216307152,-6,-2,0,10,22,-1,5,9
64216307152,1,-3,0,5,4,-4,4,-6
64216308604,-6,-4,-3,0,3,-1,-10,-1
64216308604,2,-5,-2,-10,-13,-3,-3,0
64216321472,1,4,-4,-14,-8,6,-6,-6
64216321472,9,7,3,16,4,-16,-2,5
64216328309,-18,-13,3,6,1,-1,-3,-1
64216328309,12,3,-1,3,9,7,11,4
64216351995,-4,-3,1,2,0,5,5,-1
64216351995,0,3,1,-3,2,2,-2,-2
64216353592,4,5,-1,-9,-15,-5,-2,-2
64216353592,-7,-8,-2,-8,7,-3,-8,-1
64216381886,-2,-1,3,12,2,-5,-4,-5
64216381886,5,0,-1,-2,0,-1,2,4
64216390268,1,-2,1,2,1,5,4,2
64216390268,-8,-2,-4,-8,-8,7,4,-3
64216391002,5,4,1,-4,-7,-6,-10,-2
64216391002,-5,-8,-1,-6,-3,-3,6,1
64216392627,3,0,1,4,-4,-3,-1,0
64216392627,-2,0,-4,-4,3,9,0,-7
64216404487,13,4,1,6,10,-9,-8,-2
64216404487,-14,-11,-5,-5,-9,-19,3,3
64216406111,0,1,6,8,3,-1,-3,0
64216406111,2,-1,-1,4,-9,-2,-8,-2
64216427025,-3,3,1,3,17,14,6,0
64216427025,4,2,-5,-11,-8,4,-1,-2
64216428646,2,3,3,13,17,-2,1,-2
64216428646,-6,-5,-4,-4,-7,-8,-1,-1
64216465941,-5,-6,-6,-13,-16,-4,-2,-2
64216465941,-1,-4,-2,5,12,14,-4,-3
64216467466,3,3,-1,1,-12,-8,-4,-1
64216467466,-2,-3,1,1,16,2,-2,-1
64216468290,-6,-3,-3,-5,-12,5,10,0
64216468290,-3,4,1,-6,-3,2,0,-4
64216479661,18,6,-1,-13,-6,-1,-7,-3
64216479661,-15,-20,-7,-3,-4,-11,5,10
64216487107,0,-2,2,4,-6,-9,-17,-2
64216487107,1,-1,-3,11,16,10,21,1
64216488590,-5,-3,0,2,0,7,1,-2
64216488590,7,11,1,-3,-4,-1,-3,-1
64216500750,-5,-7,-1,-2,-2,-3,-4,-3
64216500750,-2,0,-2,-2,-6,-1,-8,-4
64216509666,0,-3,-6,-9,-5,-8,-1,4
64216509666,-2,-2,0,-6,-4,-7,-13,-8
64216524630,-2,-1,7,19,14,18,25,4
64216524630,6,6,3,8,11,1,-5,0
64216526150,-5,-5,-7,-13,-7,-8,-1,-2
64216526150,-4,-2,-1,-5,-11,2,-3,-2
64216547129,-5,-2,-3,-11,-6,-10,-8,-4
64216547129,9,13,0,-3,-2,1,-1,-1
64216548614,-5,-15,-4,-5,-5,5,-8,1
64216548614,-6,-7,-4,-5,-10,-9,16,-1
64216560768,12,1,4,24,14,-1,-6,1
64216560768,-8,0,1,0,2,4,1,-2
64216569677,-12,3,-1,-4,9,-5,-12,-9
64216569677,13,7,-1,2,-10,0,-2,1
64216584725,-4,-5,-2,-2,8,-5,-5,-1
64216584725,2,-8,-4,-13,-19,4,4,2
64216586134,5,9,0,3,-5,-25,-4,0
64216586134,-6,-4,0,2,22,8,-12,-5
64216607124,5,1,-7,-15,-22,-5,-1,1
64216607124,-10,-4,1,6,13,-9,-12,-3
64216608605,-4,4,2,-2,-6,6,6,0
64216608605,1,-8,-3,2,1,2,1,0
64216620773,-3,1,-1,-13,-14,-20,-10,-1
64216620773,-1,-7,-1,2,1,2,2,2
64216629692,-6,1,1,1,-3,1,5,-1
64216629692,-1,7,1,5,4,2,1,-5
64216644590,-6,-7,-4,-3,0,6,-2,1
64216644590,4,-3,-5,-6,-4,-9,-12,-4
64216646150,3,2,0,0,2,6,1,-1
64216646150,-3,-3,1,0,-10,1,4,7
64216667598,-1,0,-3,-1,15,1,4,-2
64216667598,1,3,3,-1,-20,-2,-9,-6
64216669088,1,-3,0,4,21,-9,-2,2
64216669088,2,6,1,1,-12,-2,-8,0
64216680821,4,-9,-7,-10,-3,11,7,0
64216680821,-3,-2,-3,-6,-6,-9,0,-1
64216689629,-10,-4,0,2,-2,9,0,-3
64216689629,-1,-2,7,19,16,12,6,-1
64216704652,1,1,-3,-7,-14,-12,0,1
64216704652,3,4,1,1,10,-13,-13,1
64216706163,8,2,-4,-11,-10,3,6,-1
64216706163,-9,-1,-1,1,0,-8,-2,-6
64216727125,1,4,1,8,6,8,-3,-1
64216727125,-6,-11,-4,1,-8,8,2,1
64216728641,-1,-1,-5,-7,-2,-1,-6,-1
64216728641,-1,-1,-2,-6,0,-3,12,-1
64216741283,2,-3,-1,-6,-8,-5,-6,0
64216741283,-2,3,-1,-13,-3,-1,1,-2
64216749746,-4,-11,-1,19,5,6,7,2
64216749746,2,6,1,-5,5,9,-5,-1
64216764596,1,1,-1,-5,-12,-8,3,-1
64216764596,-3,-4,-4,-2,6,-2,-5,-2
64216766109,2,-5,4,8,3,4,7,1
64216766109,-3,-4,-1,-6,-3,-4,-3,2
64216787201,-7,2,-1,0,5,-1,2,-2
64216787201,0,4,-1,-1,-8,-3,-6,0
64216788585,2,3,-2,-7,-5,5,6,1
64216788585,2,0,-4,-2,-3,-11,-1,4
64216809550,-4,0,3,0,1,8,-9,-5
64216809550,1,-3,2,8,14,4,12,2
64216811144,-3,-1,-3,-5,-3,1,-1,-1
64216811144,-4,-5,-1,-7,-9,-6,-9,-6
64216832045,4,3,-3,-6,-12,-3,4,-1
64216832045,-9,-8,-5,-17,-14,-7,4,3
64216833556,4,7,15,47,39,2,-16,-5
64216833556,0,-1,-3,-6,-7,-2,1,-1
64216846973,-6,-5,-4,-6,-7,-1,1,-3
64216846973,0,-3,-2,1,2,9,0,-2
64216848612,-2,-2,-8,-20,-17,0,5,0
64216848612,1,5,1,1,4,-4,-10,-4
64216869552,-5,0,0,3,3,-3,-6,-5
64216869552,1,-11,-6,-4,-5,2,13,-2
64216871114,0,1,0,-7,-10,-6,-1,2
64216871114,1,-5,0,6,6,1,-6,-2
64216884647,-3,2,-5,-8,0,-6,0,0
64216884647,0,4,2,4,0,2,-10,-3
64216886134,1,-3,-2,-9,-1,-8,-6,-3
64216886134,-2,-5,-5,-5,-4,3,2,-2
64216907144,-1,2,3,0,0,5,3,0
64216907144,-5,-4,-5,-5,-7,5,3,-4
64216908633,4,3,4,12,10,0,-3,-4
64216908633,0,1,-3,-5,-1,-1,1,2
64216929639,-3,-5,-3,0,0,4,4,1
64216929639,-1,-1,1,3,1,-21,-6,-5
64216945993,-2,-4,-7,-15,-10,-2,0,0
64216945993,1,-1,4,-2,0,5,2,3
64216946804,0,-3,-1,9,-4,-15,-2,0
64216946804,1,4,2,4,9,7,1,2
64216958186,-3,-2,-3,-12,-16,-3,1,-1
64216958186,1,-1,-5,-3,2,0,1,-2
64216967149,-6,6,-1,-2,-1,8,1,1
64216967149,6,0,-1,-5,-8,-8,-11,1
64216968596,-14,-12,-6,-4,8,-6,2,-2
64216968596,2,4,5,18,10,-1,-10,-5
64216989694,-2,-7,-4,-5,1,-6,1,-1
64216989694,5,8,3,2,4,16,-8,-5
64216991106,-2,2,-1,-11,-10,-7,-13,-6
64216991106,-3,-2,-3,-6,-17,0,12,2
64217019565,5,-1,-1,4,2,-9,-5,1
64217019565,3,1,2,8,7,1,6,2
64217021115,-2,-4,-2,-6,-9,-1,-2,0
64217021115,1,5,-1,-2,-1,0,-3,-3
64217027163,3,-6,0,0,-6,7,1,-1
64217027163,-2,5,1,-2,-3,-10,-2,4
64217028647,0,-2,3,2,3,1,-6,3
64217028647,-5,-5,-1,2,2,2,8,0
64217049624,0,2,-2,-4,1,-1,-2,-2
64217049624,-2,-5,-5,-8,-13,-5,0,-4
64217057184,2,4,-1,6,16,5,3,0
64217057184,3,3,11,28,17,-12,-7,1
64217063999,-3,-2,-1,-6,4,11,5,0
64217063999,-1,-3,-1,2,-3,-6,-14,-4
64217070870,1,1,-8,-16,-16,2,16,4
64217070870,-4,-1,-4,-13,-7,0,-7,-5
64217087105,-5,-4,-3,0,-3,-13,-4,0
64217087105,6,0,2,2,-8,0,0,-6
64217088582,-13,-10,-4,10,13,2,4,13
64217088582,3,3,-1,-1,-4,-8,-3,-4
64217109645,-4,-4,4,14,8,0,-9,-3
64217109645,-2,-1,-3,-5,3,5,5,2
64217111137,4,2,-2,-5,-7,-7,-5,-4
64217111137,-4,-2,-6,-13,-11,1,7,0
64217123968,1,0,-4,-15,-17,4,-3,-1
64217123968,0,-1,4,20,21,6,12,6
64217138319,4,10,7,13,2,2,-6,-3
64217138319,-3,-6,-3,-3,0,-3,1,3
64217147175,-1,-7,-5,-7,-9,-4,1,-4
64217147175,-7,-3,-6,-11,-2,-6,-2,0
64217148606,2,-2,-1,-16,-18,-10,1,-3
64217148606,-1,2,1,8,22,3,-4,0
64217169618,1,5,6,22,22,1,9,0
64217169618,-3,3,1,3,1,7,-7,5
64217171129,-2,-5,-3,-6,-4,-3,-1,-2
64217171129,-4,-7,-8,-19,-22,-21,-8,-5
64217192106,1,-2,-2,0,8,-2,-8,-1
64217192106,-5,-1,4,5,2,6,9,-2
64217193613,3,-1,1,0,-3,2,-5,-5
64217193613,-3,2,-2,-7,-5,0,2,0
64217222125,1,0,1,1,-5,-12,-10,0
64217222125,-3,-3,-3,-8,-5,13,2,0
64217223612,4,-4,-3,-4,-6,-5,2,0
64217223612,-1,-3,-3,3,1,-8,-13,-2
64217229633,-4,-1,2,6,4,4,-1,-2
64217229633,-3,-3,-4,-4,-6,-7,-4,-5
64217231131,-3,-3,-4,-1,1,-2,-2,0
64217231131,3,1,-2,-2,-1,13,13,4
64217243940,1,2,-5,-12,-9,-15,-9,-7
64217243940,-4,-4,-2,-4,-4,-2,6,5
64217250666,-1,4,-2,1,-3,-9,-3,-4
64217250666,0,-1,1,9,2,-7,-4,0
64217267069,-2,-4,-1,-4,3,10,1,0
64217267069,0,1,-1,-1,-4,-5,1,-3
64217268605,-1,2,0,-4,0,2,-1,1
64217268605,-1,-4,-3,-10,-11,-2,-6,-6
64217297099,-1,-2,-2,7,4,-8,-1,3
64217297099,-2,-2,-2,-1,-2,3,-6,-2
64217298602,-5,1,1,1,5,12,2,-4
64217298602,7,-6,0,0,-3,1,3,3
64217319685,2,5,-3,-6,-5,-2,2,13
64217319685,4,2,1,1,2,7,-16,-8
64217321162,-2,-2,-2,3,1,-2,16,-2
64217321162,3,7,-15,-6,0,-6,0,-1
64217327114,-11,-20,2,2,4,18,12,3
64217327114,-3,23,13,3,-10,-14,-5,0
64217328583,-4,-18,-3,-3,6,3,-12,1
64217328583,-9,2,-2,2,8,27,7,-3
64217349627,14,-1,-6,-4,-5,-14,-13,-7
64217349627,-16,-5,-4,-3,7,10,6,4
64217351098,2,5,2,3,2,9,-7,-1
64217351098,2,-1,2,-3,-24,-35,7,4
64217371395,-9,3,-3,1,5,12,1,-6
64217371395,25,-7,-1,0,6,22,12,13
64217372115,-40,-9,11,2,-1,-22,-11,-21
64217372115,24,15,3,-3,2,-1,0,12
64217386424,21,14,8,-3,-18,-21,61,18
64217386424,-29,-6,-7,3,4,-1,40,-28
64217387091,5,-17,-8,-6,-18,-19,-12,15
64217387091,-21,-13,-2,3,1,13,-28,-19
64217408900,3,8,1,-8,-9,-23,-27,-1
64217408900,0,0,-1,-3,-5,-23,-40,25
64217409599,16,3,-7,-1,13,40,6,-1
64217409599,-13,-5,-2,-7,-11,-15,-24,-12
64217431435,-4,-4,-5,-5,-7,4,-33,2
64217431435,3,-15,-7,0,9,6,4,-7
64217432139,2,11,1,2,-3,-9,-2,0
64217432139,11,8,9,-2,-17,3,16,16
64217454340,-4,12,1,6,42,65,34,3
64217454340,22,-3,-1,-10,-25,-13,-22,-3
64217455140,-1,-3,-5,3,12,-42,-18,-3
64217455140,-1,-12,-3,0,4,8,-11,-4
64217468949,-18,9,6,0,-6,-3,-9,-16
64217468949,19,-9,-3,1,-7,4,5,7
64217469686,-3,-12,-11,-8,5,16,48,11
64217469686,20,15,3,8,-14,-30,-16,-18
64217499620,-68,-15,8,1,8,-29,-41,-26
64217499620,19,15,4,-10,-10,18,24,19
64217500324,-8,5,-4,-2,-2,-11,-11,-10
64217500324,10,-9,-9,-3,10,14,16,17
64217506388,11,-13,-13,-10,-17,-8,-11,2
64217506388,-9,1,0,8,12,-5,9,-14
64217507124,6,0,6,8,-5,-6,-18,-5
64217507124,-15,-11,-10,2,16,8,3,-1
64217528810,2,-9,4,-9,4,8,-4,-2
64217528810,-8,20,0,2,2,2,2,0
64217529594,27,19,0,-9,-15,28,17,19
64217529594,-14,-17,-7,26,19,3,23,14
64217551423,5,-9,7,3,-17,-6,-40,-8
64217551423,-6,-9,-2,-1,10,-10,22,-8
64217552118,-1,7,-1,-16,-21,28,13,-7
64217552118,-12,-29,-5,-3,22,-15,-28,8
64217566395,21,40,12,21,-12,-25,-39,-6
64217566395,-1,-8,4,-1,-8,18,16,8
64217567146,-9,-20,-6,-7,-2,22,21,-8
64217567146,-17,41,18,4,-1,-14,14,0
64217588931,4,-20,-17,-20,-6,22,-2,-1
64217588931,-7,-12,-9,-10,-15,-73,-51,-4
64217589594,-10,-4,7,24,19,29,37,9
64217589594,-23,15,4,-11,-17,12,3,-37
64217611407,-8,-33,-15,-17,1,-25,11,14
64217611407,4,33,-4,-4,-6,2,38,11
64217612093,-4,-26,-5,-14,7,-61,-57,-23
64217612093,14,2,12,44,37,-28,11,8
64217626422,3,1,-2,-2,-42,0,18,16
64217626422,2,4,-11,-14,18,8,-28,-14
64217627126,8,-4,-2,-17,-26,-18,5,18
64217627126,18,2,1,-9,15,40,16,-2
64217648862,-5,-12,-6,-4,-12,-12,-15,-15
64217648862,18,-2,-8,1,-18,-4,-5,11
64217649595,-33,6,9,15,16,23,-4,-14
64217649595,8,3,4,-15,-6,18,2,6
64217671363,14,2,9,11,10,-19,-21,-9
64217671363,-18,-8,0,16,33,12,-16,-25
64217672070,10,6,-7,3,-3,-17,7,9
64217672070,-3,-11,-8,-9,-16,4,-5,-8
64217686353,-2,-3,-12,-33,-32,-31,24,12
64217686353,-12,-3,17,53,60,13,-39,-16
64217687066,-2,6,6,2,-30,-16,-49,-16
64217687066,-6,-9,5,10,26,38,21,0
64217708910,-3,9,0,18,32,4,23,4
64217708910,4,-16,-9,-32,-35,4,-6,4
64217709561,0,-1,-8,4,-1,-1,-11,-3
64217709561,23,6,7,-12,-18,-8,-30,-5
64217739691,-3,5,1,2,5,20,35,-7
64217739691,-3,-3,-9,-16,-18,-17,9,-1
64217740311,-45,-5,2,-4,-4,3,2,-9
64217740311,24,-22,-24,-22,-34,-23,-7,16
64217746443,10,34,34,16,36,29,-10,-8
64217746443,-13,-17,12,13,3,-6,-10,-8
64217747079,22,35,11,8,3,-19,5,4
64217747079,-19,-8,-12,-2,12,19,26,8
64217768927,2,-7,-14,-8,-26,-16,-6,-2
64217768927,-2,8,12,-3,2,11,-5,-6
64217769625,3,-2,-4,6,10,9,12,6
64217769625,-5,2,-1,-14,-28,-22,-9,-3
64217792122,19,-2,-9,9,20,20,7,5
64217792122,-51,-20,-1,-7,4,-3,11,-8
64217792794,5,-7,-11,-7,6,6,8,4
64217792794,1,6,12,4,-3,-10,-35,-15
64217806357,-10,-6,-9,-10,-16,9,29,2
64217806357,9,-5,-10,-12,-9,1,-5,13
64217807073,9,-18,2,22,18,27,11,-3
64217807073,-34,22,6,-9,-15,-18,9,-6
64217828909,0,-17,-3,-4,16,6,-13,-8
64217828909,2,17,6,-7,-22,-17,12,10
64217829568,26,-10,-4,-3,5,-17,-7,-5
64217829568,5,-1,-3,-1,1,4,-8,-7
64217852099,-9,-10,-8,-7,-22,-14,-19,0
64217852099,-5,1,-2,2,23,25,4,-10
64217852802,8,3,6,3,-12,-21,10,5
64217852802,-8,0,-2,-2,-2,-3,3,-4
64217866450,5,-3,-2,-3,-8,-29,-5,8
64217866450,2,-10,-6,-5,-13,5,0,5
64217867126,9,14,3,-6,10,15,3,4
64217867126,-28,-15,-8,1,3,12,8,-11
64217888796,6,2,0,6,16,14,-10,8
64217888796,14,14,9,4,-10,-16,33,-3
64217889614,-13,-5,-6,-9,-3,-3,-18,-3
64217889614,20,-11,-12,-3,-2,-5,18,26
64217912338,0,19,16,4,-2,4,6,0
64217912338,-41,-17,-5,3,0,-10,-21,-34
64217913140,15,18,6,-2,7,16,-7,13
64217913140,-12,1,-13,-8,-13,-21,-2,-3
64217926288,4,-12,-1,3,-1,-4,8,1
64217926288,-9,-13,-2,-5,-4,2,8,7
64217927069,-23,-2,-2,-4,-4,-4,10,4
64217927069,30,10,5,1,3,2,-8,8
64217948982,-8,5,-2,4,7,11,-5,-15
64217948982,20,2,3,2,-16,-19,-7,13
64217949594,-7,-8,-1,-4,4,11,-5,-12
64217949594,2,-4,5,3,1,-5,-5,6
64217971196,22,5,-2,2,4,7,10,-4
64217971196,-64,-23,-6,0,8,13,-1,3
64217978927,13,7,-6,-4,-7,-9,4,7
64217978927,-18,11,15,-2,-5,-5,14,10
64217986425,-5,2,7,6,12,21,-7,-12
64217986425,24,-4,-14,-5,-9,-5,-6,5
64217987127,-3,-11,0,-2,-5,-1,-7,-18
64217987127,-10,0,1,1,4,9,-2,2
64218008917,-13,-3,-2,0,-1,-1,11,1
64218008917,29,15,5,0,0,-2,-3,12
64218009596,-3,-10,-9,-3,-6,-10,-3,-11
64218009596,1,-2,2,-1,4,14,-13,-2
64218032011,-14,1,-3,0,-3,-11,11,1
64218032011,42,0,-6,-2,-4,4,3,5
64218032767,-28,-2,-3,-4,-1,-3,1,-3
64218032767,-4,3,2,1,0,-11,-7,-6
64218046345,-1,4,3,-3,-3,-2,7,7
64218046345,6,1,-6,-4,-5,1,10,-3
64218047066,-23,-18,-1,-5,-3,-5,0,0
64218047066,13,-2,5,2,0,-3,12,7
64218068976,10,-5,-13,-4,-2,-2,-11,0
64218068976,6,12,4,1,2,4,0,-4
64218069617,0,0,-2,-2,0,-6,-4,-2
64218069617,-20,-11,-5,0,-4,-1,-5,-4
64218092119,20,-10,-5,-1,1,1,-10,-1
64218092119,-4,5,1,2,1,2,-8,6
64218092772,36,25,4,-1,-2,-7,1,6
64218092772,2,-4,3,-2,0,2,2,-4
64218106419,-26,3,5,3,6,3,2,-3
64218106419,-5,-10,-2,0,0,3,-29,-12
64218107122,-2,-8,-2,1,2,1,0,-2
64218107122,8,-9,-11,-3,-4,-11,-5,-5
64218129009,-9,0,-1,0,0,-1,-27,-15
64218129009,12,6,4,-2,-1,2,10,7
64218129597,-11,-1,-3,1,0,7,2,-2
64218129597,1,-1,-1,3,0,-2,-12,-14
