64460412968,0.156921386719,0.203308105469,0.127563476562,-0.9580078125
64460434232,0.156860351562,0.203369140625,0.127563476562,-0.9580078125
64460449187,0.156433105469,0.207153320312,0.127685546875,-0.957275390625
64460473004,0.156860351562,0.206359863281,0.127136230469,-0.957458496094
64460502240,0.15625,0.206787109375,0.127319335938,-0.957397460938
64460509203,0.156188964844,0.206420898438,0.127319335938,-0.95751953125
64460533061,0.156982421875,0.205383300781,0.127014160156,-0.957641601562
64460554485,0.158142089844,0.204223632812,0.126586914062,-0.957763671875
64460593731,0.161315917969,0.202270507812,0.125610351562,-0.957763671875
64460595857,0.161071777344,0.204345703125,0.126037597656,-0.957336425781
64460607987,0.157348632812,0.209045410156,0.127624511719,-0.956726074219
64460629902,0.156188964844,0.210021972656,0.128051757812,-0.956604003906
64460645652,0.1572265625,0.203857421875,0.127685546875,-0.957824707031
64460676159,0.157775878906,0.203369140625,0.127319335938,-0.957885742188
64460719148,0.157775878906,0.203430175781,0.127319335938,-0.957885742188
64460729163,0.158081054688,0.203369140625,0.127502441406,-0.957824707031
64460730846,0.158508300781,0.203491210938,0.127685546875,-0.957702636719
64460749660,0.159301757812,0.202270507812,0.128173828125,-0.957763671875
64460763996,0.158203125,0.20703125,0.128967285156,-0.956848144531
64460786659,0.155456542969,0.21142578125,0.130432128906,-0.956115722656
64460809165,0.151733398438,0.216186523438,0.132385253906,-0.955383300781
64460824172,0.148559570312,0.219177246094,0.134399414062,-0.954895019531
64460846572,0.149536132812,0.2177734375,0.135864257812,-0.954895019531
64460869141,0.154174804688,0.212341308594,0.137817382812,-0.955078125
64460884147,0.154602050781,0.20751953125,0.138061523438,-0.9560546875
64460906521,0.15234375,0.206298828125,0.13671875,-0.956848144531
64460937857,0.149536132812,0.208740234375,0.137512207031,-0.956665039062
64460943980,0.149291992188,0.202331542969,0.138488769531,-0.957885742188
64460966703,0.151245117188,0.197265625,0.140869140625,-0.958312988281
64460988993,0.154602050781,0.18896484375,0.143310546875,-0.959106445312
64461004006,0.155822753906,0.178283691406,0.144348144531,-0.960815429688
64461026534,0.152954101562,0.165161132812,0.143798828125,-0.963684082031
64461049099,0.145141601562,0.150634765625,0.141967773438,-0.967529296875
64461064150,0.133239746094,0.134948730469,0.139526367188,-0.971923828125
64461086456,0.121276855469,0.11669921875,0.13720703125,-0.976135253906
64461108979,0.111022949219,0.095947265625,0.135498046875,-0.979858398438
64461125485,0.103820800781,0.0728759765625,0.133544921875,-0.98291015625
64461146465,0.0988159179688,0.0479125976562,0.131896972656,-0.985168457031
64461169061,0.0943603515625,0.02197265625,0.131591796875,-0.986572265625
64461185453,0.0895385742188,-0.00390625,0.131713867188,-0.987243652344
64461213996,0.0829467773438,-0.0299682617188,0.132202148438,-0.9873046875
64461229025,0.0758056640625,-0.0557250976562,0.134094238281,-0.986511230469
64461245441,0.069091796875,-0.0804443359375,0.136779785156,-0.984924316406
64461266572,0.0637817382812,-0.104370117188,0.138977050781,-0.982727050781
64461289127,0.0609741210938,-0.128051757812,0.140747070312,-0.979858398438
64461305473,0.060546875,-0.150390625,0.14306640625,-0.976379394531
64461326625,0.0590209960938,-0.170532226562,0.1455078125,-0.972778320312
64461357179,0.0562744140625,-0.188598632812,0.147827148438,-0.96923828125
64461365459,0.052978515625,-0.205200195312,0.149475097656,-0.9658203125
64461386547,0.0493774414062,-0.219970703125,0.151489257812,-0.962463378906
64461409065,0.0463256835938,-0.232849121094,0.154296875,-0.959106445312
64461425450,0.0425415039062,-0.243774414062,0.156433105469,-0.956237792969
64461446471,0.0381469726562,-0.253784179688,0.158020019531,-0.953552246094
64461469196,0.0343017578125,-0.263366699219,0.159362792969,-0.950866699219
64461486948,0.0301513671875,-0.272338867188,0.161376953125,-0.948120117188
64461506545,0.0257568359375,-0.280334472656,0.163513183594,-0.945556640625
64461528999,0.0203247070312,-0.286865234375,0.16552734375,-0.943359375
64461546939,0.0149536132812,-0.292663574219,0.167175292969,-0.94140625
64461567889,0.0120849609375,-0.297485351562,0.16845703125,-0.939697265625
64461589117,0.0111083984375,-0.300964355469,0.169860839844,-0.938354492188
64461606978,0.01025390625,-0.302673339844,0.171325683594,-0.937561035156
64461626577,0.00799560546875,-0.303283691406,0.172546386719,-0.937133789062
64461644426,0.00634765625,-0.3037109375,0.173217773438,-0.936889648438
64461666920,0.0067138671875,-0.303588867188,0.173889160156,-0.936828613281
64461686538,0.00750732421875,-0.302856445312,0.174499511719,-0.936950683594
64461709733,0.00738525390625,-0.302490234375,0.174743652344,-0.93701171875
64461726128,0.00689697265625,-0.302490234375,0.174743652344,-0.93701171875
64461748567,0.00714111328125,-0.302734375,0.174621582031,-0.936950683594
64461769768,0.00775146484375,-0.302978515625,0.174621582031,-0.936889648438
64461786082,0.00775146484375,-0.303588867188,0.174987792969,-0.936584472656
64461808598,0.0067138671875,-0.304260253906,0.17529296875,-0.936340332031
64461829749,0.005859375,-0.304626464844,0.1748046875,-0.936279296875
64461846103,0.00640869140625,-0.304992675781,0.174133300781,-0.936279296875
64461868621,0.00738525390625,-0.305297851562,0.174133300781,-0.936218261719
64461889789,0.00738525390625,-0.305297851562,0.174133300781,-0.936218261719
64461913570,0.0067138671875,-0.305297851562,0.17431640625,-0.936157226562
64461928604,0.007080078125,-0.305297851562,0.174560546875,-0.936096191406
64461949667,0.0081787109375,-0.305114746094,0.174560546875,-0.936157226562
64461973593,0.00946044921875,-0.304077148438,0.17431640625,-0.936584472656
64461988576,0.0107421875,-0.3017578125,0.174011230469,-0.937316894531
64462011123,0.0121459960938,-0.298095703125,0.173156738281,-0.938659667969
64462025465,0.0137939453125,-0.292724609375,0.171752929688,-0.940551757812
64462049079,0.0167236328125,-0.285095214844,0.170227050781,-0.943115234375
64462071118,0.0200805664062,-0.27490234375,0.168823242188,-0.946350097656
64462085452,0.0225219726562,-0.262573242188,0.167602539062,-0.950012207031
64462108346,0.0244140625,-0.249145507812,0.166137695312,-0.953857421875
64462131101,0.026611328125,-0.235290527344,0.164306640625,-0.957580566406
64462145431,0.0300903320312,-0.220092773438,0.162109375,-0.961486816406
64462168575,0.03369140625,-0.20166015625,0.15966796875,-0.9658203125
64462191103,0.0374145507812,-0.181396484375,0.1572265625,-0.970092773438
64462205420,0.0411376953125,-0.159973144531,0.154602050781,-0.97412109375
64462228607,0.04443359375,-0.138061523438,0.151062011719,-0.977844238281
64462251122,0.0502319335938,-0.115966796875,0.146911621094,-0.981079101562
64462272369,0.0557861328125,-0.0912475585938,0.143310546875,-0.98388671875
64462288599,0.059326171875,-0.0637817382812,0.140258789062,-0.986328125
64462311076,0.0646362304688,-0.0357055664062,0.13720703125,-0.98779296875
64462332302,0.0744018554688,-0.0103149414062,0.134338378906,-0.988098144531
64462348612,0.0870361328125,0.01318359375,0.132385253906,-0.9873046875
64462371079,0.0977783203125,0.0361938476562,0.131713867188,-0.985778808594
64462392244,0.1064453125,0.0592041015625,0.131042480469,-0.98388671875
64462408640,0.115356445312,0.0808715820312,0.131042480469,-0.981323242188
64462431129,0.124694824219,0.0994873046875,0.132263183594,-0.978332519531
64462452134,0.134094238281,0.115112304688,0.134399414062,-0.975036621094
64462468563,0.140014648438,0.127990722656,0.136535644531,-0.972290039062
64462491119,0.141479492188,0.141052246094,0.137329101562,-0.97021484375
64462512142,0.141723632812,0.154235839844,0.138000488281,-0.968017578125
64462528575,0.142517089844,0.166137695312,0.140014648438,-0.965637207031
64462551128,0.146240234375,0.175231933594,0.143676757812,-0.962951660156
64462572261,0.153686523438,0.180541992188,0.148071289062,-0.960144042969
64462589262,0.163818359375,0.181091308594,0.152038574219,-0.957763671875
64462611072,0.172485351562,0.177612304688,0.154907226562,-0.956420898438
64462632275,0.176208496094,0.173461914062,0.156555175781,-0.956237792969
64462648627,0.174194335938,0.17236328125,0.156799316406,-0.956726074219
64462671079,0.169311523438,0.174438476562,0.156555175781,-0.957275390625
64462692327,0.165588378906,0.17822265625,0.156433105469,-0.957275390625
64462708562,0.165588378906,0.182067871094,0.156799316406,-0.956481933594
64462731102,0.170043945312,0.184448242188,0.158142089844,-0.955017089844
64462752133,0.177307128906,0.184875488281,0.160461425781,-0.953247070312
64462768581,0.185119628906,0.18359375,0.162719726562,-0.951599121094
64462791124,0.190979003906,0.181945800781,0.164245605469,-0.950500488281
64462812200,0.193481445312,0.181091308594,0.165161132812,-0.950012207031
64462827979,0.193176269531,0.181335449219,0.165893554688,-0.949890136719
64462851097,0.191589355469,0.182250976562,0.166687011719,-0.949890136719
64462872097,0.190734863281,0.182983398438,0.167358398438,-0.949829101562
64462888564,0.191223144531,0.183044433594,0.167846679688,-0.949645996094
64462911099,0.192626953125,0.182495117188,0.168395996094,-0.949340820312
64462932189,0.193908691406,0.181945800781,0.168762207031,-0.949096679688
64462948588,0.194274902344,0.181945800781,0.168884277344,-0.949035644531
64462971075,0.193481445312,0.182373046875,0.168762207031,-0.949157714844
64462993533,0.192138671875,0.182861328125,0.168701171875,-0.949340820312
64463008533,0.191162109375,0.183166503906,0.168823242188,-0.949462890625
64463031077,0.191345214844,0.18310546875,0.169006347656,-0.949401855469
64463053550,0.1923828125,0.182739257812,0.169189453125,-0.94921875
64463068512,0.19384765625,0.182189941406,0.169189453125,-0.949035644531
64463091087,0.195007324219,0.181884765625,0.169250488281,-0.948852539062
64463113573,0.195251464844,0.181884765625,0.169311523438,-0.948791503906
64463128602,0.194885253906,0.182067871094,0.169372558594,-0.948791503906
64463157797,0.194030761719,0.182373046875,0.169494628906,-0.948852539062
64463173591,0.193542480469,0.1826171875,0.169555664062,-0.948913574219
64463187878,0.193603515625,0.1826171875,0.169616699219,-0.948913574219
64463211015,0.194030761719,0.182556152344,0.169738769531,-0.948791503906
64463233585,0.194702148438,0.182434082031,0.169982910156,-0.948669433594
64463247885,0.195251464844,0.182250976562,0.170227050781,-0.948547363281
64463271072,0.195678710938,0.18212890625,0.170349121094,-0.948425292969
64463293581,0.195678710938,0.182189941406,0.170349121094,-0.948425292969
64463307912,0.195678710938,0.182189941406,0.170349121094,-0.948425292969
64463331100,0.195617675781,0.182189941406,0.170349121094,-0.948425292969
64463361034,0.195617675781,0.182250976562,0.17041015625,-0.948425292969
64463367951,0.195861816406,0.182434082031,0.170593261719,-0.948303222656
64463391094,0.196228027344,0.1826171875,0.170837402344,-0.948181152344
64463413511,0.196594238281,0.182739257812,0.171081542969,-0.947998046875
64463436041,0.196838378906,0.182739257812,0.171264648438,-0.947937011719
64463451036,0.197021484375,0.182800292969,0.171447753906,-0.947814941406
64463473573,0.197265625,0.182861328125,0.171752929688,-0.947692871094
64463494633,0.197692871094,0.182922363281,0.171997070312,-0.947570800781
64463511081,0.197998046875,0.182922363281,0.172119140625,-0.947509765625
64463533539,0.198120117188,0.182983398438,0.172241210938,-0.947448730469
64463554565,0.198120117188,0.183044433594,0.172241210938,-0.947387695312
64463571089,0.198120117188,0.183044433594,0.172241210938,-0.947387695312
64463593525,0.198059082031,0.18310546875,0.172302246094,-0.947387695312
64463631107,0.197998046875,0.183227539062,0.172302246094,-0.947387695312
64463653565,0.197998046875,0.183227539062,0.172302246094,-0.947387695312
64463674694,0.197998046875,0.183227539062,0.172302246094,-0.947387695312
64463691076,0.197998046875,0.183227539062,0.172302246094,-0.947387695312
64463713607,0.197998046875,0.183227539062,0.172302246094,-0.947387695312
64463734840,0.197937011719,0.183288574219,0.172302246094,-0.947387695312
64463751035,0.197937011719,0.183288574219,0.172302246094,-0.947387695312
64463773522,0.19775390625,0.183471679688,0.172302246094,-0.947387695312
64463794680,0.197265625,0.183715820312,0.172241210938,-0.947448730469
64463811100,0.196838378906,0.184143066406,0.172241210938,-0.947448730469
64463833555,0.196594238281,0.184509277344,0.172180175781,-0.947448730469
64463854673,0.196533203125,0.1845703125,0.172180175781,-0.947448730469
64463871046,0.196533203125,0.184631347656,0.172180175781,-0.947448730469
64463893573,0.196350097656,0.184814453125,0.172180175781,-0.947448730469
64463914833,0.196105957031,0.184814453125,0.171997070312,-0.947509765625
64463931069,0.195739746094,0.184997558594,0.171752929688,-0.947631835938
64463953596,0.195495605469,0.18505859375,0.171630859375,-0.947692871094
64463976023,0.195190429688,0.18505859375,0.171447753906,-0.94775390625
64463991087,0.194763183594,0.185119628906,0.171203613281,-0.947875976562
64464013568,0.194396972656,0.185180664062,0.171020507812,-0.947998046875
64464036028,0.194396972656,0.185241699219,0.171020507812,-0.947998046875
64464051066,0.194396972656,0.185241699219,0.171020507812,-0.947998046875
64464073581,0.194396972656,0.185302734375,0.171020507812,-0.947998046875
64464096014,0.194396972656,0.185363769531,0.171020507812,-0.947937011719
64464110425,0.194580078125,0.185607910156,0.17138671875,-0.947814941406
64464133555,0.19482421875,0.185791015625,0.171691894531,-0.947692871094
64464156065,0.195007324219,0.185974121094,0.172058105469,-0.947509765625
64464170403,0.1953125,0.18603515625,0.172424316406,-0.947387695312
