64221602169,0.081787109375,0.281677246094,-0.373046875,-0.880249023438
64221617134,0.0819702148438,0.28173828125,-0.373046875,-0.880249023438
64221638459,0.0842895507812,0.278930664062,-0.373046875,-0.880920410156
64221662054,0.0924682617188,0.271911621094,-0.375915527344,-0.881042480469
64221677093,0.095947265625,0.270080566406,-0.376892089844,-0.880798339844
64221698419,0.102111816406,0.268310546875,-0.378356933594,-0.880065917969
64221722578,0.108703613281,0.267578125,-0.379699707031,-0.87890625
64221737715,0.110534667969,0.268859863281,-0.379699707031,-0.878295898438
64221789774,0.105651855469,0.271606445312,-0.3779296875,-0.878784179688
64221790541,0.0977172851562,0.273742675781,-0.375549316406,-0.880065917969
64221791358,0.0934448242188,0.273803710938,-0.374450683594,-0.880981445312
64221813545,0.0941162109375,0.273376464844,-0.374633789062,-0.880981445312
64221829780,0.0899658203125,0.278930664062,-0.373046875,-0.880310058594
64221849040,0.0888671875,0.280212402344,-0.372741699219,-0.880187988281
64221872704,0.0887451171875,0.2802734375,-0.372741699219,-0.880187988281
64221901771,0.0887451171875,0.2802734375,-0.372680664062,-0.880187988281
64221911719,0.0886840820312,0.280334472656,-0.372680664062,-0.880187988281
64221931280,0.0884399414062,0.280639648438,-0.372802734375,-0.880065917969
64221945650,0.094482421875,0.274047851562,-0.375305175781,-0.880432128906
64221968249,0.088623046875,0.275756835938,-0.373474121094,-0.881286621094
64221990779,0.084228515625,0.276062011719,-0.372375488281,-0.882080078125
64222013127,0.0855102539062,0.274658203125,-0.372924804688,-0.882202148438
64222028176,0.0921020507812,0.273071289062,-0.374694824219,-0.881286621094
64222050661,0.0978393554688,0.273193359375,-0.375915527344,-0.880065917969
64222065773,0.0972900390625,0.275268554688,-0.375183105469,-0.879821777344
64222088314,0.0902099609375,0.277648925781,-0.373046875,-0.880737304688
64222110726,0.083984375,0.2783203125,-0.371337890625,-0.8818359375
64222125849,0.0816650390625,0.280883789062,-0.370239257812,-0.881713867188
64222148272,0.0811157226562,0.281433105469,-0.369873046875,-0.881713867188
64222170760,0.08203125,0.281799316406,-0.369689941406,-0.881591796875
64222185753,0.0826416015625,0.281982421875,-0.369384765625,-0.881591796875
64222208248,0.0826416015625,0.281982421875,-0.369384765625,-0.881591796875
64222232034,0.0824584960938,0.2822265625,-0.369201660156,-0.881652832031
64222245610,0.0821533203125,0.282470703125,-0.368774414062,-0.881774902344
64222268243,0.0821533203125,0.282470703125,-0.368713378906,-0.881774902344
64222290699,0.0824584960938,0.282775878906,-0.368530273438,-0.881774902344
64222305697,0.0829467773438,0.283081054688,-0.368103027344,-0.881774902344
64222328185,0.0833129882812,0.283508300781,-0.36767578125,-0.881774902344
64222353645,0.0834350585938,0.283996582031,-0.367309570312,-0.881774902344
64222365660,0.0835571289062,0.284301757812,-0.366943359375,-0.8818359375
64222388190,0.0836791992188,0.284484863281,-0.36669921875,-0.8818359375
64222412124,0.0838012695312,0.284851074219,-0.366577148438,-0.881774902344
64222425666,0.0838012695312,0.284912109375,-0.366577148438,-0.881774902344
64222448135,0.0838012695312,0.284912109375,-0.366577148438,-0.881774902344
64222466047,0.0836181640625,0.284790039062,-0.36669921875,-0.881774902344
64222485586,0.0836181640625,0.284851074219,-0.36669921875,-0.881774902344
64222508197,0.0836181640625,0.284912109375,-0.366638183594,-0.881713867188
64222526025,0.0836181640625,0.284912109375,-0.366638183594,-0.881713867188
64222547059,0.0834350585938,0.284973144531,-0.366455078125,-0.881774902344
64222568177,0.0836181640625,0.28515625,-0.366333007812,-0.881774902344
64222586127,0.0836791992188,0.285461425781,-0.366027832031,-0.8818359375
64222607051,0.0838623046875,0.285705566406,-0.36572265625,-0.8818359375
64222628154,0.0839233398438,0.285705566406,-0.365478515625,-0.881896972656
64222646030,0.0839233398438,0.28564453125,-0.365295410156,-0.882019042969
64222667026,0.0838623046875,0.285705566406,-0.365295410156,-0.882019042969
64222688221,0.08349609375,0.28564453125,-0.365234375,-0.882080078125
64222706052,0.083251953125,0.285522460938,-0.365417480469,-0.882080078125
64222727093,0.0828247070312,0.285461425781,-0.365478515625,-0.882141113281
64222748245,0.0828857421875,0.285400390625,-0.365478515625,-0.882141113281
64222766032,0.0830688476562,0.285339355469,-0.365417480469,-0.882141113281
64222787058,0.0834350585938,0.28564453125,-0.365356445312,-0.882019042969
64222808231,0.0838623046875,0.286071777344,-0.365478515625,-0.8818359375
64222826056,0.084228515625,0.286010742188,-0.365417480469,-0.8818359375
64222847082,0.084228515625,0.285888671875,-0.365173339844,-0.881958007812
64222868165,0.0843505859375,0.286193847656,-0.364624023438,-0.882080078125
64222884557,0.0852661132812,0.286987304688,-0.36376953125,-0.882080078125
64222915227,0.0863037109375,0.287475585938,-0.36279296875,-0.882263183594
64222937735,0.086669921875,0.287475585938,-0.362121582031,-0.882446289062
64222944574,0.0872802734375,0.286865234375,-0.362243652344,-0.882568359375
64222967753,0.0890502929688,0.285400390625,-0.362670898438,-0.882690429688
64222990205,0.0902709960938,0.282958984375,-0.363647460938,-0.882934570312
64223011325,0.0889282226562,0.278442382812,-0.365783691406,-0.883605957031
64223027745,0.0869750976562,0.272583007812,-0.368408203125,-0.884582519531
64223050200,0.085693359375,0.26513671875,-0.371276855469,-0.8857421875
64223071276,0.0853881835938,0.256896972656,-0.375915527344,-0.886291503906
64223087762,0.084228515625,0.246948242188,-0.3818359375,-0.886657714844
64223110231,0.0830078125,0.235961914062,-0.387329101562,-0.887390136719
64223131377,0.0830078125,0.223449707031,-0.390319824219,-0.889343261719
64223147686,0.0899658203125,0.2099609375,-0.390930175781,-0.891662597656
64223170225,0.103088378906,0.194885253906,-0.393005371094,-0.892761230469
64223192698,0.120056152344,0.178405761719,-0.397216796875,-0.892211914062
64223215217,0.135620117188,0.159057617188,-0.402526855469,-0.891235351562
64223230204,0.148254394531,0.13671875,-0.4072265625,-0.890808105469
64223251348,0.15966796875,0.112426757812,-0.410339355469,-0.890808105469
64223268531,0.16748046875,0.0855102539062,-0.413879394531,-0.890747070312
64223290191,0.176696777344,0.0584106445312,-0.417602539062,-0.889404296875
64223329074,0.188781738281,0.0333251953125,-0.420104980469,-0.887023925781
64223334201,0.199829101562,0.00860595703125,-0.422546386719,-0.884033203125
64223350201,0.214416503906,-0.013671875,-0.423095703125,-0.880310058594
64223372729,0.228393554688,-0.03466796875,-0.422485351562,-0.87646484375
64223387115,0.239990234375,-0.0536499023438,-0.422241210938,-0.872497558594
64223416343,0.247863769531,-0.0712280273438,-0.421752929688,-0.869323730469
64223432693,0.255493164062,-0.0853881835938,-0.419982910156,-0.86669921875
64223447054,0.262512207031,-0.0956420898438,-0.417785644531,-0.864562988281
64223470248,0.268188476562,-0.101623535156,-0.416625976562,-0.862670898438
64223492722,0.272766113281,-0.103393554688,-0.415405273438,-0.861633300781
64223507055,0.273864746094,-0.103149414062,-0.414245605469,-0.861877441406
64223530206,0.272155761719,-0.101318359375,-0.413208007812,-0.863159179688
64223552702,0.268737792969,-0.0986938476562,-0.411865234375,-0.865173339844
64223567119,0.264831542969,-0.0960693359375,-0.410827636719,-0.867126464844
64223590234,0.261596679688,-0.0936279296875,-0.410766601562,-0.868408203125
64223618884,0.259582519531,-0.0912475585938,-0.411254882812,-0.869018554688
64223633757,0.258911132812,-0.0889892578125,-0.411987304688,-0.869140625
64223650249,0.25830078125,-0.087646484375,-0.412475585938,-0.869201660156
64223672802,0.256469726562,-0.0869140625,-0.412536621094,-0.869812011719
64223687056,0.25439453125,-0.0868530273438,-0.412170410156,-0.87060546875
64223710235,0.252380371094,-0.0870971679688,-0.411804199219,-0.871337890625
64223732730,0.250854492188,-0.0867919921875,-0.411560058594,-0.871887207031
64223747043,0.249450683594,-0.085693359375,-0.411682128906,-0.872375488281
64223770157,0.248291015625,-0.083984375,-0.411865234375,-0.872741699219
64223798935,0.247436523438,-0.08154296875,-0.411987304688,-0.873168945312
64223807096,0.246154785156,-0.0784912109375,-0.412109375,-0.873779296875
64223830242,0.244567871094,-0.0753784179688,-0.412231445312,-0.874450683594
64223853183,0.243347167969,-0.0724487304688,-0.412109375,-0.875061035156
64223874192,0.242248535156,-0.0701904296875,-0.411926269531,-0.875671386719
64223897821,0.241943359375,-0.0691528320312,-0.412109375,-0.875732421875
64223912727,0.242858886719,-0.0685424804688,-0.411865234375,-0.875610351562
64223935206,0.243103027344,-0.0691528320312,-0.41162109375,-0.875671386719
64223950031,0.243408203125,-0.0702514648438,-0.411437988281,-0.875549316406
64223972794,0.242736816406,-0.0712890625,-0.411376953125,-0.875732421875
64223994402,0.242004394531,-0.0718383789062,-0.411682128906,-0.875671386719
64224010180,0.242370605469,-0.0711669921875,-0.411682128906,-0.875610351562
64224032691,0.24267578125,-0.0704345703125,-0.411560058594,-0.875671386719
64224053766,0.242370605469,-0.0698852539062,-0.4111328125,-0.8759765625
64224077661,0.241577148438,-0.0692138671875,-0.411010742188,-0.876342773438
64224100342,0.241271972656,-0.068603515625,-0.410766601562,-0.876586914062
64224113757,0.241516113281,-0.0677490234375,-0.410217285156,-0.876831054688
64224130191,0.241516113281,-0.0669555664062,-0.409484863281,-0.877258300781
64224160158,0.24072265625,-0.066650390625,-0.408752441406,-0.877868652344
64224173895,0.239440917969,-0.0665283203125,-0.408142089844,-0.878479003906
64224190199,0.238525390625,-0.066650390625,-0.4072265625,-0.879150390625
64224212722,0.238098144531,-0.0665283203125,-0.406555175781,-0.879577636719
64224233736,0.238037109375,-0.066162109375,-0.405944824219,-0.8798828125
64224250165,0.237609863281,-0.0653076171875,-0.4052734375,-0.880432128906
64224272760,0.236633300781,-0.0641479492188,-0.404602050781,-0.881042480469
64224301313,0.2353515625,-0.0631713867188,-0.404052734375,-0.881713867188
64224310232,0.234375,-0.0621337890625,-0.403564453125,-0.882263183594
64224332725,0.234008789062,-0.0612182617188,-0.403259277344,-0.882568359375
64224353901,0.233459472656,-0.0602416992188,-0.403076171875,-0.882873535156
64224377670,0.232421875,-0.0592041015625,-0.403137207031,-0.883178710938
64224393352,0.2314453125,-0.0579833984375,-0.4033203125,-0.883422851562
64224422683,0.230529785156,-0.0567016601562,-0.403259277344,-0.8837890625
64224430231,0.229248046875,-0.05517578125,-0.403198242188,-0.884216308594
64224452703,0.227294921875,-0.0534057617188,-0.403198242188,-0.884887695312
64224475222,0.225708007812,-0.0513305664062,-0.402893066406,-0.885498046875
64224503896,0.224060058594,-0.048828125,-0.402099609375,-0.886474609375
64224512673,0.222473144531,-0.0455322265625,-0.40087890625,-0.887573242188
64224535210,0.218872070312,-0.04296875,-0.399780273438,-0.889099121094
64224549540,0.215087890625,-0.0399169921875,-0.398986816406,-0.890502929688
64224572692,0.212646484375,-0.0361328125,-0.397827148438,-0.891784667969
64224595188,0.211975097656,-0.0324096679688,-0.397216796875,-0.892333984375
64224616377,0.212707519531,-0.0292358398438,-0.397033691406,-0.892333984375
64224632709,0.213500976562,-0.0270385742188,-0.396667480469,-0.892395019531
64224655195,0.213684082031,-0.0255126953125,-0.395812988281,-0.892822265625
64224676216,0.212524414062,-0.0248413085938,-0.39501953125,-0.893432617188
