64451704403,0.157653808594,0.186157226562,0.135192871094,-0.960327148438
64451719507,0.157592773438,0.186767578125,0.135375976562,-0.960205078125
64451743145,0.156494140625,0.191162109375,0.135681152344,-0.95947265625
64451772328,0.153564453125,0.201416015625,0.1376953125,-0.957580566406
64451779313,0.150085449219,0.207214355469,0.139282226562,-0.956665039062
64451801884,0.146362304688,0.211242675781,0.140625,-0.956176757812
64451825510,0.144165039062,0.211791992188,0.140930175781,-0.956298828125
64451846865,0.145751953125,0.208557128906,0.140014648438,-0.956909179688
64451870153,0.149963378906,0.203308105469,0.13818359375,-0.957641601562
64451901215,0.153625488281,0.200073242188,0.13671875,-0.957946777344
64451903426,0.153564453125,0.201232910156,0.136779785156,-0.957702636719
64451922638,0.150207519531,0.205688476562,0.138305664062,-0.957092285156
64451937487,0.15185546875,0.198974609375,0.137939453125,-0.958312988281
64451961201,0.153381347656,0.197631835938,0.137878417969,-0.958374023438
64451982564,0.154052734375,0.197265625,0.138122558594,-0.958251953125
64452026650,0.154418945312,0.197143554688,0.138305664062,-0.958251953125
64452036767,0.154663085938,0.197082519531,0.138488769531,-0.958190917969
64452044476,0.154541015625,0.1953125,0.138977050781,-0.95849609375
64452058247,0.154113769531,0.196960449219,0.139282226562,-0.958190917969
64452080764,0.151550292969,0.201049804688,0.140502929688,-0.95751953125
64452111231,0.148193359375,0.205749511719,0.142211914062,-0.956848144531
64452125610,0.14453125,0.209228515625,0.143737792969,-0.956420898438
64452148829,0.143432617188,0.208862304688,0.144226074219,-0.956604003906
64452171240,0.146057128906,0.204528808594,0.143310546875,-0.957275390625
64452185563,0.150573730469,0.199401855469,0.141784667969,-0.957885742188
64452208754,0.153747558594,0.197143554688,0.140930175781,-0.957946777344
64452231257,0.152893066406,0.199523925781,0.141662597656,-0.95751953125
64452245607,0.15185546875,0.197021484375,0.141540527344,-0.958190917969
64452259143,0.151550292969,0.197265625,0.141296386719,-0.958190917969
64452281644,0.151000976562,0.196594238281,0.141296386719,-0.958435058594
64452296642,0.150146484375,0.195861816406,0.141357421875,-0.958740234375
64452319125,0.1494140625,0.194946289062,0.141296386719,-0.959045410156
64452341785,0.148742675781,0.194091796875,0.141174316406,-0.959289550781
64452356777,0.14892578125,0.192932128906,0.141479492188,-0.95947265625
64452379291,0.148193359375,0.191284179688,0.1416015625,-0.959899902344
64452401673,0.145446777344,0.188903808594,0.141174316406,-0.960876464844
64452416674,0.141418457031,0.185852050781,0.140075683594,-0.962219238281
64452439220,0.137756347656,0.181945800781,0.138366699219,-0.963745117188
64452461724,0.135192871094,0.176391601562,0.13671875,-0.965393066406
64452476755,0.134338378906,0.168212890625,0.135375976562,-0.967163085938
64452499226,0.133483886719,0.156982421875,0.133361816406,-0.969421386719
64452521698,0.13134765625,0.142578125,0.130554199219,-0.972351074219
64452538102,0.127746582031,0.125061035156,0.127319335938,-0.975646972656
64452559164,0.122741699219,0.104553222656,0.123291015625,-0.979187011719
64452581683,0.116821289062,0.0805053710938,0.118347167969,-0.982788085938
64452604167,0.109375,0.053466796875,0.112487792969,-0.986206054688
64452628002,0.100036621094,0.024658203125,0.106506347656,-0.989013671875
64452641765,0.0903930664062,-0.00531005859375,0.101684570312,-0.99072265625
64452656655,0.0819702148438,-0.03662109375,0.0980224609375,-0.991149902344
64452680605,0.0734252929688,-0.06884765625,0.0950317382812,-0.990417480469
64452702100,0.0646362304688,-0.10205078125,0.092529296875,-0.988403320312
64452716605,0.0560302734375,-0.135620117188,0.0907592773438,-0.985046386719
64452739303,0.048095703125,-0.168762207031,0.089111328125,-0.98046875
64452761615,0.0419311523438,-0.201049804688,0.0878295898438,-0.974792480469
64452776643,0.037109375,-0.232299804688,0.0878295898438,-0.968017578125
64452799113,0.0324096679688,-0.262512207031,0.0880126953125,-0.960388183594
64452821655,0.0283203125,-0.290344238281,0.0880737304688,-0.952453613281
64452836618,0.0250244140625,-0.315368652344,0.0884399414062,-0.944580078125
64452868083,0.0231323242188,-0.338256835938,0.0887451171875,-0.936645507812
64452881747,0.02197265625,-0.358459472656,0.0888671875,-0.929077148438
64452896705,0.0213623046875,-0.375854492188,0.0885620117188,-0.922241210938
64452919244,0.020751953125,-0.390319824219,0.0874633789062,-0.916320800781
64452941789,0.0203247070312,-0.401062011719,0.0868530273438,-0.911743164062
64452956790,0.01904296875,-0.408447265625,0.087158203125,-0.908447265625
64452979317,0.0176391601562,-0.41357421875,0.087890625,-0.906066894531
64453001720,0.0169677734375,-0.416809082031,0.0891723632812,-0.904479980469
64453018149,0.0164794921875,-0.418518066406,0.090576171875,-0.903564453125
64453039281,0.0149536132812,-0.419372558594,0.0924072265625,-0.903015136719
64453061739,0.0136108398438,-0.419799804688,0.0947875976562,-0.902587890625
64453078122,0.0136108398438,-0.419616699219,0.0973510742188,-0.902404785156
64453099138,0.0142822265625,-0.418884277344,0.0995483398438,-0.902465820312
64453117056,0.014404296875,-0.41845703125,0.100952148438,-0.902526855469
64453138078,0.0140380859375,-0.418334960938,0.1015625,-0.902526855469
64453162333,0.0133666992188,-0.418029785156,0.101867675781,-0.902648925781
64453177026,0.0133056640625,-0.417907714844,0.102478027344,-0.902648925781
64453198076,0.0139770507812,-0.417846679688,0.102844238281,-0.902587890625
64453219113,0.0140380859375,-0.41796875,0.102661132812,-0.902587890625
64453237046,0.013427734375,-0.41796875,0.102294921875,-0.902648925781
64453258147,0.0130004882812,-0.418334960938,0.101928710938,-0.902526855469
64453279282,0.0131225585938,-0.418518066406,0.101806640625,-0.902404785156
64453297070,0.01318359375,-0.418395996094,0.101684570312,-0.902465820312
64453318081,0.0130004882812,-0.418151855469,0.101745605469,-0.902587890625
64453339159,0.01220703125,-0.41796875,0.101928710938,-0.902648925781
64453369176,0.0112915039062,-0.41796875,0.102172851562,-0.902648925781
64453379510,0.0108032226562,-0.417724609375,0.102478027344,-0.902770996094
64453399177,0.0109252929688,-0.417541503906,0.102722167969,-0.90283203125
64453417057,0.0110473632812,-0.417419433594,0.102966308594,-0.90283203125
64453439529,0.0108642578125,-0.417114257812,0.102905273438,-0.902954101562
64453459094,0.0101318359375,-0.416564941406,0.102661132812,-0.903259277344
64453476991,0.0093994140625,-0.415954589844,0.1025390625,-0.903564453125
64453499558,0.00921630859375,-0.415405273438,0.102600097656,-0.90380859375
64453519127,0.009033203125,-0.414978027344,0.102478027344,-0.904052734375
64453537041,0.00897216796875,-0.414367675781,0.102111816406,-0.904357910156
64453559557,0.00885009765625,-0.412780761719,0.101867675781,-0.905090332031
64453579151,0.00823974609375,-0.410034179688,0.102355957031,-0.906311035156
64453597024,0.00775146484375,-0.405883789062,0.103576660156,-0.908020019531
64453619518,0.0072021484375,-0.400390625,0.105224609375,-0.910278320312
64453639160,0.0062255859375,-0.393737792969,0.106628417969,-0.913024902344
64453664535,0.00531005859375,-0.386596679688,0.108093261719,-0.915893554688
64453679526,0.00555419921875,-0.379699707031,0.109619140625,-0.918579101562
64453699247,0.00665283203125,-0.373291015625,0.110900878906,-0.921081542969
64453723135,0.0074462890625,-0.366882324219,0.111389160156,-0.923583984375
64453739631,0.008056640625,-0.359436035156,0.11181640625,-0.926452636719
64453759223,0.009033203125,-0.349304199219,0.112243652344,-0.930236816406
64453777030,0.010498046875,-0.3369140625,0.113220214844,-0.934692382812
64453799495,0.012939453125,-0.322814941406,0.114562988281,-0.939453125
64453819836,0.0166015625,-0.304931640625,0.115966796875,-0.945190429688
64453836343,0.02001953125,-0.282592773438,0.116943359375,-0.951904296875
64453858688,0.0235595703125,-0.255920410156,0.1171875,-0.959289550781
64453881296,0.0270385742188,-0.225708007812,0.117248535156,-0.966735839844
64453896258,0.0321655273438,-0.194213867188,0.117065429688,-0.973449707031
64453918802,0.0387573242188,-0.161987304688,0.116455078125,-0.979187011719
64453939853,0.0463256835938,-0.128784179688,0.115417480469,-0.98388671875
64453956263,0.054443359375,-0.0949096679688,0.114440917969,-0.987426757812
64453978767,0.0625610351562,-0.0618286132812,0.113891601562,-0.989624023438
64453999749,0.07080078125,-0.0301513671875,0.115051269531,-0.990417480469
64454016232,0.0800170898438,-0.0003662109375,0.117919921875,-0.989807128906
64454038695,0.0899047851562,0.0272216796875,0.120239257812,-0.988342285156
64454059763,0.0997924804688,0.0530395507812,0.120849609375,-0.986267089844
64454076209,0.109436035156,0.0772705078125,0.121765136719,-0.983520507812
64454098749,0.118103027344,0.099365234375,0.123840332031,-0.980224609375
64454119827,0.125549316406,0.118774414062,0.126098632812,-0.976867675781
64454136293,0.131103515625,0.135986328125,0.127746582031,-0.973693847656
64454158782,0.134826660156,0.152099609375,0.128173828125,-0.970703125
64454179809,0.135498046875,0.165710449219,0.129577636719,-0.968200683594
64454195576,0.138610839844,0.174499511719,0.132995605469,-0.965759277344
64454218756,0.14599609375,0.177062988281,0.13525390625,-0.9638671875
64454239871,0.152160644531,0.174560546875,0.135620117188,-0.963317871094
64454255564,0.154357910156,0.170471191406,0.13525390625,-0.963745117188
64454279156,0.151916503906,0.169494628906,0.134826660156,-0.964416503906
64454301216,0.145812988281,0.171997070312,0.133972167969,-0.965026855469
64454322424,0.140625,0.175903320312,0.1328125,-0.965209960938
64454339375,0.139953613281,0.179443359375,0.132568359375,-0.964721679688
64454361255,0.144226074219,0.181335449219,0.133666992188,-0.963562011719
64454375591,0.151550292969,0.181213378906,0.134521484375,-0.962341308594
64454398734,0.158630371094,0.179870605469,0.134521484375,-0.961486816406
64454421275,0.16259765625,0.178283691406,0.13427734375,-0.961120605469
64454435602,0.162841796875,0.177795410156,0.133666992188,-0.961242675781
64454458750,0.159912109375,0.178588867188,0.132751464844,-0.961730957031
64454481170,0.15625,0.179931640625,0.13232421875,-0.962158203125
64454502234,0.154113769531,0.180786132812,0.132385253906,-0.962341308594
64454518767,0.153869628906,0.180786132812,0.132507324219,-0.962341308594
64454541228,0.155029296875,0.18017578125,0.13232421875,-0.962280273438
64454562353,0.156311035156,0.179504394531,0.131896972656,-0.962280273438
64454578695,0.156555175781,0.179382324219,0.131408691406,-0.962341308594
