64301445691,0.130310058594,0.27099609375,-0.180541992188,-0.936462402344
64301466980,0.1298828125,0.270263671875,-0.180847167969,-0.936706542969
64301490640,0.126831054688,0.273071289062,-0.179992675781,-0.936462402344
64301505768,0.127502441406,0.272583007812,-0.180358886719,-0.936462402344
64301527048,0.127014160156,0.274108886719,-0.179870605469,-0.936157226562
64301550777,0.122619628906,0.27685546875,-0.178161621094,-0.936279296875
64301572523,0.116516113281,0.27880859375,-0.176208496094,-0.936828613281
64301587163,0.11328125,0.278259277344,-0.175598144531,-0.9375
64301632103,0.115783691406,0.275329589844,-0.176940917969,-0.937805175781
64301641198,0.122009277344,0.272216796875,-0.179321289062,-0.9375
64301659355,0.127136230469,0.271179199219,-0.180969238281,-0.936767578125
64301670141,0.12939453125,0.26806640625,-0.182067871094,-0.937194824219
64301686020,0.130004882812,0.267944335938,-0.18212890625,-0.937133789062
64301717131,0.130004882812,0.267944335938,-0.18212890625,-0.937133789062
64301769582,0.129943847656,0.267944335938,-0.18212890625,-0.937133789062
64301770295,0.1298828125,0.268005371094,-0.18212890625,-0.937133789062
64301771109,0.130126953125,0.268188476562,-0.181762695312,-0.937072753906
64301790163,0.129272460938,0.269836425781,-0.181091308594,-0.936889648438
64301805777,0.135986328125,0.263427734375,-0.183837890625,-0.937194824219
64301826987,0.142700195312,0.260070800781,-0.185913085938,-0.936767578125
64301849412,0.148254394531,0.258666992188,-0.187316894531,-0.935974121094
64301865758,0.148376464844,0.259582519531,-0.18701171875,-0.935791015625
64301886898,0.142639160156,0.262084960938,-0.185180664062,-0.936340332031
64301909438,0.136413574219,0.264099121094,-0.182739257812,-0.937194824219
64301927217,0.1357421875,0.263732910156,-0.181640625,-0.937561035156
64301949691,0.144165039062,0.261108398438,-0.181579589844,-0.937072753906
64301969300,0.152282714844,0.257995605469,-0.182495117188,-0.936462402344
64301985708,0.148254394531,0.257019042969,-0.183288574219,-0.937255859375
64302006780,0.139343261719,0.254089355469,-0.187744140625,-0.938537597656
64302029317,0.127014160156,0.249145507812,-0.194763183594,-0.940185546875
64302045763,0.117126464844,0.240844726562,-0.201354980469,-0.942199707031
64302066833,0.115539550781,0.229187011719,-0.206909179688,-0.944091796875
64302096763,0.123840332031,0.214904785156,-0.213317871094,-0.945007324219
64302107192,0.135864257812,0.197570800781,-0.221313476562,-0.945251464844
64302134320,0.144104003906,0.176818847656,-0.230163574219,-0.946044921875
64302149302,0.145874023438,0.152709960938,-0.239501953125,-0.947692871094
64302167185,0.143310546875,0.124877929688,-0.248352050781,-0.949890136719
64302186805,0.141418457031,0.0939331054688,-0.255615234375,-0.951782226562
64302209320,0.146362304688,0.0619506835938,-0.261596679688,-0.952026367188
64302227218,0.157348632812,0.02978515625,-0.26708984375,-0.950317382812
64302246802,0.172302246094,-0.00177001953125,-0.271911621094,-0.94677734375
64302276834,0.188049316406,-0.0333862304688,-0.275512695312,-0.942138671875
64302287191,0.202331542969,-0.06494140625,-0.277770996094,-0.936889648438
64302306833,0.213012695312,-0.095947265625,-0.278930664062,-0.931518554688
64302329335,0.220764160156,-0.124755859375,-0.278869628906,-0.92626953125
64302347203,0.22509765625,-0.150756835938,-0.277404785156,-0.921813964844
64302366901,0.228637695312,-0.173400878906,-0.274230957031,-0.917907714844
64302389405,0.232727050781,-0.191650390625,-0.270690917969,-0.914245605469
64302407216,0.236877441406,-0.20654296875,-0.268188476562,-0.910705566406
64302426900,0.240539550781,-0.217468261719,-0.266357421875,-0.90771484375
64302449428,0.243225097656,-0.224609375,-0.264221191406,-0.905883789062
64302467234,0.244567871094,-0.228759765625,-0.262084960938,-0.905151367188
64302489662,0.243530273438,-0.231323242188,-0.260009765625,-0.905334472656
64302509248,0.241516113281,-0.2333984375,-0.257385253906,-0.906127929688
64302527136,0.239196777344,-0.234375,-0.255126953125,-0.907104492188
64302546829,0.236511230469,-0.234619140625,-0.254211425781,-0.908020019531
64302576874,0.235107421875,-0.234008789062,-0.25341796875,-0.908752441406
64302587260,0.233947753906,-0.233276367188,-0.252868652344,-0.909362792969
64302611695,0.232971191406,-0.232788085938,-0.252075195312,-0.909973144531
64302630738,0.231872558594,-0.232604980469,-0.251159667969,-0.910583496094
64302654719,0.230285644531,-0.232604980469,-0.250610351562,-0.9111328125
64302668214,0.229614257812,-0.232238769531,-0.250366210938,-0.911437988281
64302684712,0.228942871094,-0.232299804688,-0.250244140625,-0.91162109375
64302707184,0.228393554688,-0.232666015625,-0.250610351562,-0.911560058594
64302728167,0.227478027344,-0.232482910156,-0.251159667969,-0.911682128906
64302757543,0.226928710938,-0.231689453125,-0.251586914062,-0.911926269531
64302767137,0.226684570312,-0.230590820312,-0.251403808594,-0.912292480469
64302788946,0.225891113281,-0.229858398438,-0.251159667969,-0.912719726562
64302811393,0.225524902344,-0.229431152344,-0.250915527344,-0.913024902344
64302825686,0.224975585938,-0.229248046875,-0.250610351562,-0.913269042969
64302848920,0.224975585938,-0.228881835938,-0.250305175781,-0.913452148438
64302871509,0.22509765625,-0.228942871094,-0.249938964844,-0.913513183594
64302885750,0.225036621094,-0.229125976562,-0.24951171875,-0.913635253906
64302908906,0.224304199219,-0.229187011719,-0.249267578125,-0.913818359375
64302931951,0.223266601562,-0.229370117188,-0.249145507812,-0.9140625
64302945806,0.222839355469,-0.229614257812,-0.249267578125,-0.9140625
64302968959,0.222900390625,-0.229919433594,-0.249389648438,-0.913940429688
64302998893,0.223083496094,-0.230102539062,-0.249267578125,-0.913940429688
64303006795,0.222900390625,-0.230346679688,-0.2490234375,-0.913940429688
64303028870,0.222290039062,-0.23046875,-0.2490234375,-0.9140625
64303051362,0.2216796875,-0.230346679688,-0.249206542969,-0.914184570312
64303073918,0.221618652344,-0.230163574219,-0.249389648438,-0.914184570312
64303088953,0.221862792969,-0.230041503906,-0.249328613281,-0.914184570312
64303111372,0.221923828125,-0.22998046875,-0.249084472656,-0.914245605469
64303132652,0.221618652344,-0.230224609375,-0.248718261719,-0.914367675781
64303148939,0.221130371094,-0.230407714844,-0.248229980469,-0.914611816406
64303171829,0.220825195312,-0.230346679688,-0.247863769531,-0.914733886719
64303199922,0.220825195312,-0.230163574219,-0.247680664062,-0.914855957031
64303208924,0.220947265625,-0.229919433594,-0.24755859375,-0.914916992188
64303238950,0.220764160156,-0.229370117188,-0.247314453125,-0.915222167969
64303253930,0.220031738281,-0.228942871094,-0.2470703125,-0.91552734375
64303276358,0.219421386719,-0.228637695312,-0.247009277344,-0.915771484375
64303298933,0.219421386719,-0.228637695312,-0.247009277344,-0.915771484375
64303313903,0.219421386719,-0.228393554688,-0.247009277344,-0.915832519531
64303335055,0.219360351562,-0.228393554688,-0.247009277344,-0.915832519531
64303351350,0.219360351562,-0.228332519531,-0.247009277344,-0.915832519531
64303372575,0.219299316406,-0.228332519531,-0.2470703125,-0.915832519531
64303388983,0.218994140625,-0.228271484375,-0.247314453125,-0.915893554688
64303411399,0.218872070312,-0.228149414062,-0.247497558594,-0.915893554688
64303432577,0.21875,-0.228149414062,-0.247497558594,-0.915893554688
64303448923,0.21875,-0.228149414062,-0.247497558594,-0.915954589844
64303471366,0.218200683594,-0.22802734375,-0.24755859375,-0.916076660156
64303493920,0.217651367188,-0.227783203125,-0.247497558594,-0.916259765625
64303508931,0.217163085938,-0.227355957031,-0.247375488281,-0.91650390625
64303538896,0.216918945312,-0.226684570312,-0.247436523438,-0.916748046875
64303553878,0.216979980469,-0.225708007812,-0.24755859375,-0.916931152344
64303568924,0.216857910156,-0.224548339844,-0.24755859375,-0.917236328125
64303598987,0.216430664062,-0.223449707031,-0.247436523438,-0.917663574219
64303613948,0.216064453125,-0.222473144531,-0.247375488281,-0.91796875
64303628905,0.215454101562,-0.221130371094,-0.247436523438,-0.91845703125
64303651363,0.215270996094,-0.219604492188,-0.247619628906,-0.918823242188
64303673917,0.214965820312,-0.217895507812,-0.247741699219,-0.919250488281
64303688211,0.214660644531,-0.216125488281,-0.247863769531,-0.919677734375
64303718924,0.214233398438,-0.214416503906,-0.248168945312,-0.920104980469
64303741417,0.213500976562,-0.212524414062,-0.248657226562,-0.920593261719
64303748246,0.212646484375,-0.210144042969,-0.249206542969,-0.921203613281
64303771388,0.211242675781,-0.207092285156,-0.249755859375,-0.922058105469
64303793931,0.208923339844,-0.202392578125,-0.249938964844,-0.923583984375
64303815050,0.205932617188,-0.194885253906,-0.25,-0.925842285156
64303831375,0.202209472656,-0.184143066406,-0.250427246094,-0.9287109375
64303853977,0.197937011719,-0.17236328125,-0.251037597656,-0.931762695312
64303876380,0.195251464844,-0.159790039062,-0.251647949219,-0.934387207031
64303891382,0.192504882812,-0.147583007812,-0.252380371094,-0.936767578125
64303913913,0.189575195312,-0.1357421875,-0.253295898438,-0.938903808594
64303935061,0.184814453125,-0.12353515625,-0.25439453125,-0.941284179688
64303951383,0.178283691406,-0.1103515625,-0.255798339844,-0.943725585938
64303973956,0.170471191406,-0.09619140625,-0.257141113281,-0.946411132812
64303996391,0.162048339844,-0.0806884765625,-0.258117675781,-0.949035644531
64304011345,0.154174804688,-0.0642700195312,-0.259582519531,-0.951171875
64304033902,0.148864746094,-0.0475463867188,-0.261291503906,-0.952575683594
64304054984,0.144226074219,-0.0304565429688,-0.262634277344,-0.95361328125
64304071382,0.14013671875,-0.0128173828125,-0.263244628906,-0.954467773438
64304093913,0.136108398438,0.00640869140625,-0.263549804688,-0.955017089844
64304115042,0.129760742188,0.0265502929688,-0.263732910156,-0.955505371094
64304131399,0.12353515625,0.0460815429688,-0.264587402344,-0.955322265625
64304154001,0.12158203125,0.0654907226562,-0.264953613281,-0.954345703125
64304175022,0.12255859375,0.0848999023438,-0.264282226562,-0.952880859375
64304191306,0.12451171875,0.103942871094,-0.262634277344,-0.951232910156
64304214606,0.122924804688,0.121948242188,-0.260681152344,-0.949768066406
64304235073,0.116577148438,0.138854980469,-0.25927734375,-0.948669433594
64304251377,0.109130859375,0.154602050781,-0.257934570312,-0.947448730469
64304273946,0.104858398438,0.167236328125,-0.255493164062,-0.946472167969
64304294918,0.10595703125,0.178588867188,-0.2509765625,-0.945495605469
64304318948,0.105346679688,0.187866210938,-0.248046875,-0.944519042969
64304333923,0.0997924804688,0.195617675781,-0.248718261719,-0.943420410156
64304355093,0.0919189453125,0.203186035156,-0.248168945312,-0.942749023438
64304370705,0.0882568359375,0.210510253906,-0.244873046875,-0.942321777344
64304393943,0.087890625,0.217102050781,-0.241271972656,-0.941772460938
64304415047,0.0885009765625,0.224182128906,-0.239135742188,-0.940612792969
64304430701,0.0885009765625,0.232421875,-0.237548828125,-0.939025878906
64304453968,0.0888061523438,0.240234375,-0.235595703125,-0.9375
64304476382,0.0921020507812,0.243957519531,-0.234191894531,-0.936584472656
64304490707,0.0975341796875,0.2431640625,-0.233032226562,-0.9365234375
64304513887,0.101806640625,0.24169921875,-0.232299804688,-0.936645507812
64304536374,0.0995483398438,0.24072265625,-0.231628417969,-0.937316894531
64304557542,0.0941772460938,0.240905761719,-0.231323242188,-0.937927246094
64304573931,0.090576171875,0.242980957031,-0.230102539062,-0.93798828125
64304596351,0.0911865234375,0.246032714844,-0.227661132812,-0.937744140625
64304610799,0.0958862304688,0.249145507812,-0.225036621094,-0.937072753906
64304634305,0.102478027344,0.251586914062,-0.222778320312,-0.936279296875
64304656373,0.107604980469,0.253051757812,-0.221252441406,-0.935668945312
64304677438,0.109558105469,0.253662109375,-0.220520019531,-0.935424804688
64304701351,0.107971191406,0.253662109375,-0.220642089844,-0.935607910156
64304717022,0.10498046875,0.253784179688,-0.220886230469,-0.935852050781
64304737525,0.103088378906,0.254150390625,-0.221069335938,-0.935913085938
64304753981,0.102600097656,0.25439453125,-0.22119140625,-0.935913085938
64304776379,0.103881835938,0.254760742188,-0.221069335938,-0.935668945312
64304790702,0.10595703125,0.255187988281,-0.220886230469,-0.935363769531
64304813971,0.107788085938,0.255493164062,-0.220642089844,-0.935119628906
