64315589483,0.118286132812,0.2490234375,-0.167114257812,-0.946655273438
64315612910,0.118530273438,0.249267578125,-0.166809082031,-0.946594238281
64315634344,0.119812011719,0.246459960938,-0.166931152344,-0.947143554688
64315649228,0.122375488281,0.243530273438,-0.167419433594,-0.947509765625
64315672989,0.128112792969,0.240417480469,-0.169067382812,-0.947265625
64315694286,0.132446289062,0.239440917969,-0.170043945312,-0.946716308594
64315709385,0.132446289062,0.241271972656,-0.169494628906,-0.946350097656
64315733025,0.127502441406,0.244995117188,-0.167358398438,-0.946411132812
64315787094,0.121337890625,0.247802734375,-0.165283203125,-0.946899414062
64315787706,0.120727539062,0.247802734375,-0.165161132812,-0.947021484375
64315809388,0.121459960938,0.247131347656,-0.165466308594,-0.947021484375
64315811507,0.123046875,0.246337890625,-0.165954589844,-0.946899414062
64315825703,0.120483398438,0.252502441406,-0.164916992188,-0.94580078125
64315844407,0.119750976562,0.25341796875,-0.164978027344,-0.945678710938
64315868060,0.119384765625,0.253479003906,-0.165100097656,-0.945678710938
64315896800,0.119384765625,0.253479003906,-0.165100097656,-0.945678710938
64315909104,0.119384765625,0.253540039062,-0.165100097656,-0.945678710938
64315927344,0.118957519531,0.254455566406,-0.165405273438,-0.945373535156
64315949828,0.123413085938,0.248107910156,-0.1669921875,-0.946228027344
64315964213,0.12451171875,0.246948242188,-0.167175292969,-0.946350097656
64315986631,0.127502441406,0.244079589844,-0.168395996094,-0.946472167969
64316001588,0.133117675781,0.240783691406,-0.17041015625,-0.946228027344
64316024063,0.13671875,0.239013671875,-0.171752929688,-0.945922851562
64316046540,0.134826660156,0.240417480469,-0.171447753906,-0.945861816406
64316061524,0.128967285156,0.243591308594,-0.169799804688,-0.946166992188
64316084079,0.124084472656,0.24462890625,-0.168640136719,-0.94677734375
64316106523,0.124755859375,0.241455078125,-0.169738769531,-0.947326660156
64316121513,0.126708984375,0.239074707031,-0.170532226562,-0.947509765625
64316144207,0.126220703125,0.236694335938,-0.171203613281,-0.948059082031
64316166606,0.127380371094,0.234313964844,-0.171569824219,-0.948425292969
64316181630,0.128662109375,0.231750488281,-0.171325683594,-0.948913574219
64316204127,0.131469726562,0.229614257812,-0.170288085938,-0.94921875
64316226694,0.130249023438,0.228271484375,-0.170104980469,-0.949768066406
64316241669,0.125122070312,0.226623535156,-0.172973632812,-0.950317382812
64316264153,0.116943359375,0.22119140625,-0.178771972656,-0.951538085938
64316286628,0.110961914062,0.21142578125,-0.183715820312,-0.953552246094
64316301814,0.110229492188,0.197998046875,-0.187805175781,-0.955749511719
64316324218,0.117004394531,0.180725097656,-0.193298339844,-0.957275390625
64316346719,0.127563476562,0.159790039062,-0.20166015625,-0.957885742188
64316364509,0.135314941406,0.135192871094,-0.209899902344,-0.958862304688
64316384152,0.1376953125,0.108093261719,-0.216247558594,-0.960571289062
64316406672,0.13720703125,0.076904296875,-0.222473144531,-0.962219238281
64316430476,0.136169433594,0.042724609375,-0.229125976562,-0.962890625
64316444129,0.138061523438,0.0081787109375,-0.233581542969,-0.962463378906
64316466546,0.145568847656,-0.024658203125,-0.235412597656,-0.960632324219
64316482930,0.157409667969,-0.0554809570312,-0.236328125,-0.957275390625
64316507026,0.168395996094,-0.0849609375,-0.237426757812,-0.952941894531
64316526525,0.177368164062,-0.1123046875,-0.23779296875,-0.948364257812
64316542991,0.184875488281,-0.136596679688,-0.236450195312,-0.944091796875
64316565468,0.189636230469,-0.157470703125,-0.234191894531,-0.940490722656
64316586583,0.192565917969,-0.175109863281,-0.231628417969,-0.937377929688
64316602971,0.194580078125,-0.189758300781,-0.228881835938,-0.934753417969
64316624124,0.196960449219,-0.202392578125,-0.226501464844,-0.932189941406
64316646636,0.200561523438,-0.211547851562,-0.224792480469,-0.929809570312
64316663006,0.20361328125,-0.217590332031,-0.223754882812,-0.928039550781
64316684123,0.205444335938,-0.22265625,-0.222412109375,-0.926696777344
64316706654,0.20556640625,-0.226745605469,-0.220520019531,-0.926147460938
64316723024,0.204040527344,-0.229553222656,-0.21875,-0.926208496094
64316744141,0.201965332031,-0.231567382812,-0.218200683594,-0.926330566406
64316766647,0.200561523438,-0.232666015625,-0.218505859375,-0.92626953125
64316784504,0.199890136719,-0.233032226562,-0.21875,-0.92626953125
64316805585,0.199340820312,-0.23291015625,-0.218505859375,-0.926452636719
64316834111,0.198608398438,-0.232482910156,-0.218017578125,-0.926818847656
64316844468,0.197692871094,-0.23193359375,-0.217651367188,-0.92724609375
64316863996,0.195922851562,-0.231628417969,-0.217407226562,-0.927795410156
64316887166,0.19384765625,-0.23095703125,-0.21728515625,-0.928405761719
64316918647,0.192749023438,-0.230346679688,-0.21728515625,-0.928771972656
64316933605,0.192810058594,-0.229797363281,-0.217468261719,-0.928894042969
64316947348,0.193176269531,-0.229736328125,-0.217834472656,-0.9287109375
64316963661,0.192932128906,-0.230041503906,-0.218139648438,-0.928649902344
64316986182,0.191772460938,-0.230285644531,-0.218322753906,-0.928771972656
64317008597,0.191040039062,-0.230407714844,-0.218383789062,-0.928894042969
64317023643,0.191223144531,-0.230529785156,-0.218566894531,-0.928771972656
64317046105,0.191650390625,-0.230712890625,-0.218688964844,-0.928588867188
64317067179,0.191589355469,-0.230895996094,-0.218444824219,-0.928588867188
64317083652,0.190673828125,-0.230834960938,-0.218200683594,-0.928894042969
64317122233,0.189758300781,-0.230712890625,-0.218078613281,-0.929138183594
64317134701,0.189636230469,-0.23046875,-0.217895507812,-0.929260253906
64317143600,0.189880371094,-0.230285644531,-0.217529296875,-0.929321289062
64317166166,0.189514160156,-0.230407714844,-0.217163085938,-0.929504394531
64317196181,0.188842773438,-0.230285644531,-0.216918945312,-0.9296875
64317203726,0.188720703125,-0.22998046875,-0.216674804688,-0.929870605469
64317226155,0.189147949219,-0.229797363281,-0.216369628906,-0.929870605469
64317248706,0.189575195312,-0.229797363281,-0.216064453125,-0.929870605469
64317263005,0.189392089844,-0.229553222656,-0.2158203125,-0.929992675781
64317286640,0.188781738281,-0.229125976562,-0.215759277344,-0.930236816406
64317308649,0.1884765625,-0.228759765625,-0.215759277344,-0.930419921875
64317323687,0.188659667969,-0.228515625,-0.215698242188,-0.930480957031
64317346155,0.188842773438,-0.228210449219,-0.215454101562,-0.930541992188
64317368709,0.188232421875,-0.22802734375,-0.215026855469,-0.930847167969
64317383009,0.187377929688,-0.22802734375,-0.214538574219,-0.931091308594
64317406148,0.186950683594,-0.228149414062,-0.213928222656,-0.931335449219
64317428616,0.186828613281,-0.228088378906,-0.21337890625,-0.931457519531
64317442993,0.185974121094,-0.227905273438,-0.213012695312,-0.931762695312
64317466172,0.185180664062,-0.228088378906,-0.212890625,-0.931884765625
64317488617,0.18505859375,-0.228515625,-0.212707519531,-0.931884765625
64317502985,0.185302734375,-0.228881835938,-0.212463378906,-0.931762695312
64317526175,0.184997558594,-0.228942871094,-0.212158203125,-0.931884765625
64317548633,0.183776855469,-0.228332519531,-0.211975097656,-0.932312011719
64317562952,0.182006835938,-0.226318359375,-0.212036132812,-0.933166503906
64317586553,0.179992675781,-0.222473144531,-0.212158203125,-0.934448242188
64317608599,0.177124023438,-0.216186523438,-0.212341308594,-0.936401367188
64317637251,0.173706054688,-0.207702636719,-0.212646484375,-0.938903808594
64317646119,0.169860839844,-0.195983886719,-0.213256835938,-0.941955566406
64317668678,0.16455078125,-0.1806640625,-0.214111328125,-0.94580078125
64317689803,0.158020019531,-0.161682128906,-0.215270996094,-0.950073242188
64317706124,0.151062011719,-0.139221191406,-0.216430664062,-0.954467773438
64317728703,0.143737792969,-0.11328125,-0.217590332031,-0.958740234375
64317749823,0.13720703125,-0.0848999023438,-0.218933105469,-0.962341308594
64317766165,0.131225585938,-0.0545654296875,-0.220825195312,-0.964965820312
64317788626,0.125061035156,-0.0227661132812,-0.22314453125,-0.966491699219
64317809731,0.118408203125,0.00958251953125,-0.225769042969,-0.966979980469
64317826059,0.111938476562,0.0407104492188,-0.228149414062,-0.966369628906
64317848612,0.106872558594,0.0693969726562,-0.229614257812,-0.964965820312
64317869828,0.103210449219,0.0955200195312,-0.230163574219,-0.962951660156
64317886129,0.0997924804688,0.118591308594,-0.229553222656,-0.9609375
64317908675,0.0942993164062,0.139038085938,-0.228637695312,-0.958923339844
64317929796,0.087890625,0.157043457031,-0.227111816406,-0.957153320312
64317946128,0.0821533203125,0.172241210938,-0.224487304688,-0.955627441406
64317968684,0.07861328125,0.183288574219,-0.221618652344,-0.954528808594
64317989659,0.0775146484375,0.191345214844,-0.218139648438,-0.953857421875
64318006124,0.0764770507812,0.197448730469,-0.214965820312,-0.953430175781
64318028634,0.0724487304688,0.202880859375,-0.212463378906,-0.953186035156
64318049696,0.0679321289062,0.208312988281,-0.209167480469,-0.953063964844
64318065744,0.0679321289062,0.212585449219,-0.205322265625,-0.952941894531
64318088609,0.0737915039062,0.214294433594,-0.201843261719,-0.952880859375
64318109679,0.0824584960938,0.214965820312,-0.199829101562,-0.952453613281
64318125457,0.0887451171875,0.214721679688,-0.200134277344,-0.951843261719
64318148594,0.08935546875,0.214233398438,-0.201293945312,-0.95166015625
64318169651,0.0853881835938,0.215026855469,-0.201416015625,-0.951782226562
64318185469,0.0809936523438,0.217346191406,-0.200317382812,-0.951904296875
64318208601,0.0797729492188,0.220153808594,-0.198791503906,-0.95166015625
64318231570,0.0830078125,0.223083496094,-0.196960449219,-0.951110839844
64318245397,0.090087890625,0.225708007812,-0.194396972656,-0.950378417969
64318268607,0.09765625,0.227172851562,-0.191833496094,-0.949768066406
64318297177,0.1025390625,0.2275390625,-0.190307617188,-0.949523925781
64318305455,0.104431152344,0.227722167969,-0.189453125,-0.949401855469
64318328623,0.103088378906,0.227722167969,-0.189025878906,-0.949645996094
64318351071,0.101013183594,0.227722167969,-0.188415527344,-0.950012207031
64318365481,0.0999145507812,0.22802734375,-0.187744140625,-0.9501953125
64318388630,0.100646972656,0.228271484375,-0.187133789062,-0.950134277344
64318411079,0.103149414062,0.228698730469,-0.186462402344,-0.949890136719
64318425410,0.105651855469,0.228942871094,-0.185974121094,-0.949645996094
64318448636,0.107482910156,0.229125976562,-0.185546875,-0.949523925781
64318471099,0.10791015625,0.229309082031,-0.185241699219,-0.949462890625
64318485455,0.107238769531,0.229370117188,-0.185180664062,-0.949523925781
64318508586,0.106323242188,0.229309082031,-0.185119628906,-0.94970703125
64318531113,0.106201171875,0.229370117188,-0.18505859375,-0.94970703125
64318545444,0.106567382812,0.2294921875,-0.184997558594,-0.949645996094
64318575912,0.107360839844,0.229553222656,-0.184814453125,-0.949584960938
64318597101,0.107604980469,0.229736328125,-0.1845703125,-0.949523925781
64318605422,0.107482910156,0.229919433594,-0.184448242188,-0.949523925781
64318628714,0.106872558594,0.230041503906,-0.184448242188,-0.949584960938
64318651150,0.106018066406,0.230163574219,-0.184509277344,-0.949645996094
64318665459,0.105163574219,0.230407714844,-0.184509277344,-0.949645996094
64318688584,0.104736328125,0.230529785156,-0.184509277344,-0.94970703125
64318711142,0.104675292969,0.230529785156,-0.184448242188,-0.94970703125
64318732276,0.104675292969,0.230529785156,-0.184448242188,-0.94970703125
64318748621,0.104614257812,0.230590820312,-0.184448242188,-0.94970703125
64318771073,0.104614257812,0.230590820312,-0.184448242188,-0.94970703125
64318792119,0.104309082031,0.230651855469,-0.184448242188,-0.94970703125
64318808610,0.10400390625,0.230651855469,-0.184631347656,-0.94970703125
64318831124,0.103698730469,0.230590820312,-0.184692382812,-0.949768066406
64318852185,0.103698730469,0.230590820312,-0.184692382812,-0.949768066406
64318869045,0.103576660156,0.230590820312,-0.184387207031,-0.949829101562
64318891070,0.103576660156,0.230712890625,-0.184143066406,-0.949829101562
64318912183,0.103698730469,0.230712890625,-0.183776855469,-0.949890136719
64318928650,0.103820800781,0.230712890625,-0.183349609375,-0.949951171875
64318951120,0.103942871094,0.230651855469,-0.183044433594,-0.950012207031
