26093859000,1,1,-1,-3,-1,-1,-1,-1
26093859000,0,-2,0,0,0,-1,-1,0
26093859766,0,-3,-3,-3,-1,0,0,-1
26093859766,2,0,-2,-1,-1,-2,-2,-1
26093860588,0,-1,-1,0,-1,0,0,-1
26093860588,-1,-1,0,-1,-1,-2,-2,-1
26093861415,-2,-2,1,0,-1,1,0,-1
26093861415,-1,-9,-1,0,-1,0,0,-1
26093872130,-1,5,0,0,0,0,-2,-1
26093872130,-5,-5,-1,0,1,2,1,-3
26093881549,-1,-2,1,2,0,-1,0,0
26093881549,-4,-5,0,-1,1,-2,0,-1
26093887211,-2,-1,1,-1,1,0,1,-1
26093887211,0,-1,-3,-2,-1,-1,0,0
26093902712,-4,-2,-5,-1,1,0,-1,-1
26093902712,2,2,-1,-2,-3,-2,-1,0
26093910727,-2,-3,1,-2,0,-2,-1,-1
26093910727,0,-4,0,0,-1,-2,-1,-2
26093917163,2,5,3,-1,-1,-1,0,0
26093917163,-1,0,-2,-2,-3,-1,-1,0
26093932250,-3,-7,-2,1,0,1,0,-1
26093932250,2,5,-1,-1,-2,0,0,0
26093940759,2,2,-1,-3,-3,-1,-2,-1
26093940759,-2,2,-1,0,0,0,-2,-2
26093980284,-3,-8,-4,0,0,-1,-1,-2
26093980284,0,3,2,0,-1,-1,-1,-1
26093981076,2,1,1,0,0,0,-1,0
26093981076,1,1,-1,-2,-1,-1,-3,-1
26093981943,-2,-4,-4,-2,-1,0,0,-3
26093981943,0,4,-1,-2,-2,-3,-2,-1
26093985089,-4,-1,-2,-1,1,0,-1,-4
26093985089,1,1,3,0,0,-1,0,-1
26093991932,2,4,1,-1,-2,0,0,2
26093991932,2,-3,-2,-1,-1,0,1,0
26094000196,1,0,-1,-2,-3,0,1,1
26094000196,0,-2,-2,-2,-1,0,-1,0
26094006941,-9,-9,-2,2,3,3,0,0
26094006941,1,5,1,0,0,-1,-1,0
26094022497,1,5,0,-2,-1,0,-1,0
26094022497,-3,-6,-4,1,0,0,0,0
26094029449,0,-9,-6,-4,-2,-2,-1,1
26094029449,1,8,4,0,-1,0,-1,1
26094036945,-2,-2,0,1,-2,-1,0,-1
26094036945,0,3,-1,-1,-1,0,-1,-2
26094051890,2,3,0,-1,-2,-1,-3,-2
26094051890,-5,-7,-3,3,1,2,-1,0
26094060083,0,-2,-1,-3,-1,-1,-2,0
26094060083,-1,-3,-1,-1,-1,-1,1,-1
26094074378,4,12,1,-1,-1,-2,-1,0
26094074378,0,-2,2,-3,0,-2,-1,0
26094082694,-1,-3,-2,-4,-2,-1,-3,-1
26094082694,-4,-5,-4,-2,2,-1,-2,-1
26094089463,2,2,1,-2,-2,0,0,-1
26094089463,-2,-4,-7,-3,-2,-2,-1,0
26094096901,-1,2,2,2,0,0,2,0
26094096901,-2,1,2,-2,-4,1,-1,-1
26094111949,-2,1,0,-1,-1,-1,-2,0
26094111949,0,-4,0,-3,-1,-1,-1,-2
26094120150,-1,-4,-1,-2,-1,-1,-1,1
26094120150,-3,-5,-3,-1,0,-3,0,-4
26094126847,1,-1,2,0,2,1,0,0
26094126847,-1,-8,-1,-2,-1,-3,0,-3
26094142532,0,1,2,2,1,-1,-2,-2
26094142532,3,-1,-4,-3,-3,-1,-1,1
26094149407,-5,-2,0,1,1,1,-1,-3
26094149407,-1,-1,-3,-3,-1,-2,-2,-2
26094156926,-1,1,-2,-1,0,-1,-2,-3
26094156926,-6,-1,2,3,1,1,-2,-2
26094180827,1,-2,-3,-2,-3,-3,-3,-1
26094180827,1,0,-4,-3,-3,-2,-2,0
26094181524,-4,0,-1,1,0,-2,0,-2
26094181524,-1,5,-2,-2,-3,0,-1,-1
26094186799,-4,-3,0,-1,0,-4,-1,-2
26094186799,-4,-11,-3,1,0,0,-1,-1
26094202522,0,-2,-2,-2,-4,-3,-2,-1
26094202522,1,9,0,-3,-1,-3,0,-3
26094209375,2,5,2,-1,-2,-1,1,-1
26094209375,-2,-3,-5,-1,-3,-1,-2,-1
26094216901,-1,-1,3,1,-1,0,-3,-1
26094216901,-2,-6,-3,-2,-1,-2,-2,-2
26094231986,1,2,-1,-1,-2,-3,-2,1
26094231986,-2,4,3,1,0,-1,-2,-3
26094240183,-1,-1,-2,-2,0,-1,-1,0
26094240183,3,-1,-2,-2,-4,-2,-1,2
26094246964,-3,1,-1,1,-1,-1,-1,-1
26094246964,-1,3,1,0,-3,-1,0,0
26094262676,0,-4,-5,-3,-2,-4,-2,0
26094262676,-1,-1,0,1,1,-1,0,1
26094269455,-3,-12,-7,-3,-3,-2,-3,-2
26094269455,1,9,6,3,0,1,1,0
26094276886,-2,-2,-3,0,-3,0,-1,-1
26094276886,-3,1,2,0,-1,-2,-1,0
26094291895,1,0,-2,-3,0,-2,2,0
26094291895,-2,-7,-3,-3,1,-1,1,-3
26094300166,1,5,0,0,1,0,-1,-3
26094300166,-1,-11,-7,0,-1,-3,-1,0
26094306976,1,7,5,-3,0,-2,-2,-1
26094306976,2,-2,-3,-3,-2,-1,0,-1
26094322537,-3,-3,0,-2,0,-1,0,-1
26094322537,0,-7,-1,0,-1,0,-2,-3
26094329334,-5,0,2,3,1,2,1,-1
26094329334,0,2,0,0,0,-1,-2,0
26094345159,-2,-4,-2,-3,-1,-2,-1,0
26094345159,-2,1,0,-2,0,0,-1,-2
26094351945,-1,-7,-2,0,0,2,0,0
26094351945,-1,0,-2,-1,-3,-1,-3,-1
26094360104,-1,-5,-1,1,1,0,0,-1
26094360104,1,4,2,-1,-1,-2,0,-1
26094366955,1,-4,-1,-1,-1,-1,-1,-2
26094366955,-1,-3,-5,-1,-1,-1,1,-1
26094382512,3,2,2,0,-2,-1,0,-2
26094382512,2,8,4,-2,-2,0,0,-1
26094389433,-2,1,0,-1,-2,-2,-1,-1
26094389433,-3,-3,-2,-3,-2,-2,0,-2
26094405125,-1,-1,-4,-3,-2,0,-2,-1
26094405125,-2,-3,-2,-1,-1,-2,0,0
26094411915,0,-3,-2,0,-1,-1,-2,-2
26094411915,0,-4,1,4,4,1,-2,-1
26094420069,-2,-2,-1,-3,-3,-2,-1,0
26094420069,-2,-7,-5,-13,-8,-4,-4,-2
26094426968,-2,-6,-4,-9,-14,-7,-3,-3
26094426968,1,10,8,18,17,9,4,2
26094442603,1,4,4,5,9,3,2,-1
26094442603,-2,1,-3,2,3,0,-1,-1
26094449451,-3,4,-2,-7,-5,-3,-2,0
26094449451,-3,-7,-8,-12,-11,-5,-3,-1
26094465308,-1,0,-1,-2,-3,-2,0,0
26094465308,-3,3,1,0,0,0,1,0
26094471831,0,5,-1,-1,0,-1,0,-2
26094471831,-6,-3,-1,1,0,0,0,-4
26094480013,-4,-4,-5,0,-1,0,1,-2
26094480013,-1,-4,-6,-3,-2,-2,-3,-1
26094486950,1,-4,-11,-21,-11,-7,-5,-1
26094486950,2,-6,-2,5,-7,-5,-2,0
26094502516,3,11,17,27,26,12,7,6
26094502516,-3,-10,2,4,1,0,1,-3
26094509398,-2,-10,-7,2,2,0,-2,-2
26094509398,2,22,4,-21,-17,-10,-7,-1
26094525057,-9,-21,-18,-10,-9,-4,-5,-4
26094525057,8,28,20,13,7,4,1,1
26094531939,1,-10,-5,-7,1,-1,1,-1
26094531939,2,17,-6,-9,-12,-9,-5,-2
26094540112,-5,-26,2,14,9,4,-1,-2
26094540112,1,20,11,4,4,1,0,3
26094546823,-2,-1,-2,2,1,0,-1,-2
26094546823,-3,-12,-5,-3,1,2,2,0
26094563280,1,5,-7,-14,-13,-7,-3,-3
26094563280,-4,-11,-8,-8,-5,-3,-2,-1
26094569416,-1,2,4,9,9,3,1,1
26094569416,1,-1,-1,-6,-2,-3,-2,-1
26094585799,0,4,2,2,-5,-2,-2,-1
26094585799,-1,-16,-7,2,5,3,2,1
26094591896,-6,2,3,7,0,1,-1,-1
26094591896,0,-3,0,5,6,4,2,-1
26094600979,1,4,1,-5,-4,-2,0,-1
26094600979,-1,-4,-6,-4,-3,-4,-2,-1
26094606785,1,-1,0,1,-1,-1,0,-1
26094606785,-6,-10,-5,-3,1,-1,-3,-2
26094623312,-1,-1,-3,-7,-6,-3,-4,-2
26094623312,-1,-6,-6,-1,-2,0,-2,-1
26094629284,-1,1,0,0,0,2,0,-1
26094629284,-1,-3,8,3,3,0,0,2
26094645953,2,3,-1,-3,-3,-1,-2,-1
26094645953,-2,1,-3,-1,-3,-2,-3,-1
26094651831,0,-5,-3,-1,-2,-1,-2,1
26094651831,1,-2,-1,0,0,3,0,0
26094660813,-3,-5,-1,-5,-6,-6,-1,-1
26094660813,-4,-4,-4,-4,-5,-2,-2,0
26094683216,0,15,11,8,6,5,2,1
26094683216,-4,1,2,9,5,2,1,-1
26094684841,-2,1,-2,0,1,0,0,-1
26094684841,-1,14,6,-1,-2,-3,-1,-3
26094689376,-1,-5,-3,-4,-4,-4,-3,-2
26094689376,-3,-5,-4,-3,-1,0,-1,-1
26094705918,-1,-1,-2,-4,-2,-2,-2,-1
26094705918,-1,-3,-4,-1,-1,-2,-2,-3
26094711788,1,3,-1,3,1,0,-1,0
26094711788,1,-2,3,-1,-2,-3,-1,-1
26094720926,-1,-9,-6,-5,-5,-1,-1,-1
26094720926,0,-5,0,-2,0,0,0,-2
26094734318,-1,-5,0,3,0,1,0,0
26094734318,0,5,2,-1,-2,-2,-1,-1
26094743387,0,7,-2,-5,-4,-2,-2,-1
26094743387,-2,-6,-5,-5,-4,-2,-1,-2
26094749449,-1,-1,3,7,4,1,2,-1
26094749449,1,-1,-2,-1,2,-1,-1,0
26094765786,-2,7,4,-5,-4,-3,-2,-1
26094765786,-4,-7,-3,7,4,4,3,1
26094771899,-1,-2,1,-7,-4,-3,-2,-2
26094771899,-2,-3,-2,-2,1,1,-1,1
26094780909,1,4,-3,-6,-5,-2,-1,-1
26094780909,-1,-5,-3,-8,-7,-3,-2,-3
26094794309,1,2,0,4,1,0,0,0
26094794309,-2,-12,-5,9,10,4,3,-1
26094811668,-1,7,9,0,-1,-2,0,1
26094811668,3,1,4,0,-1,0,-1,1
26094812275,0,-3,-4,-5,-5,-3,-2,-2
26094812275,-1,-2,-4,-8,-7,-5,-4,0
26094833982,1,-8,-10,-1,-1,-1,-1,-1
26094833982,-2,-2,2,4,3,-1,2,0
26094834792,1,3,0,-3,0,-1,-1,-1
26094834792,-1,0,-1,0,-1,-2,0,-2
26094840935,-1,-5,-5,-6,-7,-4,-1,-1
26094840935,-2,-2,2,4,0,-3,-3,-1
26094854392,1,-1,3,0,-1,-1,-2,-1
26094854392,-1,-9,-2,1,2,2,2,0
26094863335,0,3,4,11,8,4,2,0
26094863335,1,1,-5,-8,-5,-1,0,-1
26094869267,0,8,-2,-7,-6,-5,-1,0
26094869267,0,-7,-5,-3,-3,-2,-2,0
26094885834,2,14,3,-2,-3,-2,0,-1
26094885834,-3,-1,-1,1,2,2,-1,-1
26094891856,-1,0,1,8,4,-4,1,0
26094891856,1,-3,0,-5,-4,6,1,-1
26094900917,-2,-9,-3,0,2,0,0,0
26094900917,0,-8,-2,-1,-3,-2,-2,-3
26094914456,0,-7,-7,-9,-6,-3,-4,-1
26094914456,2,6,8,1,-3,-4,-2,-2
26094923349,0,0,0,2,4,2,2,-2
26094923349,-1,5,-1,-4,-3,-1,0,-1
26094929341,-3,-4,-4,-1,-1,-1,0,-1
26094929341,-2,2,-1,2,0,-1,-3,0
26094945821,-2,-7,-4,-4,-5,-2,-3,0
26094945821,-4,-9,-5,-3,-2,-2,-1,-2
26094951892,1,-2,2,6,6,3,-1,0
26094951892,-4,3,5,1,2,-2,0,0
26094966908,-3,2,-1,0,-1,-1,-3,0
26094966908,-3,3,-5,-5,-4,-2,-1,0
26094982618,-2,-1,-2,-2,-5,-1,-1,-2
26094982618,-3,3,-4,-2,-1,0,-1,-1
26094989971,-1,2,4,-2,-4,-5,-2,-1
26094989971,-1,3,-4,-1,-3,-3,-2,0
26094990729,-4,9,1,-4,-3,-3,-2,-2
26094990729,-3,-3,-3,5,6,6,-1,1
26095005823,-1,-5,-3,-2,0,0,1,-1
26095005823,0,-1,1,2,1,0,0,-1
26095012019,-3,-1,-1,-5,-4,-5,-1,-1
26095012019,-2,-5,-6,-12,-8,-7,-3,-4
26095026822,0,-2,0,1,-2,-2,-3,-3
26095026822,7,0,5,9,6,4,2,0
26095034385,-2,-5,1,2,2,3,0,0
26095034385,-3,-4,-7,0,0,0,0,0
26095049994,-4,-5,-7,-10,-7,-2,-2,0
26095049994,0,0,1,-5,-4,-3,-2,-3
26095050731,2,12,4,1,0,1,0,0
26095050731,1,3,2,-1,-2,-4,-1,-1
26095065787,0,-4,-7,-5,-1,-2,-1,-1
26095065787,-2,-16,-8,2,1,-1,-2,-1
26095071885,4,11,10,4,2,2,0,2
26095071885,-3,-11,-9,-7,-4,-2,-2,-1
26095086927,2,4,-3,0,2,-1,0,-1
26095086927,1,-6,-5,-3,1,-1,-1,0
26095094331,1,-4,2,9,4,0,0,-2
26095094331,3,2,5,1,-3,-4,-1,0
26095109967,-1,-9,-4,0,0,4,2,-1
26095109967,-2,12,-6,-9,-3,-1,1,-2
26095111079,-3,-10,-2,-3,-4,-3,-2,-2
26095111079,2,3,3,3,-1,-1,0,0
26095125806,-1,2,7,-2,-1,-2,-2,-1
26095125806,0,10,9,10,6,3,1,2
26095131776,-1,-1,-3,2,5,2,0,0
26095131776,3,3,-4,-8,-5,-3,-2,0
26095146806,-5,-6,5,1,-2,-3,0,0
26095146806,-6,-15,-7,-4,-2,-2,-1,-2
26095154334,2,4,-4,-4,-2,0,-1,1
26095154334,-5,-13,-4,2,-2,-2,-1,-3
26095169997,7,24,4,-7,-7,-2,0,0
26095169997,-1,4,-4,-2,-1,-2,-1,-1
26095170773,-1,-12,10,21,10,5,1,-1
26095170773,1,13,9,-1,1,1,-1,-2
26095185892,-4,-11,-7,1,-1,-2,-1,-2
26095185892,1,6,8,0,-5,-4,-3,-1
26095191886,-2,-4,-22,-23,-13,-5,-2,-3
26095191886,-3,-5,-3,0,-2,1,-1,-3
26095206954,-2,-2,-1,-5,0,0,-1,-1
26095206954,-8,-34,-18,-9,-4,-4,-2,-1
26095214497,5,16,18,4,2,0,2,2
26095214497,-3,-1,4,5,5,4,-1,-1
26095230084,1,-5,1,9,7,2,-2,-2
26095230084,-1,2,-5,-4,-3,-1,-2,-1
26095230750,0,7,6,4,1,1,0,0
26095230750,2,8,-3,-3,-1,0,-1,0
26095245766,2,-1,-3,0,0,0,-1,2
26095245766,4,8,11,4,0,1,-2,0
26095251945,-5,-8,-8,-5,-4,-6,-4,-4
26095251945,-3,4,2,-5,-6,-5,-1,-2
26095266943,-5,-11,-13,-2,0,0,0,-1
26095266943,-1,3,0,-5,-5,-4,-5,-1
26095274377,-2,-5,-9,-11,-8,-3,-3,-3
26095274377,-3,-3,0,7,5,1,0,-3
26095290068,-2,-5,-1,-2,-4,-3,-2,-2
26095290068,1,3,-4,3,8,4,3,1
26095290751,-1,1,0,-4,-8,-1,1,0
26095290751,6,16,15,21,18,5,0,2
26095313979,0,6,9,3,2,-1,-1,-1
26095313979,-4,-18,-5,-3,-2,-2,1,1
26095314815,1,11,-7,-9,-5,-3,-2,0
26095314815,-7,-8,-11,-12,-9,-4,-3,-3
26095326858,-1,1,3,1,1,2,1,1
26095326858,0,3,-4,3,1,0,1,0
26095334455,-1,-19,-2,5,3,1,-2,0
26095334455,1,-5,1,-4,-9,-6,-1,0
26095350123,-2,8,4,2,1,-2,-3,-3
26095350123,-5,5,-3,-5,-6,-4,-2,-2
26095350748,-4,-7,-9,-6,0,-1,1,-1
26095350748,-3,-9,-2,-1,-1,1,-3,-2
26095366241,-1,-4,-9,-7,-6,-4,-2,-1
26095366241,3,2,3,4,1,3,2,0
26095371987,-3,-3,-1,6,6,2,-1,0
26095371987,-1,3,0,0,2,0,1,0
26095386897,1,6,9,-1,-2,-1,2,0
26095386897,-2,-3,-1,-2,-5,-5,-2,-2
26095394342,-4,-6,-1,1,-1,-1,0,-1
26095394342,-1,5,-5,-3,-2,-2,-1,0
26095409983,1,-2,-4,-2,-3,-1,-2,-1
26095409983,1,6,0,-7,-5,-1,0,-3
26095410754,-9,-24,-13,3,3,1,-2,-4
26095410754,6,14,3,-3,-2,0,0,1
26095425789,-2,-1,4,0,-2,0,0,-2
26095425789,3,-9,-7,-4,-3,-1,-1,2
26095431908,10,44,26,5,2,1,1,2
26095431908,-3,-9,-7,-1,-1,-1,-1,-2
26095446955,-4,-6,-2,-4,-1,-2,-2,-1
26095446955,-2,-5,-1,-3,-2,-2,0,-2
26095454440,-5,-18,-8,-2,0,-1,-1,-1
26095454440,1,2,0,-2,-1,-3,1,-3
26095470077,4,13,0,0,-1,-1,2,1
26095470077,-4,-3,-3,3,1,0,-4,-2
26095470805,-1,-4,-3,-5,-5,-3,-1,-4
26095470805,4,0,10,2,0,3,1,3
26095493963,-8,-15,-12,-6,-3,-3,-2,-5
26095493963,2,9,7,2,0,-2,0,1
26095494766,0,4,-4,-6,-4,-2,-3,0
26095494766,3,0,3,0,3,2,0,1
26095506868,-8,-21,-17,-8,-6,-4,-3,-7
26095506868,2,12,10,5,2,-1,0,-1
26095514371,-8,-14,-1,-11,-6,-5,0,-2
26095514371,-10,-16,-13,-4,-5,-3,-1,-3
26095530074,20,33,28,19,15,11,9,9
26095530074,-7,27,12,2,4,2,-1,-6
26095530767,1,-2,-3,-7,-8,-7,-4,-1
26095530767,-1,-3,-8,-5,-6,-3,-3,1
26095545761,2,8,1,-5,-3,-3,-2,2
26095545761,3,-8,-2,0,-2,-1,1,3
26095551940,1,-1,0,9,7,4,-1,-2
26095551940,4,14,9,3,-1,0,1,3
26095566930,-13,-19,-15,-9,-7,-6,-4,-5
26095566930,1,-10,-7,-4,-1,-1,0,-2
26095574367,1,2,-10,-5,-4,-3,-2,-2
26095574367,4,10,11,5,2,1,1,1
26095589421,-15,-45,-21,-4,0,1,-1,-4
26095589421,7,25,10,2,2,2,2,4
26095596925,1,2,-5,-6,-2,1,0,-1
26095596925,-9,-4,-4,-7,-4,-5,-2,-4
26095605950,-7,-29,-13,-6,0,1,-1,0
26095605950,2,19,9,9,5,0,-1,-1
26095611858,2,-7,4,7,5,3,1,1
26095611858,-7,-22,-21,-9,-6,-3,-3,-6
26095626974,0,-1,-6,-4,-4,-5,-2,-2
26095626974,-1,-3,-8,-8,-5,-2,0,1
26095634313,3,17,17,10,9,5,4,-1
26095634313,1,12,-7,-11,-11,-9,-3,-4
26095649267,-4,-19,-4,4,1,2,1,1
26095649267,-3,-7,-2,-4,0,0,-2,0
26095657496,6,29,18,4,2,1,2,1
26095657496,-4,-7,-3,-2,-1,0,-2,-2
26095664258,-2,10,3,-6,-3,-3,-4,-3
26095664258,4,11,-1,3,1,0,0,0
26095671959,1,16,1,1,0,0,0,0
26095671959,0,-9,-4,-3,-3,-1,1,0
26095686933,-3,13,4,0,-3,-4,-1,-2
26095686933,4,-10,2,-1,-2,-1,0,-2
26095694326,-1,-8,-11,-7,-2,-1,-1,0
26095694326,3,10,1,4,2,-1,-1,0
26095718152,3,7,2,7,5,2,-1,0
26095718152,-5,-15,-3,4,4,2,-2,-2
26095718931,2,-7,-4,-3,-8,-4,-4,1
26095718931,-18,-39,-19,-7,-3,-3,-3,-8
26095724278,8,38,21,6,3,0,2,5
26095724278,-12,-42,-17,-8,-6,-6,-3,-2
26095731779,0,4,3,-2,-4,0,5,2
26095731779,2,-19,-7,-10,-4,-4,-7,0
26095746801,3,19,7,0,-4,-5,-11,-3
26095746801,-7,-10,-4,3,6,5,-2,-13
26095754277,-7,-9,-12,-7,-5,-5,8,0
26095754277,5,-3,9,12,15,10,1,12
26095769304,4,-3,-1,-1,0,-1,-6,0
26095769304,-3,0,3,0,-2,3,0,-6
26095777452,-10,-31,-11,-8,-8,-9,-6,-4
26095777452,7,20,6,3,-1,2,2,-6
26095792488,5,24,4,0,0,0,3,0
26095792488,-10,-39,-29,-13,-9,-7,-7,-3
26095793265,-1,-8,-3,-3,0,-1,-4,-6
26095793265,7,19,8,9,3,0,3,2
26095806810,-8,-6,-2,5,2,0,-5,-5
26095806810,5,2,2,-3,-2,-2,7,6
26095814349,-5,-18,-15,-8,-5,-5,-13,-6
26095814349,-8,-19,-4,-5,-5,-2,4,0
26095829256,4,-9,-5,-2,1,4,11,10
26095829256,-5,16,-1,-8,-7,-6,-8,-6
26095837943,1,-1,-1,1,-1,1,-1,6
26095837943,-1,15,6,-1,-5,-6,-5,-9
26095852447,-1,7,2,-6,-1,-1,4,-6
26095852447,-2,-6,4,0,-3,2,3,-4
26095853208,6,23,18,9,7,4,-2,18
26095853208,0,2,-1,2,3,0,-7,-4
26095868268,-3,-20,-13,-10,-10,-5,-1,-1
26095868268,5,18,12,7,8,3,3,2
26095874332,-5,-13,-7,-5,-5,-4,-8,-11
26095874332,4,11,8,4,0,1,2,4
26095889317,-7,-2,1,0,-3,-3,1,-1
26095889317,6,28,0,-4,-7,-4,0,3
26095897634,-4,-10,4,5,4,3,0,-7
26095897634,-5,-4,-6,0,1,5,8,1
26095920632,-8,-10,-14,-7,-7,-6,-16,-16
26095920632,6,29,18,8,2,-5,-3,13
26095921412,0,11,-11,-11,-11,-7,0,-6
26095921412,-6,-5,7,1,1,-1,-4,5
26095926836,8,17,11,16,13,6,-6,-1
26095926836,-8,-9,-8,-6,-2,-3,-5,-3
26095934405,4,6,-2,-3,-2,0,3,6
26095934405,2,1,2,2,-2,0,-3,-6
26095949337,-4,-35,-6,-2,0,0,2,0
26095949337,2,-11,10,6,4,5,4,4
26095957501,1,-31,-2,-4,-3,-5,-4,-2
26095957501,-3,-11,-8,-6,-2,-2,-1,-2
26095972583,-1,-4,4,2,1,1,5,4
26095972583,-2,1,-3,-6,-6,-4,-3,-2
26095973252,-8,-16,-20,-9,-4,-4,-4,-9
26095973252,9,60,20,-2,-3,-1,-3,-1
26095986755,-2,9,9,9,10,5,6,6
26095986755,-8,-15,-13,-11,-9,-7,-3,0
26095994262,7,35,7,3,0,5,6,3
26095994262,-3,-8,-3,-4,-3,-4,-4,-6
26096009278,1,8,-7,1,1,-1,-2,0
26096009278,-3,-11,-11,2,4,3,-3,-4
26096017499,-3,7,14,12,8,3,3,1
26096017499,5,-4,-1,-5,-2,-4,-2,-1
26096033071,-3,-4,0,-3,-2,1,0,-4
26096033071,-5,-19,-7,-1,-3,-2,-2,-3
26096033889,-1,-7,-3,0,-2,1,1,1
26096033889,0,-4,-4,-2,-2,-2,3,-2
26096048255,-1,-13,2,-1,-5,-1,2,3
26096048255,5,2,-2,-1,-1,-1,-1,2
26096054277,-5,-7,2,-5,-6,-5,-5,-3
26096054277,-3,-30,-7,9,10,6,4,3
26096070767,4,-17,-5,0,4,1,-2,-2
26096070767,0,2,6,2,1,1,4,5
26096077497,3,14,-1,2,4,2,1,-2
26096077497,-2,11,0,-5,-3,-3,0,1
26096092497,-5,-16,-11,-8,-7,-3,-1,-3
26096092497,3,17,13,5,1,-2,-1,-2
26096093330,-6,-22,-7,-2,2,-1,-3,-1
26096093330,-1,-4,-8,-2,-5,-1,3,8
26096106946,2,24,4,-2,-3,-3,-1,-4
26096106946,-3,-10,-4,-2,-3,-4,-8,-6
26096114485,7,-8,2,2,1,1,3,-1
26096114485,-7,-16,-14,-9,-4,-1,-2,-6
26096129265,-1,-6,-7,-2,-1,-1,0,2
26096129265,-3,20,4,0,-2,-3,-6,-7
26096137490,0,-13,-9,7,9,5,7,7
26096137490,1,11,4,-5,-5,-2,-4,-2
26096152450,-3,1,0,1,0,1,1,0
26096152450,-3,-9,-4,-6,-3,-3,2,1
26096153253,-5,-5,-9,2,4,3,0,-2
26096153253,0,-3,9,3,-1,-1,0,-2
26096168318,-2,-11,-2,-5,-5,-3,-5,-1
26096168318,7,14,7,2,0,2,0,1
26096174340,-4,-15,-13,-14,-14,-9,-6,-3
26096174340,-8,-32,-10,1,4,2,0,2
26096189372,10,42,24,6,1,0,2,-2
26096189372,-7,-13,-3,2,3,0,1,-1
26096197443,-6,5,-1,-6,-3,-2,-4,-2
26096197443,4,15,0,-2,-3,-5,-2,-2
26096212239,2,-6,-1,7,6,3,0,3
26096212239,-5,-15,-14,-7,-7,-6,-9,-13
26096220045,-1,8,5,-3,-2,2,5,5
26096220045,-8,-20,-14,-8,-4,-2,1,3
26096226946,9,18,16,6,6,1,-2,-2
26096226946,0,2,-2,1,0,2,6,1
26096242622,2,6,3,-3,-4,-4,-8,-7
26096242622,2,-1,-3,-3,-4,-4,-4,-2
26096249404,-8,-20,-11,-5,-6,-4,2,-1
26096249404,-1,3,-2,2,1,3,1,0
26096257476,1,-14,-1,1,3,1,2,-1
26096257476,-6,-5,-6,-2,1,1,-2,-4
26096272434,-1,-7,-5,-1,-1,-3,-3,-1
26096272434,-2,-4,-2,0,1,0,2,2
26096273230,5,26,15,4,4,2,-1,1
26096273230,3,-7,-12,-4,-3,-3,-2,0
26096286776,-6,-8,2,3,2,2,2,1
26096286776,-3,-26,-15,-3,1,1,0,1
26096294359,2,5,7,2,1,-1,-1,-1
26096294359,5,8,3,4,4,3,0,-7
26096309333,0,4,-7,-6,-5,-4,4,4
26096309333,-4,-5,-1,-14,-15,-9,-10,-6
26096317591,-2,-5,-6,9,5,2,3,1
26096317591,-1,1,4,-3,-1,2,6,1
26096332610,-3,-3,2,-4,-5,-3,-3,-1
26096332610,6,16,5,2,3,0,1,0
26096333298,-6,-7,-10,-6,-5,-4,-6,-7
26096333298,0,8,8,4,3,2,3,5
26096346911,-1,-8,-4,-2,-2,-4,-1,3
26096346911,-4,-6,-13,-2,-2,-2,0,-1
26096354392,3,26,15,3,0,-2,-2,-1
26096354392,-7,-22,-13,2,4,0,-1,-1
26096369257,1,12,5,-9,-6,-4,-7,-3
26096369257,-1,-2,5,1,-1,0,1,0
26096377598,-3,-23,-3,1,0,-1,0,-1
26096377598,6,3,6,4,2,1,-4,-5
26096392456,-3,-5,-11,1,2,-2,3,6
26096392456,2,10,5,-7,-2,1,0,-1
26096393391,-3,0,-5,-1,-1,0,2,1
26096393391,2,11,5,-4,-4,-4,-4,0
26096406867,-3,-6,-7,-6,-4,-2,-3,-6
26096406867,-1,-7,0,2,0,-1,1,3
26096422596,-10,-37,-22,-5,-1,-1,-1,-3
26096422596,-1,33,23,10,5,2,0,0
26096429218,1,3,-3,0,3,1,-1,-1
26096429218,-4,0,1,2,1,1,-2,0
26096437611,0,-5,1,1,-1,1,-1,-2
26096437611,-7,-14,-7,-4,-4,-2,0,-1
26096452590,4,-6,-7,-6,-5,-4,-4,-5
26096452590,0,12,16,11,10,5,3,0
26096453297,4,18,4,-5,-3,-5,-5,-5
26096453297,-9,-8,-7,-3,-3,-3,-8,-8
26096466902,-1,3,6,3,1,2,11,10
26096466902,0,-20,-7,-2,1,0,0,-1
26096474343,2,6,2,-2,-4,-2,-1,0
26096474343,-1,-6,-3,-5,-6,-3,-3,-4
26096489261,-4,-12,-6,-2,-3,0,-3,-6
26096489261,2,10,0,0,0,-2,2,2
26096497486,-7,-24,-20,-11,-9,-7,-4,-8
26096497486,0,21,9,4,0,0,2,6
26096520606,-1,5,4,1,2,0,0,-2
26096520606,5,-3,3,8,7,1,2,1
26096521395,-2,0,-1,-1,2,0,0,0
26096521395,-1,-21,-9,-7,-5,-3,-2,-2
26096526804,-1,-3,-4,-7,-8,-3,-3,-4
26096526804,-3,-3,-6,-5,-1,0,-2,-1
26096534431,-4,-17,-17,-7,-3,-5,-2,-4
26096534431,10,41,28,5,2,0,-2,4
26096549421,1,5,2,2,1,2,-1,-3
26096549421,4,11,0,-6,-8,-4,-3,1
26096557626,5,3,9,11,9,5,4,3
26096557626,-3,-10,-12,-5,-5,-3,0,-1
26096571834,-5,-9,-5,2,0,-1,-2,-6
26096571834,-3,-8,-3,-4,-5,-2,-3,-1
26096580127,0,6,4,-3,-5,-3,-2,-1
26096580127,-2,-14,-2,1,-2,0,0,1
26096586774,-3,16,3,-5,-2,-2,-4,-6
26096586774,-4,-3,1,0,-1,1,-1,0
26096594277,7,23,14,3,0,3,2,4
26096594277,0,-8,-5,-1,-2,-4,-1,2
26096618251,-1,-2,-9,-3,-5,-3,-1,-3
26096618251,-2,1,-6,-2,-2,-3,-4,-4
26096618946,-1,27,11,-1,-2,-3,-1,0
26096618946,-2,-9,3,3,5,3,-1,-1
26096631799,-5,-23,-12,-5,-1,0,0,0
26096631799,2,14,4,-2,-3,-1,1,-2
26096648135,3,-1,-1,8,5,1,-3,0
26096648135,-2,1,-10,-6,-5,-4,-6,-9
26096649742,3,5,7,2,2,0,5,10
26096649742,-5,-23,-9,-5,-4,-4,-2,-3
26096654933,-2,-10,-4,-4,-3,-1,-2,-2
26096654933,-3,7,5,4,3,2,2,-2
26096669249,0,-1,2,-2,-2,-3,-4,-4
26096669249,-4,-18,-11,-2,-2,-1,-1,1
26096677783,1,19,10,1,-2,0,1,0
26096677783,-4,-9,-10,-3,-4,-1,-2,-4
26096691877,0,-5,-7,-1,0,1,-3,-2
26096691877,2,29,11,1,-2,1,0,0
26096700051,-5,-8,-9,0,0,1,-6,-3
26096700051,-1,4,0,1,1,1,2,4
26096706868,-1,0,1,0,-4,-1,-2,-2
26096706868,2,0,1,3,3,-1,-1,-6
26096715080,1,-10,-6,-3,-3,-3,-3,0
26096715080,1,5,2,-1,1,-1,0,3
26096729284,-6,-19,-3,-2,-2,-3,-3,-5
26096729284,-3,-7,-1,-6,-7,-8,-9,-4
26096737549,0,-9,2,1,2,1,0,1
26096737549,-1,-13,-3,0,0,1,2,3
26096752360,-1,-10,-9,-3,0,1,-2,-1
26096752360,-1,9,3,0,-1,0,-1,-2
26096760136,-3,-1,3,-2,-1,-2,0,0
26096760136,-2,-1,-6,-1,-1,0,-2,-1
26096775646,-1,-1,-5,0,0,0,0,-1
26096775646,0,-1,2,4,2,1,3,1
26096776440,0,9,-4,-9,-7,-5,-1,-1
26096776440,-3,-4,-2,4,5,1,1,-1
26096789419,4,20,13,5,3,0,-2,-3
26096789419,-1,-8,-7,-3,-4,1,0,6
26096797574,-1,-3,-1,4,1,2,-1,-1
26096797574,-1,-7,-5,-4,-4,-2,-1,-4
26096811944,-4,-26,-13,-3,-2,-2,0,-1
26096811944,3,21,18,8,3,1,0,-1
26096820034,-1,3,4,0,-1,1,1,1
26096820034,-6,-8,-4,-2,1,0,0,-1
26096835781,0,5,-6,-1,-3,-4,-5,-2
26096835781,1,-13,1,4,8,9,4,0
26096836473,-3,-4,-2,-3,0,-1,1,1
26096836473,2,11,0,-3,-3,-1,-2,-3
26096849414,-1,10,6,0,0,-1,-1,0
26096849414,-5,-16,-17,-8,-9,-7,-4,-3
26096857618,1,10,9,13,12,6,3,0
26096857618,2,-2,-3,-2,-4,-2,-1,-1
26096871902,-2,1,4,-1,-3,-1,-2,1
26096871902,-2,-13,-13,-6,-4,-3,0,1
26096880094,0,9,5,1,-1,1,-1,-1
26096880094,0,-10,-5,-5,-39,-3,-1,-3
26096894794,-2,-1,0,0,-12,-1,-1,-1
26096894794,0,-5,5,1,2,1,1,-3
26096902599,-9,-14,-7,-6,5,-5,-2,-5
26096902599,2,1,-1,-3,17,0,-1,0
26096909296,4,6,0,-3,9,-2,0,0
26096909296,2,7,5,1,8,2,-1,-1
26096918296,-4,-12,-10,-6,-1,-4,-1,-3
26096918296,-3,17,9,1,7,-2,-1,-1
26096931877,-1,3,-2,-1,0,0,0,-2
26096931877,3,5,0,2,0,-2,1,0
26096940797,-3,-11,-4,-3,-4,-1,-2,-2
26096940797,-1,-7,-9,-3,-3,-2,-2,-1
26096954435,-1,3,-1,-2,0,-1,0,1
26096954435,-3,6,2,1,1,1,1,0
26096963288,6,6,2,1,-2,-2,1,2
26096963288,3,-6,-3,-1,2,-2,-2,-1
26096969380,1,5,4,1,1,0,-2,1
26096969380,-4,-7,-9,-4,-7,-3,-1,-3
26096978326,-3,-20,-7,1,-6,-1,-1,0
26096978326,2,26,10,-1,0,-1,-1,0
26096991902,0,2,5,1,2,2,1,-2
26096991902,-2,13,-4,-2,-5,-3,-2,0
26097008295,3,14,3,-1,-2,0,0,2
26097008295,-3,-8,-14,0,3,1,-1,0
26097016113,-3,-13,-11,-9,-2,0,0,0
26097016113,6,32,60,22,2,-2,-3,-3
26097030017,-10,-11,-15,-6,-2,0,0,-3
26097030017,-6,-7,-13,-4,-6,-5,-7,-32
26097030700,3,-6,22,-2,-6,-2,3,27
26097030700,12,-9,4,7,5,3,3,10
26097038290,-9,7,2,0,-2,-2,2,10
26097038290,-3,-13,3,-2,-1,-1,-3,0
26097051907,-12,-17,-40,-10,-4,-7,-13,-17
26097051907,-6,-11,-10,-4,-6,-11,-15,-3
26097060811,24,23,3,-1,2,18,24,16
26097060811,-14,-7,-9,-9,-4,-2,5,3
26097075019,-1,11,15,10,7,6,5,-9
26097075019,-4,-14,-9,-2,0,-1,-1,4
26097081913,-4,-39,-94,-54,-10,-9,-12,-9
26097081913,7,42,97,75,18,8,3,0
26097089404,18,-4,-39,-8,-5,-3,-1,12
26097089404,1,25,93,17,2,-1,-3,-22
26097098274,-15,-21,-51,-17,-6,-4,1,24
26097098274,5,-7,-12,-13,-3,0,1,-3
26097111815,-15,0,8,1,-2,-5,-6,-11
26097111815,-7,-34,-62,-10,-2,1,2,-3
26097120800,-2,3,26,4,-6,-6,-7,-12
26097120800,1,1,-3,-6,3,1,-2,9
26097135773,2,10,11,6,-1,-2,1,-1
26097135773,-6,-18,-43,-19,-5,-1,3,3
26097137254,-1,12,38,20,2,-2,-2,-7
26097137254,2,-3,-17,-9,-4,-4,-4,6
26097149346,1,-3,-1,0,4,4,3,-5
26097149346,-2,0,-10,-6,-3,1,2,-1
26097158238,5,4,19,10,-1,-4,-6,-5
26097158238,5,6,-4,-3,0,-1,0,4
26097171802,-6,-6,-1,-5,-1,-1,1,-2
26097171802,1,2,-3,2,0,0,0,4
26097180727,-2,1,10,9,1,1,-3,-9
26097180727,-7,-14,-22,-17,-6,-2,-1,-3
26097195589,-1,0,5,3,2,2,-1,-2
26097195589,-2,-10,-18,-3,1,-2,1,1
26097197216,5,16,14,3,1,0,-2,-5
26097197216,4,3,-4,-7,-5,-2,-1,2
26097209293,1,4,12,5,0,-1,0,0
26097209293,-2,-6,-11,-3,-1,0,-1,-2
26097218312,-3,-1,3,1,-2,-2,-4,-4
26097218312,-1,-16,-13,-5,-2,-2,-3,0
26097231907,0,0,1,1,-1,-2,0,0
26097231907,-3,-3,-9,-6,-3,-1,-1,-1
26097240796,-1,1,12,7,2,0,-1,-3
26097240796,-2,-6,-5,-3,0,-1,0,2
26097254345,1,-2,-9,-7,-1,-1,-1,-3
26097254345,-2,5,20,6,-1,-2,1,-1
26097263280,1,7,7,3,0,-1,-2,-1
26097263280,-3,-12,-11,-6,-1,0,0,-3
26097269303,1,3,0,-2,-4,-1,-1,-1
26097269303,0,-1,-4,1,-2,0,-2,0
26097278266,0,3,1,0,-2,-2,-1,-1
26097278266,-4,-5,-1,0,-1,-1,1,-1
26097291849,1,3,-4,-3,-2,-2,-1,-1
26097291849,0,-1,-7,2,2,0,0,-1
26097300796,-4,-5,5,0,-2,-2,-1,-2
26097300796,3,-4,-4,-2,2,0,-1,1
26097314436,0,1,0,0,0,-3,-2,0
26097314436,-3,-2,-2,-3,-1,0,0,0
26097323293,0,-1,-1,-2,-2,-2,0,-2
26097323293,-2,-7,0,0,-1,-1,0,-1
26097329265,-1,-1,-4,-2,-2,-2,-2,-1
26097329265,1,3,-2,-5,-5,-3,-2,2
26097338279,-3,-13,-12,-5,2,4,1,-1
26097338279,5,18,8,4,-2,-2,-2,2
26097351928,3,4,16,7,3,3,1,1
26097351928,-1,-3,-10,-6,-2,0,0,-4
26097360798,0,4,5,-1,-1,-1,-1,0
26097360798,-3,-9,-16,-6,-1,-2,0,-1
26097374428,-3,-3,0,0,-2,-1,-1,-1
26097374428,0,4,2,2,1,1,1,1
26097383261,0,-1,-6,0,0,0,-2,-1
26097383261,1,3,7,0,-1,0,-1,1
26097389370,-3,-1,-1,1,0,-1,0,-1
26097389370,-5,-5,-7,-5,-1,-2,-2,-2
26097398282,0,1,1,-2,0,-3,-1,-3
26097398282,-5,-5,-7,-4,-4,-3,-1,-3
26097411870,0,1,0,-5,-6,-3,-2,1
26097411870,1,3,-3,3,3,1,1,0
26097420779,0,-2,2,-1,-1,-1,0,-1
26097420779,-5,9,6,1,-1,-1,-1,-1
26097434318,-2,-4,2,-4,-4,1,0,-1
26097434318,2,-6,0,-2,-2,-2,-2,1
26097443285,1,7,0,-2,0,-2,0,-1
26097443285,1,-1,1,0,-4,-4,-2,-1
26097449439,-4,-6,-4,1,1,1,1,-1
26097449439,-4,-4,-5,-4,-1,0,-1,-1
26097458273,-1,1,5,6,1,-2,-1,0
26097458273,3,-2,-3,-3,-1,0,-1,-3
26097471904,0,0,-3,2,3,0,0,-1
26097471904,-1,-3,-3,-1,-3,-1,0,0
26097480783,-4,-2,0,-2,-2,-2,0,-2
26097480783,-3,-5,-1,-1,0,1,0,1
26097494302,-1,-5,-1,-1,1,-1,-1,0
26097494302,-2,9,0,0,2,-1,-1,0
26097503996,1,-8,-4,0,0,0,-1,-2
26097503996,1,3,0,2,0,0,0,-1
26097509381,-1,-4,-4,-3,-2,-1,-2,-3
26097509381,1,9,4,0,-2,-1,1,0
26097518277,-2,-6,-3,-2,-3,-1,-2,-2
26097518277,-2,4,1,-2,0,-1,-1,0
26097531959,2,1,-5,-1,-1,1,-1,-2
26097531959,2,-2,-4,-1,-3,0,-3,-2
26097540825,2,3,1,-2,-3,0,0,1
26097540825,0,-5,-3,0,0,-1,-3,0
26097555133,0,1,-2,-1,-1,-2,-2,-2
26097555133,-5,-3,2,2,2,1,0,-1
26097561792,2,0,-2,-3,-2,-1,0,1
26097561792,-5,-4,-4,-2,-3,2,0,-3
26097569426,-1,0,-1,1,-1,-1,-2,1
26097569426,0,-1,0,-1,-2,-1,-2,0
26097585801,-3,-6,-5,-2,-2,-2,-3,0
26097585801,0,-5,-2,0,1,0,0,0
26097591989,-5,-18,-3,0,-2,1,0,-1
26097591989,2,10,5,-1,0,0,-1,2
26097600791,0,3,3,-2,-1,-3,-2,-1
26097600791,0,-1,3,1,1,1,-1,-1
26097615117,-3,-5,-4,-1,0,-3,-1,-2
26097615117,-3,-6,-3,-2,-3,-3,-1,-2
26097621902,-2,-2,-2,-1,-2,-2,1,-1
26097621902,1,1,-3,0,1,-2,0,0
26097629436,1,5,-1,-1,0,-2,-1,2
26097629436,-1,-3,-2,-3,-1,-2,1,-2
26097638324,0,2,2,5,1,0,-2,-2
26097638324,0,1,-3,-5,-4,-3,-2,-1
26097651851,-2,2,-1,-3,-1,-2,-2,0
26097651851,0,-4,-2,-1,0,-1,0,-2
26097660797,-2,-12,-7,-2,2,1,-1,-2
26097660797,-1,1,2,1,0,1,2,-1
26097675133,1,-4,-1,0,-2,0,0,-2
26097675133,2,7,1,0,-3,0,-1,0
26097681873,-3,-4,-3,-1,-1,-1,-1,-2
26097681873,-1,-3,-4,-3,-2,-5,0,0
26097698684,2,4,-1,-3,-3,-3,2,0
26097698684,-4,-13,-4,0,3,0,1,-1
26097704341,3,3,0,0,-1,0,1,0
26097704341,-2,2,-7,-1,0,-1,-3,-2
26097711779,1,19,17,-1,1,0,0,-1
26097711779,-2,1,-1,1,-2,-4,-2,0
26097720801,-3,2,2,-2,0,0,-3,-3
26097720801,0,-6,-9,-1,-3,-3,-2,-1
26097735094,-1,0,-4,1,-2,1,-1,0
26097735094,0,-3,-5,-3,0,1,-3,-1
26097741986,2,3,-2,-2,-1,-4,0,1
26097741986,-3,-5,9,-4,-2,-2,-1,-2
26097758387,-3,-4,-9,0,0,0,-2,-1
26097758387,-1,1,-1,0,-1,-2,0,-1
26097759723,-2,-7,-7,-1,-3,-1,-1,-2
26097759723,-1,-3,-3,0,-1,0,-1,-2
26097771788,1,2,3,-2,-2,-2,1,-1
26097771788,-1,-3,-8,-8,-1,-2,-2,-2
26097786860,0,4,-3,-1,2,-1,-2,0
26097786860,2,7,10,3,2,1,1,1
26097794986,2,-12,-11,1,-3,-1,1,-1
26097794986,-1,-11,0,1,-3,-1,2,-3
26097801857,-1,11,10,-4,-6,-4,0,0
26097801857,2,10,-4,-4,-2,-2,0,-2
26097818235,1,1,2,1,2,0,-2,-1
26097818235,0,-5,-10,-6,-1,-2,0,0
26097819730,-5,-12,1,1,-3,-2,-2,-2
26097819730,-1,-10,0,4,0,-2,0,0
26097831911,-4,5,4,0,-1,0,-1,-1
26097831911,-2,8,-2,1,-3,-3,-2,-1
26097840758,1,14,0,-1,0,-2,-1,0
26097840758,0,3,-4,-5,-4,-3,-2,2
26097863216,-4,-2,0,1,1,-1,1,0
26097863216,3,6,5,-1,-1,0,-3,2
26097864739,-1,-5,-2,-1,1,2,-1,1
26097864739,-2,-4,-1,-2,-1,2,-2,0
26097878153,-3,3,-4,0,1,1,-2,-3
26097878153,4,13,11,4,-2,-3,-1,0
26097879742,-1,-4,-5,2,0,-1,0,-1
26097879742,-1,-1,3,-2,1,1,1,0
26097891910,-1,-7,-7,-5,-4,-3,-1,0
26097891910,-5,-12,-9,-8,-3,-2,-1,-2
26097900758,0,-3,-7,0,-3,-3,0,-1
26097900758,0,-4,17,10,4,-1,1,-1
26097915051,0,1,-1,-2,-2,-4,-2,-3
26097915051,0,1,1,-4,-2,-1,-2,-1
26097921929,-1,-4,-5,-4,1,2,-1,-2
26097921929,-6,-8,-13,-5,-3,-1,-4,-2
26097938222,-1,-8,1,-2,-4,-4,-5,-2
26097938222,-2,12,4,4,1,0,-1,-1
26097939717,-1,-3,-1,-2,1,-1,0,-1
26097939717,-1,-1,-2,-1,-1,-1,-1,-1
26097951795,-2,-5,3,-1,0,0,-1,-1
26097951795,-3,-7,-4,2,0,4,-1,0
26097960881,-2,-5,2,2,-2,-2,-2,-2
26097960881,2,5,4,-1,-4,-1,-1,-1
26097975103,-1,3,-6,-3,-3,-1,-1,1
26097975103,-3,-11,-2,1,0,1,1,-1
26097981881,-1,3,2,2,0,-1,0,0
26097981881,0,6,-5,-3,-3,-3,-1,-1
26097998261,-1,1,-3,-1,-3,0,0,0
26097998261,-1,-6,3,3,2,0,0,-2
26097999735,1,1,2,0,-1,2,-2,0
26097999735,-4,-6,-4,1,1,1,0,-1
26098011835,-2,-8,-1,-1,-1,0,0,1
26098011835,1,1,3,1,3,-1,0,-1
26098020774,-2,1,0,-3,-1,-2,1,-1
26098020774,-1,1,1,-2,-2,-3,-3,-3
26098035073,1,5,2,-1,-2,-1,-1,-1
26098035073,2,-2,0,8,6,5,-1,1
26098041921,1,2,-2,-4,0,1,-3,-2
26098041921,-1,-6,-9,-5,-2,0,1,-1
26098057310,3,9,9,4,1,0,1,1
26098057310,-5,-13,-4,-4,-5,-5,0,-2
26098065738,0,2,-1,0,-1,-2,-1,1
26098065738,2,6,-2,-1,1,0,1,0
26098071909,-3,-12,-11,-6,-4,-2,-2,-6
26098071909,-2,2,-2,-2,-3,1,1,1
26098080744,-2,1,-5,0,-3,-2,1,-2
26098080744,0,4,12,0,1,1,2,0
26098094956,-2,-2,-4,-1,3,0,2,-1
26098094956,-1,-4,0,-4,-3,-2,-3,-1
26098101893,-1,-5,-3,-1,0,-1,-2,0
26098101893,0,-3,-5,0,0,1,-2,1
26098118197,-2,-3,1,2,0,0,-1,-2
26098118197,-1,9,-1,-3,-5,-3,-1,-3
26098119774,0,-7,-1,0,-2,-2,-1,-1
26098119774,0,4,-3,-1,-2,0,-1,-1
26098131883,2,5,0,2,3,-1,-1,1
26098131883,-3,-14,-8,-5,-3,-3,-1,-3
26098140831,-2,13,10,-1,-1,-1,2,1
26098140831,4,3,-1,-1,-2,-3,-1,0
26098155048,-4,-6,-1,3,1,-1,0,-1
26098155048,2,8,-1,-2,0,-1,-1,-1
26098161771,-2,-8,-4,-4,-2,-2,-1,-1
26098161771,-1,3,1,0,-1,-2,-1,-3
26098178104,-5,-16,-11,-7,-2,-2,-2,-2
26098178104,-1,16,8,2,0,-1,0,0
26098179734,2,7,3,2,2,0,2,-1
26098179734,-5,-6,-4,-2,-2,-1,-3,-3
26098191889,0,-1,2,0,0,1,-3,-2
26098191889,-3,-8,-5,-3,-3,0,-2,-1
26098200767,-2,-7,-2,-3,-1,-1,-3,-1
26098200767,-2,-3,-1,2,1,-1,-3,0
26098215059,-1,6,2,1,-1,1,-4,-1
26098215059,2,3,5,1,1,1,-1,0
26098221875,-1,3,-2,0,0,-1,-1,-1
26098221875,-1,-9,-8,-2,-2,-3,-1,-1
26098238110,1,7,3,-2,-4,-2,0,0
26098238110,-2,-19,-7,-1,1,-1,-1,-1
26098239715,-3,7,3,0,-3,-4,-2,-2
26098239715,-1,2,-1,2,2,1,0,0
26098251800,0,4,0,0,2,-3,1,-1
26098251800,1,-4,-6,-3,-2,-4,-1,0
26098260792,-1,-11,4,2,-1,-2,0,0
26098260792,-1,-7,-5,-4,-2,-3,-1,-3
26098275110,0,4,1,2,0,-2,2,-2
26098275110,-2,0,0,-2,-2,-3,0,-1
26098281866,0,-5,-3,-2,-3,2,2,-2
26098281866,2,3,0,-2,-1,1,1,-1
26098298258,-2,-9,2,1,-1,-2,-1,-1
26098298258,-5,1,-1,2,4,1,0,-4
26098299742,4,5,3,-1,-2,-1,-3,0
26098299742,-13,-7,-2,-2,-3,-2,-1,-6
26098311741,2,2,2,-2,2,4,1,2
26098311741,7,0,1,-4,-3,-1,0,4
26098320805,1,-9,-8,3,1,0,0,1
26098320805,7,13,7,1,-1,0,-2,-2
26098334794,-3,0,-3,0,-1,0,-3,-4
26098334794,0,5,0,-1,-2,-1,-3,-3
26098343269,1,-3,-4,-3,-1,2,1,0
26098343269,1,-6,-4,1,-1,-1,-1,1
26098358231,-2,0,0,-2,-3,-5,-1,-1
26098358231,-1,2,2,1,0,-3,0,1
26098359701,-7,-4,-7,-5,-1,-3,-2,-3
26098359701,-3,-4,6,4,1,-1,-2,-2
26098371873,-1,-7,-9,-5,-3,-4,-1,1
26098371873,-3,19,9,2,3,0,0,-4
26098380744,-1,-4,-7,-4,-4,-2,-1,-1
26098380744,0,0,-4,-4,-4,-4,-2,0
26098395011,1,-6,-5,0,4,2,1,-3
26098395011,4,-4,0,1,-4,-3,-1,1
26098401966,1,-2,0,-4,-2,-1,-2,-1
26098401966,0,-10,-8,-2,0,0,1,-1
26098418273,0,12,10,6,4,0,0,2
26098418273,-7,-21,-2,5,3,1,-2,-3
26098419737,7,26,2,-3,-2,-3,-2,-1
26098419737,-12,-14,-2,1,0,0,0,1
26098431839,1,2,-3,-9,-5,-5,-2,-2
26098431839,-3,2,-2,-3,-1,-2,-1,-2
26098440776,-4,-10,1,1,2,-1,-3,-1
26098440776,0,0,-4,-4,-2,0,-3,-2
26098455061,-2,0,0,1,2,1,-1,-1
26098455061,0,-4,-2,-2,-3,-1,-3,-2
26098461740,0,-7,-1,0,-3,0,-2,-3
26098461740,2,5,-2,-3,-1,0,0,1
26098477534,1,-4,0,1,-1,2,-1,1
26098477534,3,5,0,-2,-2,-2,-1,-1
26098484324,-1,-4,-2,0,-1,-1,-3,0
26098484324,1,3,1,2,1,3,2,-1
26098491878,1,-2,0,-3,-3,-2,-3,-1
26098491878,-1,-10,-2,0,2,0,-1,-1
26098500770,-1,9,0,0,0,-1,-1,0
26098500770,0,3,4,-3,-2,-3,-4,-1
26098515021,-2,-4,-12,-12,-6,-3,-1,-2
26098515021,0,-4,-4,5,6,2,0,-1
26098521818,0,1,10,6,2,3,1,1
26098521818,3,9,-2,-1,0,0,2,-1
26098537684,-1,2,-1,-5,-6,-2,0,0
26098537684,0,-6,-12,-8,-7,-5,-1,0
26098544385,-2,-8,-6,-1,0,-1,1,-1
26098544385,-1,-4,-1,1,-1,-2,0,-1
26098551923,-3,-4,-2,0,-1,0,1,0
26098551923,-1,5,1,-3,-4,-1,0,-1
26098560777,-6,-15,-10,-4,-3,-3,-1,-2
26098560777,2,21,13,0,-1,1,-1,1
26098574956,1,-1,1,3,1,1,0,0
26098574956,-3,-8,-2,-1,-1,-1,0,-1
26098581834,-4,10,5,2,-1,-3,-2,-1
26098581834,-1,-10,-7,-4,-4,-3,-1,0
26098597487,-1,2,2,4,3,0,-1,-3
26098597487,0,2,1,-1,0,1,-1,1
26098604378,-6,-7,-4,1,2,1,1,-3
26098604378,-1,-3,1,-2,-1,-4,-2,0
26098620779,-4,-30,-7,1,0,-2,-1,-1
26098620779,3,38,1,-6,-4,-1,0,-2
26098622256,-3,9,13,11,3,1,-1,-1
26098622256,1,2,-3,0,-1,0,-2,-3
26098635031,0,1,-2,-5,-1,-2,0,1
26098635031,-2,-15,-6,-6,-6,-5,-1,-2
26098641859,5,7,-1,-3,-1,0,-1,1
26098641859,-5,-9,-2,4,3,0,0,-1
26098657664,0,5,2,-1,-1,-1,-4,-2
26098657664,-1,-9,-5,-1,-3,0,-2,-2
26098664372,3,9,-2,-6,-7,-3,-1,1
26098664372,-2,-7,-1,2,0,1,1,-1
26098680691,0,7,1,-2,-3,-1,0,0
26098680691,-1,-5,0,-1,-1,-3,-1,1
26098682281,0,-5,-3,-5,-2,-1,-2,-2
26098682281,-1,-6,-3,-2,-1,-2,-2,1
26098695416,1,11,4,2,1,0,-1,1
26098695416,-2,0,0,0,0,1,0,-2
26098701746,-4,-3,-2,-5,-1,0,-1,0
26098701746,-3,-18,-7,-4,-2,-2,-2,-2
26098717655,0,1,7,0,0,-2,-2,-1
26098717655,1,5,-2,1,1,-1,-1,0
26098724397,0,7,1,3,1,0,2,-1
26098724397,-3,1,-1,-1,-3,-3,0,-1
26098740748,-4,-5,-5,2,0,0,1,-2
26098740748,-3,-2,-2,-2,-1,-2,0,-2
26098742259,-1,-12,-3,-2,3,1,0,0
26098742259,0,-1,-3,-2,-1,0,-1,-1
26098755074,1,-14,-2,-5,-1,-1,-1,2
26098755074,3,13,10,2,-1,-2,0,0
26098761806,-2,1,-4,-1,-1,-1,-1,-2
26098761806,-1,2,-1,1,-1,0,-1,-1
26098777491,0,6,-2,-3,1,1,-2,-2
26098777491,-1,-8,-4,-2,-2,0,-1,0
26098784406,1,-4,0,-3,-5,-2,0,0
26098784406,-1,4,1,-2,-1,-1,-3,0
26098800724,1,4,-5,1,-2,-3,1,1
26098800724,0,-5,5,5,4,2,0,-2
26098802237,1,-6,-4,-2,-1,-3,-1,-1
26098802237,2,5,2,-4,-1,-5,-2,-1
26098815054,-4,0,-2,0,-1,-1,-2,-3
26098815054,0,-9,-1,-1,-1,1,-1,0
26098821848,-3,-16,-3,-1,1,0,-1,-1
26098821848,2,-5,-4,-2,-2,1,-1,2
26098837581,-1,-4,1,0,-1,1,-2,0
26098837581,-3,-5,-5,-3,-1,1,-2,-1
26098844373,-1,10,4,-1,-2,-1,-1,-3
26098844373,-3,-1,-3,0,2,2,0,-5
26098860617,4,24,6,2,0,2,1,2
26098860617,-4,-2,-5,-3,-2,-1,-1,-2
26098862221,0,5,-1,-1,-2,-1,-1,-2
26098862221,-6,-14,-9,-3,-4,-3,-2,-3
26098875100,2,3,7,0,-1,0,-2,0
26098875100,0,1,0,3,1,0,-2,2
26098881917,-1,-3,-6,-3,-1,-2,-1,1
26098881917,2,8,2,2,1,2,2,1
26098897631,-5,-12,-8,-3,-2,1,-2,-3
26098897631,3,3,-2,-4,-3,0,-2,1
26098904355,-1,1,3,3,0,2,-1,0
26098904355,-2,-16,-4,-1,-1,-2,0,-1
26098920756,-2,0,-1,-2,-1,-3,1,-4
26098920756,0,-6,0,-1,-2,-3,-1,-6
26098922219,-1,-2,-2,-2,-2,-4,-2,-2
26098922219,-1,2,0,-1,-3,-4,-2,-1
26098935047,-3,-8,-2,0,-2,-1,-2,2
26098935047,-2,5,0,-2,-1,-2,0,0
26098941842,1,-6,-4,-1,-2,1,1,1
26098941842,-1,4,3,0,0,1,1,-2
26098957524,-1,-1,-1,-2,-1,-2,0,0
26098957524,-2,-6,-4,-1,-2,-2,0,-1
26098964316,0,-2,-3,-1,-1,-2,0,1
26098964316,2,4,-2,-2,-3,-3,-2,1
26098980670,-1,2,-2,-1,1,-1,-2,-1
26098980670,-4,-2,1,-2,-3,-3,-3,0
26098982211,-4,-9,-1,0,0,1,0,-3
26098982211,-1,2,3,-2,-1,-1,-1,0
26098994965,-2,-6,-1,-3,-2,-3,0,0
26098994965,3,12,7,2,-1,-1,-1,-1
26099001823,-2,0,2,2,0,-2,-3,-1
26099001823,0,-1,-3,-1,-2,0,-2,0
26099017565,0,1,-3,-1,-2,0,0,-1
26099017565,-2,-8,-6,-2,-2,-2,2,-1
26099024448,-1,2,-1,-1,0,-1,0,0
26099024448,2,4,1,-1,-2,-1,-2,1
26099040698,-1,-7,-5,-2,-2,0,-1,-2
26099040698,-2,3,-1,-2,-1,-1,0,-2
26099042270,2,2,-1,0,0,0,1,-2
26099042270,-2,0,-1,1,2,2,2,0
26099055075,-6,-3,1,0,0,-1,-3,-1
26099055075,0,-3,-2,0,0,-1,-1,-1
26099061762,-1,-8,-4,-5,-3,-2,-1,-1
26099061762,-4,-5,-7,-5,-2,-2,-1,-2
26099077473,4,12,11,3,0,0,1,2
26099077473,1,2,2,1,1,1,-2,1
26099084453,-3,-4,-1,-2,-1,-1,-3,0
26099084453,-2,-6,-3,-1,0,1,-1,-1
26099100722,-2,-3,-5,-2,-2,-1,1,-1
26099100722,-2,-4,-3,-1,-1,-1,0,0
26099102216,0,1,0,0,0,1,1,-2
26099102216,-2,4,0,-3,-3,-4,-3,-2
26099114365,-3,-19,-6,-3,-3,-5,-4,-3
26099114365,-1,11,7,6,5,4,1,1
26099123245,-3,0,0,2,2,0,-1,0
26099123245,1,2,1,1,-1,-4,-1,-1
26099137576,-2,-6,-7,-2,-1,-4,-2,-1
26099137576,-4,-13,-8,-6,-4,-5,-1,-2
26099144294,-1,3,-3,0,-1,1,-1,-3
26099144294,1,10,9,4,2,2,0,1
26099160644,2,6,0,-2,1,1,0,0
26099160644,-4,-9,-6,1,0,2,0,-2
26099162254,1,1,-1,-3,-1,-2,0,0
26099162254,1,7,4,-1,-4,1,-1,0
26099174254,-2,1,0,1,-2,-1,1,0
26099174254,3,1,0,-2,-2,-2,0,1
26099183248,-2,-9,-5,-2,-4,-1,-2,-2
26099183248,0,-3,-6,-3,-1,0,0,-1
26099197399,-4,-7,1,-2,0,1,0,-1
26099197399,0,-1,2,3,1,0,-1,-1
26099204209,-5,3,0,1,3,1,0,-1
26099204209,0,2,0,-3,-1,0,-1,0
26099220548,-1,3,1,-1,-1,-3,0,-1
26099220548,-2,-4,1,3,2,0,-2,-1
26099222167,0,0,0,-2,-1,-2,-1,0
26099222167,-3,-3,-3,-1,0,0,-2,0
26099234656,-4,-6,-3,-2,0,0,-1,-2
26099234656,0,5,-1,-3,-2,-2,-1,-2
26099250778,-1,2,-1,0,0,0,-1,0
26099250778,-2,-3,-3,-2,-3,-1,0,-2
26099257379,-1,0,0,0,1,2,-1,-1
26099257379,0,2,-1,-4,-2,-1,-1,0
26099264247,0,-2,2,-1,-2,-1,-3,1
26099264247,-2,4,3,3,2,1,0,-3
26099280566,0,-4,-2,2,0,0,0,0
26099280566,-2,-7,-6,-4,-3,-2,-2,-3
26099282196,1,2,-1,-1,-3,-2,-1,-1
26099282196,0,-4,1,-1,-4,-3,1,-1
26099302441,0,4,0,-1,-1,-1,-1,-2
26099302441,-1,-2,-3,-2,-1,1,0,0
26099303149,-1,-8,-4,-3,-3,-2,-3,1
26099303149,-3,-17,-3,-1,-1,-1,-2,-4
26099318272,3,12,2,0,1,-1,-1,1
26099318272,-1,-5,1,-2,-1,-1,-1,-1
26099324379,0,2,0,0,-1,0,-2,-1
26099324379,-1,-4,-3,-2,-1,-2,-2,-1
26099340111,-2,-6,-4,-4,-4,-3,-1,-1
26099340111,-3,-3,-2,-3,-3,-2,0,-3
26099340702,-1,-2,-2,0,-1,-1,-1,-2
26099340702,-1,2,-2,-4,-2,-1,-2,1
26099362543,1,4,4,5,-1,-1,-3,0
26099362543,-1,-6,-3,4,5,3,1,1
26099363174,-1,4,-2,-5,-2,-3,-1,0
26099363174,-1,-6,-3,-4,-3,-1,-3,-1
26099378319,1,20,9,5,2,-1,-1,0
26099378319,-5,-8,-2,-4,-5,-1,-3,0
26099384351,-1,1,-3,-1,-1,-2,-1,-3
26099384351,0,-2,-3,-1,-1,2,-1,-1
26099399292,-3,-9,-6,-7,-5,-2,-4,-3
26099399292,2,8,1,4,-1,0,-2,0
26099406834,-2,-7,0,-2,0,-1,-1,1
26099406834,-2,-3,-3,-3,-2,-5,0,-2
26099422552,-3,-12,-4,-1,-2,-1,1,-1
26099422552,3,10,5,0,-2,-2,-2,-1
26099423217,-1,-4,-5,-10,-8,-4,-1,-1
26099423217,-3,-3,-3,6,1,-3,0,-2
26099438270,4,13,9,18,14,6,3,1
26099438270,-3,-2,-3,-8,-5,-2,-1,-3
26099444266,-2,-8,5,8,5,2,1,1
26099444266,2,15,3,-7,-6,-4,-2,1
26099459372,-2,-4,-2,-1,1,0,-1,-3
26099459372,-2,-11,-5,0,-2,-2,1,0
26099466878,1,4,1,-2,-2,-2,-1,-2
26099466878,-4,-12,-4,-2,-2,0,-1,-2
26099482548,-2,-12,-8,-3,-5,-3,0,-1
26099482548,1,10,4,0,0,-2,-2,1
26099483244,1,1,1,0,-1,-1,0,-1
26099483244,1,3,1,2,2,-2,-2,0
26099498262,-1,-3,-4,-6,-6,-4,-3,-1
26099498262,-3,-7,-2,0,1,-1,0,-1
26099504418,-5,-22,-4,3,0,-1,-5,0
26099504418,1,18,7,0,1,-2,-1,1
26099519337,-3,0,-4,-12,-6,-3,-2,-1
26099519337,-2,-3,-3,2,-4,0,2,0
26099526776,1,9,0,2,1,1,2,0
26099526776,-3,-4,1,5,4,1,3,0
26099542487,-4,3,2,-5,-6,0,-2,-1
26099542487,-4,5,-1,-1,1,0,1,-3
26099543164,3,2,-3,-3,-2,-1,0,-2
26099543164,-1,-7,-5,-2,-2,-1,0,-3
26099558216,1,-3,-2,-5,-2,-2,-1,1
26099558216,0,-5,0,-1,0,-3,0,-1
26099564307,-2,-2,-1,-3,-2,-1,1,-2
26099564307,1,-6,-4,1,2,1,0,-2
26099579223,1,2,0,1,-2,-1,0,-3
26099579223,2,4,12,8,1,-2,-2,-1
26099586825,-3,-7,-6,-6,-3,-2,0,-2
26099586825,1,0,4,6,3,2,1,0
26099602427,0,-2,-3,-4,-2,-1,1,0
26099602427,-1,3,-7,-7,-1,-4,-3,0
26099603237,-3,-6,1,0,-2,-4,-1,1
26099603237,0,9,8,0,-1,-2,-3,-1
26099618249,-1,-1,-3,-1,-3,-2,-1,0
26099618249,-2,-9,-7,-4,0,2,-1,-1
26099624236,1,9,4,6,2,2,-1,1
26099624236,-1,-9,-7,-6,-2,1,0,-1
26099639348,1,-1,4,-1,0,-1,-1,-1
26099639348,0,-10,-13,-5,-3,-1,-3,-2
26099646735,0,10,10,0,3,1,0,-1
26099646735,-4,-9,-6,-2,-4,0,-2,0
26099662443,-1,5,3,4,4,-1,0,0
26099662443,-1,-6,-8,-3,-3,-4,-1,-2
26099663158,1,4,6,0,-1,1,0,-1
26099663158,-2,-2,-2,1,-1,1,-1,0
26099678226,-1,-5,-4,-4,-2,-1,-1,0
26099678226,-1,2,-3,-3,-4,-3,0,1
26099684279,-1,-8,-5,11,3,1,-1,-1
26099684279,2,23,14,1,3,0,-1,1
26099699374,1,2,-1,-1,0,0,-2,-3
26099699374,0,3,4,0,-1,0,-1,0
26099706960,1,-2,-5,-9,-7,-5,-2,0
26099706960,-2,-12,-8,-3,-3,-2,-3,-1
26099722381,-2,-13,-6,1,0,2,-1,-1
26099722381,-1,8,6,0,0,1,0,1
26099723158,-2,-2,-1,-3,-3,0,0,-2
26099723158,0,-2,-4,-5,-4,-2,-1,-1
26099738234,0,-5,-1,0,2,-2,0,1
26099738234,0,1,0,1,4,2,-1,-1
26099744211,-1,0,0,2,0,0,-2,-1
26099744211,1,6,-1,-6,-6,-6,-1,-2
26099759230,-3,-7,-3,-2,-8,-3,1,-3
26099759230,-1,-7,-2,-2,1,1,0,-2
26099766738,0,8,-1,4,6,3,0,-2
26099766738,-1,2,-5,-1,-2,-1,-2,-1
26099782420,1,6,21,4,-2,0,0,0
26099782420,0,7,-5,-6,-6,-4,-2,-1
26099783209,-5,-6,-6,-7,-4,-3,-2,-2
26099783209,-1,-14,-6,-3,-1,-1,0,0
26099806369,-3,-5,-6,2,3,2,-3,-2
26099806369,3,1,9,-3,-4,0,0,-2
26099807190,-3,-3,-15,-5,0,-1,-2,0
26099807190,-2,4,14,7,-1,-1,0,-2
26099819242,-1,2,-6,1,1,-1,0,-1
26099819242,-2,0,1,2,2,1,-1,-1
26099826707,0,-3,-3,-2,-4,-3,0,0
26099826707,-2,0,-4,-2,-1,-1,0,-2
26099842417,-1,-2,-6,-4,1,1,0,-1
26099842417,-1,-13,-3,2,-2,-1,-3,-1
26099843191,2,1,12,2,1,1,-1,-1
26099843191,1,-2,-1,-1,1,-1,1,0
26099858227,-2,-1,-4,-4,-3,-1,1,0
26099858227,-1,-10,-19,-7,-7,-3,-2,-1
26099864253,-1,-1,16,9,5,2,-1,-3
26099864253,2,6,13,4,0,1,0,-2
26099879278,-1,4,-3,-4,-1,-3,-2,-2
26099879278,-2,-9,-9,1,1,1,1,1
26099886762,2,2,-1,-4,-4,-2,0,0
26099886762,1,0,0,2,2,0,-1,-1
26099902406,-3,-5,-16,-9,-6,-4,-4,-1
26099902406,-4,8,18,8,3,1,0,0
26099903187,0,-6,-2,-5,-4,-1,0,0
26099903187,-3,-14,-11,-3,-2,-1,0,-1
26099918203,2,1,5,-2,-4,-1,-1,1
26099918203,0,1,-7,-6,-6,-4,-4,-2
26099924267,-3,-4,-7,-7,-3,-4,-2,-3
26099924267,0,-3,3,5,3,1,-1,-1
26099939322,2,10,5,5,3,0,0,-1
26099939322,2,11,7,-2,-3,-4,1,1
26099946747,-2,1,2,3,-2,-2,-3,-1
26099946747,-4,-5,-10,-4,-1,1,-2,-3
26099962364,-1,-4,-4,-3,-2,0,-2,-1
26099962364,0,-4,-2,-2,-1,0,-1,1
26099963154,0,4,-1,-4,-3,-2,-2,0
26099963154,-6,-21,-18,-7,0,0,-1,0
26099978188,2,6,15,10,4,2,1,1
26099978188,-4,5,4,-3,-1,-5,-1,-4
26099984250,1,-2,-5,0,-2,-2,-1,0
26099984250,-2,1,1,-2,0,2,-2,-2
26099999213,-2,-16,-18,-10,-6,-3,-2,-1
26099999213,-5,-2,-1,3,4,3,4,7
26100006680,11,15,6,4,0,-2,-4,-2
26100006680,2,14,21,4,-2,-2,-2,1
26100022369,-4,-12,-17,-8,-3,-3,-2,-6
26100022369,-2,10,10,-3,-2,-1,-2,2
26100023162,-5,-8,-12,-2,2,1,1,-2
26100023162,0,-6,4,-2,-3,-3,0,2
26100038230,2,11,-2,-2,-4,-5,0,2
26100038230,0,-10,-1,-4,-3,-3,-3,-4
26100044210,-7,-7,-12,-6,-1,3,1,-2
26100044210,5,6,-12,0,4,2,2,2
26100059207,0,7,35,18,0,-3,-2,-5
26100059207,2,-1,-9,-5,-5,-4,-4,-3
26100066929,-4,0,10,-1,0,1,0,1
26100066929,-4,-13,-12,-10,-7,0,-2,0
26100082539,-2,-6,-17,-5,-1,0,-1,1
26100082539,1,-2,9,9,5,4,-1,-3
26100083194,5,13,-8,-10,-5,-2,0,1
26100083194,-1,4,12,8,4,0,-1,-2
26100106386,-3,-2,-19,-4,-1,-1,-1,-2
26100106386,-1,-16,-6,4,4,6,6,7
26100107172,6,8,17,1,-4,-2,-2,3
26100107172,-2,3,-12,-2,-3,-4,-2,-6
26100127471,3,-2,14,0,2,0,0,9
26100127471,-7,0,-11,-4,-1,-1,-1,-4
26100128160,-8,-11,-7,-6,-1,-2,0,-3
26100128160,3,4,3,5,0,-1,1,1
26100142468,0,1,19,4,4,2,1,0
26100142468,-3,-12,-17,-9,-3,-2,0,-5
26100143170,-5,-6,1,3,1,1,-1,0
26100143170,7,8,3,1,-1,0,-5,-3
26100158242,-5,-14,-18,-3,-1,-1,-2,-5
26100158242,2,10,6,-3,-2,-1,0,-1
26100164187,-3,-8,-20,-8,0,0,-1,-2
26100164187,-2,10,40,16,-1,-3,-2,-1
26100180714,-1,3,-5,-4,-1,-1,0,0
26100180714,9,9,11,4,0,0,-3,-1
26100186825,-1,-4,6,8,1,-3,-2,0
26100186825,-10,-17,-36,-13,-4,-3,0,2
26100210085,3,3,12,-5,-5,-2,-3,-5
26100210085,-6,0,-2,3,3,0,-1,-4
26100210701,-1,-2,-21,-6,-1,-1,-1,-8
26100210701,-2,2,28,2,-1,-2,-1,7
26100218214,10,4,-4,-9,-3,-1,-2,0
26100218214,-4,0,12,12,2,2,1,-2
26100224313,-8,-14,-25,-8,-3,2,0,-3
26100224313,1,-1,-13,-10,0,1,-1,-6
26100239347,-5,5,6,17,4,-2,-4,-3
26100239347,2,0,2,0,-2,-3,-2,1
26100246825,-1,-5,-3,-3,-2,-2,-1,1
26100246825,-4,-9,-8,-5,-3,0,0,0
26100262385,0,6,17,1,-4,-2,-1,1
26100262385,-5,-13,0,-2,-5,-5,-6,-3
26100263169,-3,5,-1,1,-5,-5,-3,-1
26100263169,3,2,-12,-8,-4,-1,1,1
26100278180,-2,-9,-17,-9,0,1,0,0
26100278180,-2,-1,18,9,3,0,-2,-1
26100284208,4,7,32,13,0,-3,0,-3
26100284208,-5,-11,-50,-13,-5,-1,0,0
26100299236,1,-7,-13,-8,-2,-3,-1,-1
26100299236,8,25,45,10,-1,-3,-2,-1
26100306809,-1,-11,-33,-6,2,0,0,2
26100306809,-2,6,-2,7,-1,-4,-4,-3
26100322459,-8,-3,-4,-13,-4,-3,-4,-6
26100322459,-1,-10,-35,-9,-4,0,-1,-9
26100323165,13,6,23,5,-1,-4,-1,13
26100323165,-2,-1,11,3,1,0,0,-3
26100338483,0,-5,-10,-1,-2,3,4,9
26100338483,0,0,-27,-15,0,-6,-7,-6
26100344208,10,13,44,20,-5,-5,-2,3
26100344208,-8,-10,-19,-3,1,5,7,-3
26100359346,4,10,6,4,3,-1,1,-2
26100359346,-5,-2,9,2,4,3,2,3
26100366776,1,6,15,0,2,2,-1,-2
26100366776,1,4,12,-3,-1,-1,-2,2
26100381705,-5,-5,-3,7,0,1,1,-2
26100381705,-5,-18,-42,-16,-6,-5,-3,1
26100389907,-7,-2,-2,0,3,2,0,-4
26100389907,-1,-10,-15,-16,-7,-3,-4,-2
26100396742,0,9,31,23,7,4,1,-1
26100396742,-1,0,-3,-5,-5,-4,-2,-1
26100404279,-9,-13,-39,-20,-3,0,1,-5
26100404279,8,13,17,15,3,-1,2,1
26100419241,-2,-6,-6,-5,-2,-3,-8,-1
26100419241,-2,-7,-2,2,-3,-4,-3,2
26100426771,-3,0,-6,-6,0,4,5,-3
26100426771,0,-7,-5,-4,-1,-1,4,1
26100441820,-3,0,20,-2,-5,-4,-1,-4
26100441820,2,20,34,-1,0,1,-3,-1
26100458183,2,4,25,6,-1,-4,-7,-1
26100458183,-8,-10,3,16,1,1,4,-4
26100459713,12,4,-1,-3,-3,-4,-1,7
26100459713,-4,-6,-6,0,3,3,3,2
26100464323,-4,-6,-10,3,2,-3,-4,0
26100464323,-4,0,4,5,3,-4,-9,-7
26100479238,-1,1,-21,-6,-2,1,2,0
26100479238,-2,-13,-22,-5,-1,2,-2,1
26100486832,-2,8,15,0,-5,-5,-1,-2
26100486832,-3,-8,-35,-23,-4,-1,-3,0
26100501722,-9,-10,-1,4,2,2,0,-4
26100501722,0,1,-6,-10,-5,-5,-5,-3
26100510054,2,-7,-1,-2,-2,-8,-12,4
26100510054,7,11,15,0,2,14,17,8
26100516722,0,3,33,20,1,-1,2,0
26100516722,-3,3,11,9,-2,-3,-5,-5
26100524342,-3,-17,-16,-4,2,3,5,-1
26100524342,-4,-19,-14,-9,-5,-10,-11,-1
26100539300,-3,-14,-22,-11,0,1,-1,1
26100539300,1,-15,-7,1,1,3,3,-1
26100546858,-11,-15,-25,-8,-1,-2,-4,-6
26100546858,6,29,27,16,2,-1,-5,1
26100561952,-3,21,-44,-26,-8,-3,0,-3
26100561952,-1,25,24,15,5,0,0,0
26100569978,-1,7,-43,-18,-7,-2,-1,-1
26100569978,-2,1,44,18,3,-2,-7,-5
26100584948,0,-17,-42,-23,-1,7,12,3
26100584948,4,-7,-29,-5,5,6,6,6
26100585692,4,23,37,13,7,-1,0,-2
26100585692,-5,-23,-22,-10,-4,-2,-1,-2
26100599376,0,-14,-11,-9,-1,0,-1,0
26100599376,1,2,60,16,1,1,4,5
26100606881,-4,-9,4,-2,-2,2,0,-7
26100606881,7,9,1,2,1,-5,-8,-1
26100621825,-4,-5,-7,-7,-1,0,-1,0
26100621825,8,2,-13,1,3,7,19,5
26100630007,3,19,22,6,-4,-4,-4,-2
26100630007,-4,12,4,-6,-5,-2,-2,-2
26100644967,-3,-5,-12,12,0,-4,-8,-4
26100644967,1,-3,-11,-5,-3,-2,-3,0
26100645684,0,-24,-11,-23,-8,-1,2,2
26100645684,-1,-10,-27,-6,-2,-2,-2,-1
26100659324,-2,-5,-5,3,1,-1,-1,1
26100659324,-1,2,5,-3,1,-4,-8,-2
26100666858,-1,0,2,3,5,6,3,1
26100666858,-4,-2,27,-1,-7,0,1,-4
26100681830,4,19,18,-3,-5,-7,-7,-6
26100681830,-1,2,-15,-14,-8,-17,-26,-6
26100690022,-1,4,-5,4,5,15,24,5
26100690022,1,-2,-1,9,5,10,20,5
26100704987,-2,9,25,8,0,-9,-19,-6
26100704987,-2,-16,-27,-18,1,16,31,6
26100705663,-1,-1,22,17,1,-9,-14,-2
26100705663,-15,-17,-82,-50,-17,-22,-26,-14
26100719316,17,13,24,16,7,21,28,17
26100719316,-6,-11,-13,-6,-3,-6,-8,-4
26100726843,1,-7,-12,-8,-4,-2,-4,-2
26100726843,4,1,8,0,4,3,7,2
26100741855,-9,-10,7,1,-2,-9,-13,-7
26100741855,-2,23,-1,-18,-7,-5,-7,-5
26100749985,-2,1,13,11,5,7,7,2
26100749985,-1,5,5,0,-2,-5,-11,3
26100765072,-6,-8,-12,-10,-1,0,-1,1
26100765072,-3,-14,-13,1,-2,-2,-7,-4
26100765670,-2,6,5,10,0,-4,1,-4
26100765670,1,-12,-25,-13,-5,3,5,2
26100779252,-7,-10,-8,-15,-4,-6,-10,-6
26100779252,1,3,11,19,1,5,15,1
26100786839,-1,11,12,1,-1,-4,-8,-6
26100786839,2,9,27,15,2,-1,1,-3
26100801795,-3,2,-14,-7,-6,-6,-7,-6
26100801795,-6,-34,-51,-10,-1,0,-1,-1
26100809991,4,39,18,14,6,1,-1,-3
26100809991,-1,4,-4,-5,-4,-4,-3,0
26100825057,0,5,22,9,-1,-5,-5,-4
26100825057,-2,-16,-28,-22,-9,-8,-6,-3
26100825668,-4,-24,0,-12,-4,-5,-11,1
26100825668,4,2,28,28,9,15,21,6
26100839346,2,3,12,2,1,1,7,1
26100839346,-1,9,17,9,2,1,-3,0
26100846802,-1,5,2,-8,-3,-10,-17,-4
26100846802,-7,-16,-14,9,0,-9,-16,-9
26100861822,1,-6,0,6,10,26,38,11
26100861822,2,19,36,18,6,6,10,2
26100870055,-5,-11,-19,-7,-1,0,-1,1
26100870055,0,5,6,-6,-5,-12,-16,-4
26100885056,-2,-7,-20,-11,-7,-8,-8,-1
26100885056,-2,-6,-2,2,-3,-7,-9,-5
26100885719,-2,-5,-4,-8,-4,1,3,1
26100885719,2,7,58,30,7,2,1,0
26100899324,0,-1,-22,-8,-4,-2,-2,-2
26100899324,-2,-2,21,1,-3,-5,-9,-3
26100906871,1,-7,-27,-12,-7,-3,0,-1
26100906871,2,-2,-4,-4,3,6,6,1
26100921819,-3,-7,-12,-1,-5,-15,-16,-6
26100921819,-7,-30,-36,6,7,10,8,1
26100929988,-2,-7,-33,-8,-6,-1,2,1
26100929988,-3,-5,-38,-18,-4,1,5,1
26100944883,-2,14,27,11,1,-7,-13,-5
26100944883,1,11,6,-3,-6,-3,2,-2
26100945663,-3,-6,-6,1,-1,-2,-1,-1
26100945663,2,14,10,-2,-1,4,4,2
26100959293,-2,-10,-32,-12,-4,-8,-11,-4
26100959293,3,17,25,7,3,3,6,4
26100966861,0,1,12,7,1,2,3,-1
26100966861,2,-3,5,-11,-2,-7,-7,-2
26100981823,1,3,10,5,1,-1,-2,0
26100981823,-2,-3,24,8,2,-2,-2,-3
26100990085,0,2,4,3,-2,-1,2,0
26100990085,4,23,25,-4,-4,-1,0,0
26101005023,-1,6,11,9,4,4,4,0
26101005023,-2,1,-39,-30,-8,-2,-2,0
26101005676,0,22,66,29,7,-3,-3,-3
26101005676,-3,-15,-29,-4,-2,-4,-8,-2
26101019326,-3,-3,18,-4,-7,-9,-8,0
26101019326,3,12,11,1,0,9,14,4
26101026801,0,-20,-23,0,2,7,12,1
26101026801,-5,-12,-7,2,1,0,0,0
26101041851,-1,-10,10,1,2,-1,1,0
26101041851,-3,-8,0,-1,-3,-8,-14,-4
26101050052,2,-2,10,-4,-2,-2,-2,0
26101050052,-1,12,44,14,3,1,3,-2
26101065044,-2,-12,-28,-13,-2,2,4,-4
26101065044,3,12,14,13,8,3,-1,0
26101065596,-3,-8,-21,-12,-5,-4,-2,-1
26101065596,0,14,-10,-12,-1,-5,-10,-2
26101079322,2,-2,0,19,5,6,7,1
26101079322,1,14,0,-3,-3,-9,-11,-3
26101086858,-3,-2,-3,4,-6,-9,-15,-5
26101086858,0,-8,3,-2,0,0,3,1
26101101777,-1,-1,-19,-9,1,4,7,1
26101101777,2,-22,5,9,2,6,8,3
26101117553,-2,-6,-2,-6,1,1,2,-2
26101117553,0,-9,3,19,3,2,-3,2
26101125084,-2,9,21,12,-1,-1,-4,-1
26101125084,-4,1,-9,-10,-7,-12,-9,-3
26101125687,2,-2,-28,-17,-6,0,-6,2
26101125687,-4,-4,-33,-10,-3,4,11,-2
26101139363,0,5,11,-2,-1,-6,-9,-3
26101139363,-1,6,9,5,-2,5,7,1
26101146748,0,-6,-14,-11,-4,1,5,1
26101146748,-4,-8,-10,-9,-3,-7,-8,-5
26101161760,0,0,6,1,-2,-1,-5,-1
26101161760,-2,-6,-13,-9,-2,0,-1,-2
26101169976,-3,0,-28,-15,-1,2,5,0
26101169976,0,8,22,6,-1,0,1,1
26101185153,1,18,19,1,-1,-7,-10,-2
26101185153,-2,-3,12,10,2,-4,-5,-2
26101185707,-3,3,25,16,3,-1,1,-3
26101185707,1,-1,-5,2,5,1,0,-1
26101199168,-4,-17,-21,-9,-4,1,5,0
26101199168,1,4,-17,-13,-3,-2,-4,-3
26101206898,0,10,23,19,3,2,2,-1
26101206898,-2,-3,1,-3,1,-1,-5,0
26101221794,1,-2,-8,-6,-3,-3,-2,-1
26101221794,-4,-3,0,-4,-2,-5,-3,-2
26101229954,-4,-11,-19,-14,-6,-4,-5,2
26101229954,4,3,-3,-4,-3,3,4,2
26101244882,-1,-2,0,1,5,3,0,-2
26101244882,1,0,-4,-2,0,5,13,2
26101245810,-3,-3,-5,0,0,-5,-14,-5
26101245810,-1,-3,-14,-6,0,3,14,4
26101259322,-3,-4,-19,-4,1,2,5,1
26101259322,2,7,18,0,-1,-6,-9,-4
26101266797,-3,-13,3,-1,2,1,-4,-2
26101266797,0,23,29,10,-1,0,-1,-4
26101281823,-7,-14,-48,-17,-8,-7,-8,-5
26101281823,-4,2,-2,3,3,-2,-6,-1
26101290059,5,18,15,2,0,4,8,6
26101290059,-5,-15,-15,-7,-4,-8,-8,-4
26101304320,3,-5,10,-2,2,6,10,2
26101304320,2,4,5,8,-2,-4,-7,-1
26101312512,1,-4,-22,-17,0,4,7,2
26101312512,-7,-26,-57,-13,-7,-9,-9,-5
26101319311,2,14,50,21,11,6,2,-1
26101319311,-2,-11,-6,-4,-5,-4,-1,1
26101326927,-1,4,7,3,-1,-2,3,-1
26101326927,-4,-19,-27,-12,-3,-1,1,0
26101341825,-1,6,14,6,-4,-9,-12,-5
26101341825,-3,-5,-7,1,-4,-6,-9,-5
26101350023,-4,-4,-4,7,3,4,9,-1
26101350023,1,8,7,-5,-3,-4,-3,-1
26101364341,2,1,-2,4,-1,-2,-1,2
26101364341,-3,11,12,-1,0,-5,-5,-4
26101372550,-2,-2,2,-2,1,1,-1,-1
26101372550,6,23,62,19,5,2,3,3
26101379250,0,2,-2,-3,-4,-1,0,0
26101379250,3,-5,-12,-7,-2,-1,-2,2
26101386776,-2,0,15,9,-1,-6,-8,-4
26101386776,-4,-6,-22,-11,-4,-1,0,-2
26101401803,0,0,22,8,0,1,3,1
26101401803,-4,-4,4,4,3,2,-3,-2
26101410040,-1,1,-1,2,-2,-3,-7,-3
26101410040,-5,-17,-8,-7,0,0,2,-3
26101424310,4,21,26,1,1,3,5,3
26101424310,1,2,-5,-5,-2,0,2,0
26101432495,1,1,11,6,1,-5,-5,-2
26101432495,-2,-5,-22,-8,-3,-7,-13,-4
26101439350,-1,-10,-20,-6,-2,4,12,3
26101439350,-2,-1,10,5,2,2,-1,-1
26101447507,0,-11,-23,-18,-4,0,2,1
26101447507,-1,6,19,11,-1,-4,-6,-3
26101470700,1,3,4,13,0,0,0,1
26101470700,-6,-17,-31,-11,-6,1,-1,-1
26101471374,-6,-10,-12,-3,1,1,5,-4
26101471374,2,3,0,0,2,4,6,2
26101484309,-4,-1,-7,-9,-4,-2,-6,-4
26101484309,-1,-6,-3,6,1,-2,0,0
26101492626,2,-2,8,-1,-4,-3,-2,1
26101492626,-2,0,-15,-9,-3,1,-1,-1
26101508235,-4,-14,-12,5,5,0,-1,0
26101508235,-1,7,20,-3,-5,-2,0,0
26101508921,1,7,8,9,-2,-5,-1,-3
26101508921,2,0,-7,-9,-8,-8,-8,-1
26101521843,-3,-5,-5,-4,0,4,3,-1
26101521843,-2,1,-8,-5,-3,-12,-14,-5
26101530075,3,6,-12,-5,2,15,17,6
26101530075,1,6,16,8,4,2,0,0
26101544293,-6,-10,-34,-25,-9,-7,-8,-3
26101544293,1,-1,15,14,1,0,0,-3
26101552534,-3,0,-5,-7,-3,-3,-4,-2
26101552534,-2,0,8,4,1,0,0,-2
26101568085,0,-3,-2,-1,1,0,2,1
26101568085,0,2,-5,-9,-6,-3,-3,-2
26101568793,-5,-16,-31,-6,0,-1,-1,0
26101568793,1,35,53,10,2,5,2,0
26101581811,-3,-12,-3,12,-3,-5,-2,-1
26101581811,7,18,2,-2,0,1,2,1
26101589816,2,4,-8,-12,-3,0,-4,-1
26101589816,-2,-10,8,10,1,-2,-4,-1
26101604233,-2,-3,-7,-5,0,0,6,1
26101604233,-1,4,4,3,0,2,1,1
26101612344,4,4,8,9,6,6,5,2
26101612344,-6,-18,-20,-10,-7,-4,-2,-4
26101628082,1,6,12,-6,-3,-5,-13,-4
26101628082,-2,-15,-5,10,7,10,15,3
26101628889,1,20,33,3,-4,-10,-10,-4
26101628889,-4,-13,-27,-4,-1,-1,1,-1
26101641759,-1,-1,1,5,0,0,2,0
26101641759,-1,3,-9,-9,-3,-3,-8,-2
26101650702,-1,2,6,4,1,1,-1,0
26101650702,2,-3,5,11,4,1,4,2
26101664180,-2,-5,-15,-10,-1,1,3,-1
26101664180,0,-1,15,0,-2,-3,-2,-1
26101673195,-1,-7,-4,-1,-1,-3,-2,-2
26101673195,-2,-11,-17,-7,-1,3,5,1
26101687596,-5,-12,-36,-29,-8,-1,-4,-4
26101687596,4,28,46,12,1,-4,-8,-1
26101694340,-3,-10,-28,-11,-2,1,2,1
26101694340,1,-4,3,-2,3,-1,3,1
26101701688,2,1,-5,0,-2,-3,-6,-1
26101701688,-6,-13,-20,-9,-2,0,4,-2
26101710730,-2,-2,0,-1,-5,-8,-4,-2
26101710730,2,1,-25,-22,-8,-2,-8,-2
26101724299,1,25,70,44,13,7,7,3
26101724299,-1,-10,-18,-7,-1,0,2,0
26101733209,0,9,20,5,2,-4,-6,-3
26101733209,-3,-4,-10,-6,-3,-5,-4,-1
26101747513,2,8,10,-1,-3,-1,-3,-1
26101747513,-3,-5,-6,-2,-2,-1,0,-2
26101754344,-4,-18,-14,0,3,3,1,2
26101754344,4,18,15,6,-1,-4,-3,0
26101761709,-2,-7,5,1,-2,-6,-7,-4
26101761709,-1,-7,-11,-1,-1,3,2,2
26101770721,-2,-6,-18,-8,-4,-2,-2,-2
26101770721,-2,-4,-10,-4,0,0,0,-1
26101784351,0,4,1,-2,-4,-3,-1,0
26101784351,-2,-11,-17,-13,0,-1,-2,-3
26101793226,4,10,17,10,0,-1,-3,-1
26101793226,-1,-4,2,0,-2,-2,0,0
26101808151,3,1,-10,-2,3,4,9,1
26101808151,-3,0,-3,-7,-5,-5,0,-2
26101809580,-2,3,8,1,-1,-2,-4,-3
26101809580,-2,3,-1,3,1,1,-2,0
26101821858,-1,-2,-11,-7,1,1,-3,0
26101821858,-3,0,3,4,-1,0,-2,-2
26101830673,-1,-3,-3,1,-1,-1,0,0
26101830673,1,-9,-7,1,-1,2,1,1
26101844282,-4,-8,-5,-4,-3,-2,-1,-4
26101844282,4,11,-1,2,0,-2,-2,2
26101853220,0,7,-1,-1,-2,-1,-1,0
26101853220,1,10,21,9,4,5,4,2
26101868134,1,2,-2,0,1,-2,-3,0
26101868134,1,1,2,2,-1,-1,-1,-1
26101869677,-4,-16,-12,-7,-4,-1,1,-2
26101869677,0,-4,-5,-3,-2,-1,-2,-1
26101881836,-1,-4,-4,-3,-3,-1,-1,0
26101881836,-3,-7,-7,0,-1,-2,1,0
26101890747,-2,-1,3,1,2,0,0,0
26101890747,-1,1,-3,1,1,0,-1,-5
26101904321,0,-3,-3,2,2,0,-3,1
26101904321,-4,-11,-4,-4,-3,0,0,-2
26101920683,4,16,-1,-4,-4,-4,-4,1
26101920683,-5,-12,0,1,-1,-2,-3,-3
26101928136,0,0,2,4,3,3,2,-1
26101928136,0,-2,-3,4,3,0,0,-1
26101929725,-2,-12,-7,-4,-3,1,2,-1
26101929725,1,4,4,3,-1,-3,0,-2
26101941798,1,1,-6,-6,-4,-2,-1,-1
26101941798,-2,0,-1,-2,1,-1,-1,-2
26101950663,-4,-9,-6,0,-2,-2,-1,-1
26101950663,-2,-4,-3,-5,-2,0,0,1
26101964364,5,15,9,1,1,0,2,2
26101964364,0,7,7,8,5,3,1,-1
26101973228,4,9,1,1,-1,-4,1,-1
26101973228,-14,-37,-19,-7,-1,-2,-2,-6
26101988141,-2,-3,3,1,-2,-2,-2,-1
26101988141,4,-11,-3,-2,-1,-1,0,2
26101989680,-1,-1,-4,0,3,2,0,0
26101989680,13,49,26,1,-2,-3,-4,1
26102001710,-7,-15,-15,-9,-5,-4,-1,-3
26102001710,0,9,9,1,-1,-2,0,0
26102010729,-1,-1,4,0,1,2,1,0
26102010729,-3,-26,-20,-2,-2,0,-1,-1
26102024328,4,36,19,5,1,-1,-3,0
26102024328,0,9,-2,-8,-7,-2,-1,-1
26102033187,-1,-8,0,-1,0,-3,-3,0
26102033187,-3,0,-2,-1,1,-1,1,0
26102048184,-5,-23,-12,-2,2,1,0,-1
26102048184,-4,-10,-5,0,1,2,1,-2
26102049608,-1,5,1,-1,0,-2,-1,0
26102049608,-1,-3,-6,-2,0,-2,-4,-11
26102061728,2,9,2,-1,-2,1,0,5
26102061728,-1,-7,-2,0,0,-1,-2,0
26102070705,-8,-11,-7,-3,-1,-1,-2,-2
26102070705,-3,14,11,1,-4,1,0,-1
26102084347,-1,3,-1,1,-1,0,0,-3
26102084347,-5,-11,-5,-1,-2,0,-3,-2
26102093168,1,0,1,0,-1,-1,0,2
26102093168,-4,-4,1,2,0,-1,-1,3
26102108199,6,6,-1,0,0,-1,1,0
26102108199,-14,-54,-30,-12,-7,-4,-4,-1
26102109700,0,22,10,4,5,3,2,-4
26102109700,2,8,9,4,0,0,-1,1
26102121729,1,9,-1,-7,-4,-1,2,-2
26102121729,4,8,2,2,1,-1,0,1
26102130724,-5,-20,-7,-1,0,0,1,-2
26102130724,2,4,1,-1,1,-1,-2,2
26102144281,-2,-10,-6,-4,-3,-5,-2,-4
26102144281,0,3,1,-1,1,-1,0,-1
26102153189,1,1,-2,-2,-4,-3,-2,0
26102153189,0,2,0,0,-1,-1,-2,0
26102166781,-5,-20,-6,-2,-4,-3,-3,-2
26102166781,-1,14,5,-1,-2,0,-1,-1
26102175729,-1,-14,-3,-2,-1,-1,-1,2
26102175729,1,8,3,5,4,0,-2,0
26102181798,-7,-23,-8,-3,-2,-2,-2,-4
26102181798,0,-4,-1,1,-1,-1,-1,-3
26102190703,5,17,5,0,-3,-1,-2,-3
26102190703,-6,-16,-13,-8,-5,-2,0,-2
26102204281,-1,8,8,5,3,3,1,-1
26102204281,0,9,3,0,2,1,0,1
26102213220,-1,-13,-11,-4,-3,-4,-3,-3
26102213220,-3,1,3,-1,0,-1,0,-1
26102226835,1,10,1,-1,-3,-4,-2,0
26102226835,-2,1,-1,0,1,-1,-1,-1
26102235684,2,-2,1,-2,-3,0,-1,0
26102235684,-1,0,-2,-1,0,1,1,-3
26102241809,-2,-14,-8,-4,0,-1,-1,1
26102241809,2,9,5,-1,-4,-1,0,-1
26102250685,1,11,-1,0,-2,-1,-4,-3
26102250685,-4,-21,-10,-4,-2,-2,1,-1
26102264337,1,13,5,-5,-6,-3,0,0
26102264337,3,1,0,-2,-2,-4,-2,0
26102273222,-4,0,2,2,0,0,-1,-2
26102273222,1,-4,-2,2,-1,0,-1,3
26102287474,6,-9,-8,-2,-1,-4,-5,-2
26102287474,1,14,9,4,1,1,2,-1
26102302460,-4,-4,1,-4,-1,1,0,-2
26102302460,6,6,-4,-1,-1,-3,1,1
26102303170,-4,-13,-7,-4,-2,0,-2,-5
26102303170,-4,3,4,4,2,2,-1,-2
26102310677,-4,-11,-2,1,0,1,-3,-3
26102310677,1,18,4,-3,-4,-2,-1,1
26102324309,-2,1,0,1,-1,-1,0,0
26102324309,-1,-4,-9,-7,-5,-4,-3,-3
26102333198,-6,-6,5,1,2,1,2,0
26102333198,1,-10,-5,-3,1,-1,-2,-1
26102347410,-5,2,3,3,4,1,0,-2
26102347410,2,4,-2,-3,-5,-2,-2,1
26102354198,-2,-9,-7,1,0,-1,-1,-1
26102354198,-3,1,1,-2,-3,-1,0,-1
26102370527,-2,-6,-1,-1,0,-1,-1,-2
26102370527,1,3,-2,0,-2,-1,-1,1
26102372123,1,4,1,-2,-3,-1,0,-1
26102372123,0,-13,-3,-2,-3,-2,-2,-2
26102384324,-4,0,2,2,3,2,-1,-1
26102384324,1,1,-2,-3,-2,-3,1,-1
26102393195,0,-4,0,-4,-2,-2,-2,-2
26102393195,-3,-1,0,-2,-2,-3,-3,-3
26102407382,-1,-2,1,0,1,1,-1,1
26102407382,2,-2,-4,-3,-1,-1,-3,1
26102414186,-2,4,4,2,0,-4,-1,-1
26102414186,0,0,-4,2,3,1,1,2
26102421627,2,8,2,-1,-3,-3,0,1
26102421627,-2,-6,-2,0,1,-1,-1,-3
26102430668,-5,1,-5,-6,-3,-4,0,-1
26102430668,0,-9,0,0,-1,0,-1,0
26102444278,2,7,0,1,2,-1,-3,0
26102444278,-7,-8,1,2,3,2,1,-2
26102453181,2,12,3,-1,-2,0,0,0
26102453181,2,2,-1,-3,-4,-1,-1,-3
26102467208,-2,-20,-5,1,-1,-1,0,-1
26102467208,-2,2,1,-1,0,1,-1,0
26102475614,2,-5,-2,-2,0,0,-3,0
26102475614,-3,8,1,1,-1,-3,-1,-3
26102490638,0,-2,-3,-4,-2,-1,0,-1
26102490638,-2,-3,-3,-3,-3,-2,-1,-2
26102492142,-3,-1,2,4,3,2,0,-1
26102492142,0,-11,-6,-3,-3,-1,2,-1
26102504161,4,20,6,0,-3,-3,1,0
26102504161,0,1,2,-3,-2,-1,0,-1
26102513205,0,-5,-6,-5,-3,-5,0,0
26102513205,2,3,2,6,7,2,1,0
26102527354,-4,0,-3,-1,-1,-1,-2,-2
26102527354,-1,-5,-3,-1,0,-1,-1,0
26102534174,1,11,2,0,0,-1,-1,-1
26102534174,-2,-2,-1,-2,2,1,2,1
26102551058,1,-4,0,2,1,-1,0,0
26102551058,3,2,-1,-2,-3,-3,0,1
26102552646,-1,-6,-4,-2,-2,-1,-1,0
26102552646,-2,0,-2,-2,-2,-2,-1,0
26102564189,-3,-3,-4,-3,-2,0,1,-2
26102564189,-3,-7,-5,-1,-3,-2,-2,-3
26102573948,0,-2,1,0,-2,3,0,1
26102573948,0,8,5,2,1,-1,-2,0
26102587477,-5,-7,-1,2,1,3,-1,-2
26102587477,-1,0,-3,-1,-3,-2,-1,-1
26102601721,0,-6,0,-3,-1,-4,0,-2
26102601721,-1,-6,-7,-8,-5,-1,-2,-1
26102610622,-2,-5,-2,-5,-6,-4,-5,-2
26102610622,-4,-7,2,0,-2,2,0,-1
26102612121,8,15,2,4,2,3,0,0
26102612121,-2,-5,-2,-2,-1,-1,-3,-1
26102624352,-1,-3,-8,-8,-4,-4,0,-1
26102624352,-1,2,0,1,2,0,0,-1
26102633213,-3,-4,-4,-4,-1,-1,0,-2
26102633213,-4,-2,1,1,-1,0,-1,-3
26102647437,-1,3,-3,-2,-4,-1,-1,1
26102647437,0,4,1,1,-1,-3,-4,-2
26102654309,-3,0,-1,2,1,-1,0,0
26102654309,-1,-1,-5,-3,-5,-3,0,-1
26102670582,-2,-2,1,4,2,-2,-1,-2
26102670582,0,6,9,6,2,2,1,-1
26102672156,-1,-2,-1,0,-3,-2,-2,-1
26102672156,1,-3,-1,1,2,1,1,1
26102684266,0,1,-1,1,1,1,2,-3
26102684266,0,-5,-6,-5,-1,1,0,-1
26102693228,-2,-15,-3,-3,-3,-4,-3,-2
26102693228,-1,28,11,3,3,1,0,-2
26102707511,1,5,0,3,3,0,-1,-1
26102707511,0,4,0,-1,-1,-2,0,0
26102714172,-2,-3,0,-1,-1,1,1,-2
26102714172,-2,-10,-3,-2,-4,-1,-2,0
26102730542,1,-5,-2,-3,-2,-1,-2,-1
26102730542,-1,-4,-1,-1,1,1,0,1
26102732132,-4,-3,1,0,0,0,-2,-3
26102732132,1,0,1,0,-1,-1,-2,-1
26102744316,-2,0,1,-1,-3,-1,-1,-1
26102744316,0,-3,-4,-1,-2,-2,-2,-1
26102753162,2,-3,-6,1,0,1,0,0
26102753162,2,0,0,1,1,0,-2,-1
26102767497,3,0,-5,-7,-5,-3,0,-2
26102767497,-4,-13,-8,-6,-5,-4,-4,-2
26102774263,0,17,13,8,7,3,2,1
26102774263,-4,-2,-3,-2,-1,-4,-3,-4
26102790673,1,-7,-1,-2,-3,-2,-1,2
26102790673,-1,-4,-7,-8,-3,0,-1,-2
26102792178,-2,3,0,-2,-3,-2,-2,-3
26102792178,2,-3,1,2,-1,-1,-2,0
26102804245,-10,-4,-2,-1,2,0,-2,-4
26102804245,-3,1,4,1,-1,-1,0,-1
26102813427,-7,-7,-6,-2,0,2,0,0
26102813427,-4,-4,-5,-3,-4,-4,-3,-2
26102827536,2,0,-2,-2,-2,-2,-1,0
26102827536,-3,1,2,6,2,1,-6,0
26102834310,2,2,-1,-1,0,0,-10,-2
26102834310,4,-3,-2,-3,-2,-1,-5,0
26102850522,1,-2,-4,-4,-4,-2,-3,0
26102850522,0,1,-6,-8,-9,-2,4,0
26102852126,5,6,8,9,6,2,4,2
26102852126,-4,-4,4,4,6,0,1,0
26102864580,2,-5,-4,-5,-3,0,5,2
26102864580,-1,-12,-6,-9,-7,-4,-2,-2
26102873126,2,10,1,-6,-5,-5,1,1
26102873126,-1,-1,3,14,14,7,5,1
26102887339,-3,0,6,2,0,-2,-2,-2
26102887339,0,-5,-1,0,2,0,-1,-1
26102894338,-4,-9,-5,-9,-6,-5,-1,-1
26102894338,-5,-7,-6,-5,-7,-3,-1,-2
26102910704,1,10,3,3,2,0,-1,-1
26102910704,1,6,2,0,2,0,1,0
26102912186,-2,3,-2,-3,-3,-3,1,-1
26102912186,1,5,1,-5,-2,-3,-3,-2
26102924211,-4,-6,-5,0,-1,0,-1,-3
26102924211,3,3,0,4,2,1,3,-1
26102933150,-4,-7,-4,1,-1,1,2,0
26102933150,-2,-9,-4,-5,-4,-2,0,0
26102947465,1,3,4,-1,-3,-3,-5,-3
26102947465,1,0,3,1,4,4,0,1
26102954140,-6,-8,-1,0,3,1,-3,-5
26102954140,0,0,-2,-5,-2,-2,-1,-1
26102970506,-5,-5,-2,-3,-2,-2,0,-2
26102970506,-1,5,3,3,1,-2,0,-2
26102972100,-1,-5,-9,-5,-3,-3,-1,0
26102972100,-6,-13,-7,-9,-7,-1,-3,-5
26102984188,5,19,3,6,0,-1,-1,0
26102984188,1,11,9,4,4,0,1,2
26102993136,3,5,6,3,1,1,0,-1
26102993136,-1,3,0,0,3,0,1,-1
26103007364,-6,-15,-10,-6,-3,-2,-1,-2
26103007364,-2,-5,-6,-2,-3,-4,-3,-2
26103014177,3,-1,-2,-3,-4,-3,-1,0
26103014177,0,-1,2,-3,-3,-1,1,-1
26103030527,0,3,3,2,2,2,1,0
26103030527,0,0,0,0,0,-1,-2,-2
26103032160,-4,-6,-6,-6,-2,-2,-2,-1
26103032160,0,-1,0,0,-4,-1,0,0
26103044147,-5,-6,-2,0,2,3,2,0
26103044147,-3,-3,-4,-6,-5,-4,-4,-1
26103060645,2,1,0,2,3,0,-1,0
26103060645,0,7,3,1,1,1,2,0
26103067362,-2,3,0,2,3,3,-1,-2
26103067362,0,-13,-4,-1,-3,-2,-2,0
26103074273,2,6,2,-2,-6,-4,-3,0
26103074273,2,-2,0,0,0,-3,-3,-1
26103090584,1,1,-1,-3,0,0,-2,-2
26103090584,-5,-8,-2,3,5,4,2,0
26103092161,-5,-4,-3,-2,-1,0,-1,-1
26103092161,-2,-5,-6,-2,-1,-1,-3,-1
26103104304,-1,-11,-2,-2,-3,-3,-2,1
26103104304,-2,12,-2,-1,-2,-1,-1,-1
26103113217,-2,3,1,-3,-3,-2,-2,-1
26103113217,-1,3,-1,-3,-2,-1,0,-1
26103127387,-4,-8,-1,2,1,1,-2,-4
26103127387,1,1,2,-1,-1,-1,0,-1
26103134249,-2,-13,-6,-1,0,0,0,0
26103134249,-3,2,3,3,2,0,0,-1
26103150573,3,3,-3,-1,-5,-4,-2,-1
26103150573,-1,5,6,3,0,1,-2,-2
26103152085,0,2,-2,-2,-1,1,-2,0
26103152085,-1,-2,-2,-3,-5,-2,-3,-2
26103164138,-3,-3,-1,-1,0,0,0,-1
26103164138,0,-1,-4,-2,0,-1,-1,0
26103173167,-1,-3,-3,1,-2,-2,-2,-3
26103173167,3,1,-3,-3,-5,-3,-1,1
26103187605,-1,-1,-4,-6,-3,-4,-3,-2
26103187605,-3,-12,-2,-3,-6,-3,-2,-1
26103194162,0,-6,-2,1,2,1,1,0
26103194162,5,25,6,3,2,1,0,0
26103209835,1,-1,2,-1,-2,-3,-2,0
26103209835,-3,1,2,0,-1,-2,-1,-1
26103216640,-5,-7,-4,-5,-4,-3,-2,-2
26103216640,-5,-7,-4,-1,-2,-2,0,-3
26103224142,1,-2,-2,-2,-1,-2,-1,-1
26103224142,1,3,-3,0,-1,0,-3,-2
26103233163,-1,-1,-2,0,0,0,0,-2
26103233163,-3,-6,-2,-2,0,-2,-1,1
26103247363,-2,3,4,2,1,1,1,1
26103247363,2,-5,0,3,3,2,0,0
26103254131,-2,6,-2,-1,-2,-1,-2,-2
26103254131,-2,-2,-1,0,-2,0,-1,-2
26103269831,2,4,-2,-2,-2,-1,-1,-1
26103269831,0,1,-3,-4,-3,-1,0,-2
26103276629,-1,-2,0,0,-1,-1,0,0
26103276629,-3,-4,-2,-1,2,-1,0,1
26103284132,-1,-1,1,4,1,-1,0,1
26103284132,0,2,-2,0,1,-2,0,0
26103293197,-3,-1,-2,-2,-3,-3,0,-1
26103293197,-2,-5,-3,-5,-5,-3,-1,0
26103307446,0,-5,1,2,3,1,0,0
26103307446,-1,4,2,3,4,-1,1,0
26103314198,0,-2,1,0,-2,-1,1,1
26103314198,-2,-1,-3,0,-2,-2,-2,-2
26103329888,-6,-17,-9,-8,-6,-4,-2,-3
26103329888,5,20,7,1,-1,-2,0,1
26103336788,2,13,3,5,4,0,-3,-1
26103336788,-1,-5,-1,-2,1,0,0,-2
26103344314,-3,-2,-2,0,-1,0,0,-2
26103344314,-5,-9,-8,-4,-3,-1,-3,-2
26103353157,-1,-5,-6,-3,-4,-3,0,0
26103353157,4,3,3,1,0,-1,-2,-2
26103367518,-3,-1,-2,2,4,2,1,0
26103367518,-4,-5,-4,-1,-3,-2,-1,-2
26103374314,2,0,1,-1,-3,-3,0,1
26103374314,-4,2,-5,-8,-6,-3,-2,-1
26103389963,-1,1,6,8,5,2,2,-1
26103389963,1,-4,-2,-2,-1,-1,0,0
26103396775,-1,-4,1,0,1,1,0,-1
26103396775,2,0,-6,-3,-1,0,-1,-3
26103413047,0,3,4,-4,-7,-6,-2,0
26103413047,-2,-12,-4,-1,1,-1,1,-2
26103414615,0,9,3,1,-1,1,1,-1
26103414615,-3,-8,-5,-2,-2,-2,0,-2
26103427503,2,11,2,-3,0,-1,1,1
26103427503,-2,-5,-3,-2,1,0,-2,-1
26103434307,-3,-7,-4,-5,0,-2,-2,-2
26103434307,0,4,4,-1,-2,-1,-2,2
26103450042,-1,0,-4,-2,1,-2,-3,-1
26103450042,-1,-7,0,2,4,1,2,-1
26103456771,-2,7,-2,-3,-2,0,-1,-1
26103456771,-4,-22,-9,2,1,0,-2,-1
26103473166,3,30,10,1,-2,-4,-2,2
26103473166,-2,2,-2,-3,-3,0,0,1
26103474583,0,-7,0,1,-2,0,-1,-2
26103474583,-2,-5,-2,-3,-4,-3,-1,-2
26103487349,-2,-10,-7,-2,-2,-1,-1,-1
26103487349,-1,-2,3,8,8,4,0,-1
26103494189,3,4,1,-2,0,-2,-2,0
26103494189,-3,-2,0,1,0,1,-1,-1
26103509914,0,-7,-5,-5,-3,-2,-2,-3
26103509914,2,7,-2,-5,-5,-4,-3,-2
26103516806,-5,-15,-5,-1,2,0,2,-1
26103516806,0,9,5,3,3,0,-1,-1
26103533033,-3,-4,0,0,-1,1,-2,-1
26103533033,-2,-2,-3,-2,-2,-2,-1,-1
26103534580,-1,-7,-5,-1,-4,-1,-2,0
26103534580,-1,5,1,0,0,-1,-2,-1
26103547362,-2,-12,-3,-1,0,-1,-1,-2
26103547362,-4,2,0,0,1,1,-1,-2
26103554140,-1,-1,3,1,2,1,1,1
26103554140,-4,2,0,-1,1,0,-3,1
26103569915,-1,-11,-6,-4,-5,-3,-3,0
26103569915,-2,-3,-1,-4,-2,-2,-3,-1
26103576656,0,-1,-2,-2,-4,-3,-2,-1
26103576656,0,-1,0,5,1,0,1,-1
26103593029,0,2,0,-3,3,2,2,0
26103593029,-3,-3,-1,4,-2,-3,-2,-1
26103594554,-3,0,-2,-2,-2,0,1,-1
26103594554,-1,0,2,0,-1,-3,0,-2
26103607460,2,-2,-4,-3,0,-3,-1,-1
26103607460,3,9,2,-3,-4,-3,-1,3
26103614245,-1,-5,-1,3,1,-1,-2,-2
26103614245,1,4,1,0,-2,-2,-1,0
26103629889,-5,-11,-3,2,0,2,-3,-2
26103629889,-2,1,-2,-3,-2,0,-1,-1
26103636791,1,2,0,-4,-3,-2,-3,-1
26103636791,0,-7,-4,-3,-3,-1,0,-2
26103653111,2,4,2,1,1,-1,1,0
26103653111,2,-2,0,-4,-3,-2,-1,0
26103654603,-3,0,-1,-3,-4,-3,-2,-3
26103654603,0,3,0,0,1,-1,-1,-1
26103667489,-2,-6,-6,-4,-4,-2,-1,-2
26103667489,1,-7,-1,2,1,-2,-1,-1
26103674408,2,12,2,-1,-2,-3,0,1
26103674408,0,1,2,1,0,1,-2,-1
26103690018,0,0,-3,-1,-1,-1,0,1
26103690018,-4,-8,-5,-3,-3,-1,-3,-1
26103696771,5,4,1,1,0,0,-2,-1
26103696771,0,-3,-1,0,0,0,1,0
26103713075,-4,0,-1,-2,-4,-2,-1,-2
26103713075,1,-2,-2,-4,-3,-3,-2,0
26103714588,-3,-4,2,1,0,1,-3,0
26103714588,-3,-1,-1,2,1,1,-2,-2
26103727390,2,2,1,1,0,1,-1,0
26103727390,-4,-4,2,4,0,0,-1,-2
26103734209,1,3,3,-2,1,0,0,0
26103734209,-3,-4,-3,-2,-1,-1,0,-1
26103749971,-1,1,-1,0,-1,-2,-1,-1
26103749971,-1,-3,-2,-4,-3,-1,0,-1
26103756744,-4,7,-2,3,0,1,0,0
26103756744,2,-3,-3,-2,-1,1,0,2
26103773168,-2,-4,-1,-2,0,0,-1,-1
26103773168,0,2,0,-6,-2,-3,-1,-1
26103774603,-1,-6,2,-1,0,-1,1,-2
26103774603,0,-2,2,-2,-2,-2,-1,0
26103787416,-3,-1,-1,1,-1,-1,-1,-3
26103787416,2,-2,-2,0,-1,1,0,0
26103794298,-4,-7,-3,3,4,0,0,-3
26103794298,0,-3,-2,-2,-1,-2,-2,1
26103810026,-3,5,0,-1,-2,-1,0,0
26103810026,-1,0,0,-1,-1,-1,0,-1
26103816779,-2,-5,-5,-5,-4,0,-2,-1
26103816779,-2,2,-2,-5,-3,-2,-2,-2
26103833177,0,-5,1,5,1,-1,-1,-1
26103833177,2,9,1,-3,-1,2,-1,1
26103834576,0,-6,-2,5,1,-2,-1,-1
26103834576,3,1,-2,-1,1,-1,1,0
26103847437,-2,2,0,-3,-3,-3,-1,-1
26103847437,-2,-3,-2,-2,-2,-1,-1,-1
26103854187,-2,-2,-5,-4,-3,-2,-3,-3
26103854187,-2,-1,3,1,-2,-2,-1,-2
26103869990,0,4,1,-2,1,0,0,-2
26103869990,-1,-4,0,2,2,0,1,-1
26103876777,0,9,-1,-5,-1,-1,1,1
26103876777,-3,-2,-3,-3,-1,-3,-3,-2
26103893208,2,-2,-2,-2,-2,-3,0,1
26103893208,-5,-5,-2,-1,-3,-3,-2,-1
26103894648,-3,-10,-3,-3,-2,-1,-3,-3
26103894648,1,4,2,4,3,3,0,0
26103906801,-2,0,0,0,-1,-1,-1,-1
26103906801,-1,2,-1,-3,-2,-3,-1,-2
26103915658,-6,-7,-1,-1,-2,-2,0,-2
26103915658,0,0,-2,-3,-4,-2,1,-4
26103929862,1,-1,-1,2,5,3,-1,0
26103929862,1,0,1,4,3,1,1,-1
26103936820,1,-7,-3,-2,-2,0,0,0
26103936820,1,4,1,-1,-2,-2,-1,0
26103953072,-2,-4,-3,-3,-3,-3,-3,0
26103953072,0,2,1,-1,-2,-1,-2,-2
26103954580,2,1,-1,-2,0,-2,-2,0
26103954580,-2,-4,-3,-3,-2,-1,0,-1
26103966771,-5,-5,-5,-3,-1,-2,-1,-1
26103966771,0,-1,3,4,1,1,0,0
26103975695,3,0,0,-2,-1,-2,0,0
26103975695,-2,1,1,4,1,0,0,-1
26103989977,0,-4,-1,-1,-3,-1,-3,-1
26103989977,-3,-8,-3,1,1,0,1,-2
26103996750,5,9,3,-2,-1,0,0,1
26103996750,-6,-9,0,-3,-2,-4,0,-4
26104013024,3,4,-1,0,-1,0,3,0
26104013024,-1,-5,-5,-2,-1,-3,0,0
26104014646,0,4,-3,-2,0,0,0,-1
26104014646,-2,-1,-2,1,2,1,-2,-1
26104034961,2,0,-3,-3,-3,0,0,0
26104034961,-3,-4,-4,-4,-3,-1,-1,1
26104035593,-2,-1,1,0,0,0,0,-1
26104035593,1,-1,-3,-3,-2,-2,-1,0
26104050639,-2,-1,4,1,-1,-1,-4,-2
26104050639,1,2,0,-2,-1,-2,0,-2
26104056863,-4,-7,-4,-1,1,-2,-1,-1
26104056863,2,-1,0,1,0,-1,0,0
26104072435,-1,-1,-2,0,-2,-2,-3,0
26104072435,-2,1,-1,-3,-2,0,-2,-1
26104073099,-2,0,1,3,0,2,-1,-2
26104073099,-3,-5,-4,0,-1,0,-1,-2
26104094901,0,3,3,1,1,0,0,-1
26104094901,-1,-5,-3,-3,-3,-2,-1,-1
26104095650,-2,9,-1,0,-2,-3,-2,-3
26104095650,-1,1,0,-3,-2,-3,1,1
26104110650,-2,-1,1,2,2,1,0,-1
26104110650,-4,-3,-3,-5,-2,-2,0,-1
26104116803,-1,-5,2,3,1,-1,-2,-1
26104116803,-1,-1,-2,-2,-3,0,-1,-2
26104131652,3,1,-1,-3,-2,-3,-2,0
26104131652,-1,1,-3,-6,-3,-1,2,0
26104139290,-3,-3,1,2,2,0,-1,-2
26104139290,-2,-3,-2,-2,0,-1,-1,1
26104154914,-4,-4,-2,-2,-2,1,0,-2
26104154914,0,2,-2,1,-1,-1,-3,1
26104155603,0,-2,-3,-3,-3,-2,-2,-1
26104155603,0,1,-1,-1,0,0,0,-1
26104171126,-2,-6,-1,0,0,1,-1,-2
26104171126,-1,3,1,2,1,-1,-4,-1
26104176803,1,4,1,-4,-2,0,0,1
26104176803,0,1,1,1,1,1,2,0
26104191754,-1,0,-1,-2,-1,-1,0,0
26104191754,-1,-3,2,5,4,2,0,-2
26104199173,1,-6,-2,-3,-5,-1,-3,0
26104199173,-2,0,0,-2,-4,-1,-2,-1
26104214821,-5,-9,-4,-3,-1,-3,-1,0
26104214821,1,4,4,0,-1,0,1,1
26104215642,-2,1,-2,-2,-1,-1,0,0
26104215642,0,-3,-4,0,0,-1,-1,-1
26104230653,0,4,1,-2,0,-1,0,0
26104230653,0,-2,-2,-2,-2,-3,-2,-2
26104236749,-2,1,0,0,0,-1,0,-2
26104236749,-2,1,-1,1,0,0,-1,-1
26104251783,-1,-1,-2,-3,-2,-3,-4,-3
26104251783,-1,-3,-1,0,-2,-2,-2,0
26104259276,1,3,2,-1,-2,1,0,0
26104259276,-3,-12,-3,1,0,-2,-2,-1
26104275102,3,11,1,0,-1,1,-1,0
26104275102,-1,-2,-4,-1,0,0,0,-1
26104275602,-2,-9,-5,-1,-1,-2,1,0
26104275602,0,6,-2,-3,-3,-2,-1,-3
26104290640,0,1,2,6,5,0,1,0
26104290640,1,2,0,-3,-4,-3,-1,-1
26104296696,0,-5,-3,-3,-1,-2,0,-1
26104296696,-1,-1,0,0,0,0,-1,-1
26104311802,-1,-5,-5,-3,-2,0,0,0
26104311802,-3,1,-1,1,-1,-1,-1,-1
26104319309,-1,0,-2,-1,-2,-3,-2,-2
26104319309,-1,1,-2,-4,-5,-5,-1,-2
26104334947,0,2,2,1,0,0,0,-3
26104334947,-1,-11,-2,-2,2,0,2,-1
26104335636,0,11,-2,-2,-2,0,0,-1
26104335636,0,0,-1,-2,-1,-3,-1,1
26104350666,-2,-2,-4,-1,-1,-1,0,0
26104350666,-1,0,-3,0,-1,-2,-2,-4
26104356774,-2,-9,0,0,0,0,-2,-2
26104356774,1,7,6,2,2,1,-1,-1
26104371788,-1,-1,-2,-1,-2,-3,-1,-1
26104371788,-1,-2,-1,-3,-1,0,0,1
26104379271,-1,1,0,-1,-1,-1,-2,-2
26104379271,-2,-7,-6,-2,-1,0,-2,-2
26104394892,2,11,5,-1,-1,-2,-2,-1
26104394892,-1,0,-2,0,0,0,-1,-1
26104395595,-1,5,0,-1,0,-1,-2,0
26104395595,-1,-5,-2,-3,-1,0,0,0
26104410650,-1,-8,-2,-3,-1,0,0,-2
26104410650,1,6,0,-3,-2,-6,-3,-2
26104416768,0,-2,0,-2,-1,-2,0,1
26104416768,-1,0,-1,0,-3,1,0,-3
26104431676,-2,-7,-6,-1,-2,0,0,0
26104431676,-1,4,-1,-2,-3,-1,-3,0
26104447350,1,1,1,3,0,-2,0,1
26104447350,-1,-8,-6,-4,-1,-2,0,2
26104455000,2,9,6,2,0,-2,-2,-1
26104455000,-2,-5,-1,0,0,3,0,-2
26104455648,-1,1,-3,-1,-1,0,2,-1
26104455648,-1,2,0,0,-2,-1,-1,0
26104470665,-2,-10,-5,-3,-2,-1,-1,-2
26104470665,-2,-6,-1,3,1,1,-1,-1
26104476769,-2,-3,-1,-3,-3,-2,-2,0
26104476769,1,5,1,0,-1,1,-2,-2
26104491828,0,-5,-1,-1,-2,-1,-1,0
26104491828,1,4,1,0,0,0,-1,-1
26104499326,-2,-11,-3,-2,1,2,1,0
26104499326,-1,4,0,-1,1,0,0,-2
26104514798,-2,4,2,-3,-1,-2,0,-1
26104514798,-3,-3,1,0,1,0,1,-1
26104515634,-3,-1,-3,2,-1,-2,0,-3
26104515634,-2,1,0,-2,-2,-2,-1,-1
26104529205,-1,-1,-3,-2,-1,0,-1,0
26104529205,-1,-4,-2,-3,-2,-2,-2,0
26104536870,1,3,0,0,-3,-2,-2,0
26104536870,-1,2,-2,-2,-1,-2,-3,0
26104551740,1,2,-1,-3,-2,-1,-2,-1
26104551740,1,4,4,-2,-2,-2,-1,0
26104559254,1,-3,-3,-1,0,1,-3,-2
26104559254,-1,-6,-1,4,-1,-1,0,-1
26104574861,-4,-5,-2,1,2,0,0,-1
26104574861,1,-2,-1,0,-3,-1,0,-1
26104575567,2,8,0,-4,-3,-2,-1,-1
26104575567,0,-3,-2,-2,-1,-1,-2,-1
26104589204,-1,2,-2,-1,-1,-1,0,0
26104589204,-1,1,0,0,0,0,-1,-1
26104596692,-4,-8,-3,-3,-1,-1,-1,-2
26104596692,2,9,4,2,1,-1,-2,1
26104611833,-1,-6,-1,0,-1,-1,1,-2
26104611833,1,0,0,-1,-1,-2,-1,0
26104619322,0,3,0,0,0,-1,-1,0
26104619322,-4,-7,-2,-5,-2,-2,0,0
26104634920,-2,-7,-2,-1,-1,-1,-1,-1
26104634920,1,6,0,2,0,0,1,0
26104635595,-2,-5,1,0,-1,1,-1,1
26104635595,-1,-2,-1,-2,-1,-3,-1,-1
26104649250,-1,1,-1,0,-3,-3,-2,0
26104649250,-1,-16,-12,-7,-4,-5,0,0
26104656764,-1,22,11,4,6,2,2,0
26104656764,-2,-2,1,1,1,2,1,-2
26104671795,-1,-2,-2,-1,-2,-2,-1,-2
26104671795,0,-1,0,-2,-2,-2,-2,-1
26104679323,-2,-12,-5,-3,-5,-2,-1,-2
26104679323,-1,-6,-1,-2,-2,-1,-1,-4
26104694954,2,12,0,-1,0,-1,-1,0
26104694954,-4,1,2,-1,0,0,-2,0
26104695626,-2,-3,-2,-3,-2,-2,0,0
26104695626,-3,-1,1,-2,-2,0,-3,-1
26104709309,-2,-7,-3,-1,-2,-2,-2,-1
26104709309,-1,2,1,-1,0,-1,-1,-1
26104725018,0,-3,-3,-3,-2,-2,-1,0
26104725018,0,-5,-7,-1,0,-1,0,0
26104731635,0,0,3,1,-1,0,-3,-1
26104731635,-1,8,2,0,-2,0,1,0
26104739260,-2,-4,0,-1,-1,0,-1,-1
26104739260,-2,-2,-1,-2,0,-1,-2,1
26104755065,-3,-5,-4,-3,0,-1,-1,-1
26104755065,-2,-3,-2,0,0,0,-3,-2
26104755615,0,-2,-1,-2,-4,-3,-3,-1
26104755615,0,1,0,0,-1,-2,0,-1
26104769257,2,3,-3,-4,-2,-1,1,1
26104769257,-4,-2,0,0,-3,-1,0,0
26104776868,-2,-5,-6,0,0,2,-3,-3
26104776868,1,-4,-3,0,0,0,0,-1
26104791816,4,11,4,2,0,-1,-1,2
26104791816,0,-1,-3,-4,0,-1,1,-1
26104799197,0,0,0,0,0,-2,3,-1
26104799197,-4,-1,2,-1,-2,-1,1,-2
26104814812,-2,-9,-2,-2,-2,-2,-2,-2
26104814812,1,1,0,0,0,-1,-4,-2
26104815599,-1,-2,-5,-2,-1,0,-2,0
26104815599,0,4,-1,-2,-3,-1,-3,-1
26104829310,-1,-3,0,3,0,0,0,1
26104829310,0,-4,0,-1,-2,-2,-1,-1
26104836748,-1,-2,-1,-1,1,-2,0,-1
26104836748,-2,0,2,-1,-2,-2,-3,-1
26104851791,-1,1,1,-2,-4,-2,-2,0
26104851791,-3,-11,-4,-1,1,-1,-2,-1
26104859182,-2,12,10,4,3,3,1,-1
26104859182,1,-2,-2,0,-2,-2,-1,-1
26104874986,-3,-5,-4,-2,-1,1,1,-2
26104874986,-1,0,-1,-1,-1,0,0,0
26104875603,1,-2,-3,-2,-5,-3,-2,1
26104875603,0,2,-1,-1,1,-2,1,-2
26104889260,-1,-7,-2,0,0,-1,0,-2
26104889260,-2,-7,-4,-2,-1,-1,0,-1
26104896648,0,8,-1,-2,-1,-2,-1,1
26104896648,0,0,-1,-1,-3,0,0,1
26104911781,-1,-5,1,1,0,0,-2,-1
26104911781,-2,0,-2,1,-2,-1,-2,-3
26104919248,-2,-13,-5,-5,-3,-2,-1,-1
26104919248,0,7,5,2,3,-1,1,-1
26104934900,-3,3,-3,-3,-1,-2,0,-1
26104934900,2,3,3,-1,-3,-2,-3,0
26104935589,-1,-5,-4,0,0,-3,-1,-1
26104935589,0,0,0,-1,-1,-1,-1,1
26104950642,0,-2,-2,-2,-2,0,-3,-1
26104950642,0,6,-3,-4,-3,-2,-2,0
26104956786,-1,-8,-3,0,0,0,-1,-2
26104956786,0,-2,-2,-2,-2,1,-1,-2
26104971667,-1,0,-2,0,1,0,1,-2
26104971667,-2,-1,1,1,1,1,1,0
26104979168,-2,0,-1,-1,-2,-1,-1,-1
26104979168,0,-1,-2,1,0,-1,-1,0
26104994964,-1,-2,0,-2,-2,-1,-1,-1
26104994964,-3,-5,-4,-2,1,0,-1,-2
26104995622,4,3,4,-1,-1,0,-1,1
26104995622,-1,1,2,4,4,1,0,-1
26105009200,-1,-6,-3,3,2,0,2,-2
26105009200,3,7,2,-2,-3,-4,-2,-1
26105016749,-1,-2,-4,-3,-2,-3,-2,1
26105016749,-3,-11,-4,-4,-3,-2,-2,0
26105031598,0,6,3,0,-1,-1,-2,0
26105031598,-3,-1,-1,0,-1,0,-2,-1
26105039345,-4,-16,-6,-1,-1,0,-2,-1
26105039345,1,12,8,0,-3,1,0,0
26105054834,-1,-4,-6,-3,-2,-3,-2,-1
26105054834,-2,3,2,0,2,0,0,-4
26105055588,-2,-1,-1,-3,1,-2,0,0
26105055588,-2,-9,-6,0,0,-1,0,-1
26105069219,0,-1,-2,0,-2,-2,-1,0
26105069219,-2,-3,-4,-1,-4,0,-1,-2
26105076759,1,8,5,-1,-1,0,-3,-4
26105076759,-1,-3,-1,-2,-2,0,1,0
26105091832,-4,0,-1,-3,-3,-4,-2,0
26105091832,1,0,-1,0,1,0,1,0
26105099137,-1,1,-2,-1,-1,-1,-4,-1
26105099137,0,-1,-1,0,0,0,-4,-1
26105114210,-3,-2,2,1,2,2,0,0
26105114210,-2,-3,-4,-3,-5,-2,0,-1
26105122439,-1,-2,0,1,0,0,2,-1
26105122439,0,0,-3,0,0,-1,1,-3
26105129249,-2,-1,-2,-3,-2,0,0,0
26105129249,-1,-5,-3,1,0,0,-2,0
26105136790,-1,2,0,-2,-2,0,0,0
26105136790,-2,-4,-4,-2,-1,-3,-3,-1
26105151733,-1,0,-1,-2,-1,-4,0,-2
26105151733,1,0,3,-2,1,-1,0,0
26105159263,1,-2,1,-2,-1,-1,-1,0
26105159263,-2,-8,-3,0,-2,-1,-3,-1
26105174278,-2,-4,1,-1,1,1,-1,-1
26105174278,0,9,2,2,2,1,1,1
26105182422,-2,0,-2,3,0,-1,0,-1
26105182422,-1,-3,-1,-1,-1,-1,-1,-1
26105189225,1,-2,-1,-1,-3,-3,-2,-3
26105189225,-1,1,0,-3,-1,-4,-4,-1
26105196877,-3,-8,-6,-4,-6,-3,0,-2
26105196877,-1,4,-5,-4,-3,-2,0,-1
26105211773,-1,2,1,5,1,1,-1,-1
26105211773,-1,-5,2,2,2,1,-1,-1
26105219323,1,2,1,1,0,1,1,-2
26105219323,-1,2,1,-5,-2,-4,-1,-1
26105234277,-2,-1,-4,-3,-1,-2,-1,-1
26105234277,0,-4,-4,-2,-3,-1,0,-1
26105242406,-2,0,-1,-2,-1,-1,-2,-1
26105242406,-1,-4,-1,-2,-3,-1,1,-2
26105257513,-1,-10,-4,-2,-2,-1,-2,-2
26105257513,-1,3,1,0,-1,-2,0,1
26105258110,-1,4,1,1,2,1,0,0
26105258110,0,2,-1,-3,-3,-1,0,0
26105280018,0,8,22,9,-1,-2,0,-1
26105280018,-1,-9,-4,-3,-5,-1,-2,-1
26105280597,-5,-18,-24,-16,-5,-5,-6,-4
26105280597,3,2,13,16,6,2,0,2
26105294284,-2,3,-4,-1,-2,-1,2,-2
26105294284,0,0,-1,-6,-4,-3,-1,-1
26105302435,-2,3,7,13,4,-1,-2,0
26105302435,-5,-11,-21,-9,-2,-1,-3,-3
26105317448,0,-5,-4,0,0,-1,-4,0
26105317448,-1,13,26,7,1,0,0,-2
26105318118,-5,-13,-32,-22,-12,-8,-3,-4
26105318118,9,10,11,7,4,0,0,2
26105331860,-12,-11,-15,-17,-12,-12,-15,-13
26105331860,27,47,73,43,19,19,24,17
26105339315,-5,-1,6,1,2,4,0,-3
26105339315,-13,-32,-22,-12,-9,-2,0,-7
26105354275,6,5,-17,-14,-5,-4,1,6
26105354275,1,6,-26,-2,1,-2,-5,-1
26105362431,1,3,19,-2,-2,0,1,2
26105362431,1,7,4,1,2,0,-2,-3
26105377425,2,1,11,8,6,3,0,0
26105377425,-8,-17,-16,-12,-3,-2,-5,-5
26105378126,3,6,-3,9,3,1,3,3
26105378126,-7,-9,-10,-4,-2,-6,-6,-7
26105391746,2,-2,-8,0,-2,3,2,6
26105391746,-4,1,-2,-20,-11,-5,-1,6
26105399275,-3,16,39,9,-3,-5,-6,-12
26105399275,-2,13,9,0,0,-1,1,2
26105414274,4,-4,-9,2,6,7,7,8
26105414274,-14,-42,-50,-22,-8,-7,-7,-9
26105422519,7,4,24,13,0,-2,0,5
26105422519,2,10,11,4,2,3,2,2
26105437430,-2,3,-22,-14,-2,-2,-9,-22
26105437430,3,-2,24,38,11,1,2,20
26105438108,-4,-29,-42,-48,-21,-6,0,-5
26105438108,5,15,27,25,5,1,2,3
26105451728,0,-9,-29,-13,-5,-6,-3,-3
26105451728,-5,-11,20,10,4,-1,-21,-18
26105459232,7,23,12,10,11,5,1,21
26105459232,6,0,-18,-18,-4,13,46,18
26105474255,12,13,25,-3,-6,0,-6,7
26105474255,-5,-9,-53,-51,-20,-8,-3,-15
26105482452,-18,-28,-28,-6,-5,-6,-6,-3
26105482452,13,17,10,7,4,-3,-22,-11
26105497302,3,4,49,33,19,9,3,2
26105497302,-10,-26,-55,-25,-12,-4,13,5
26105498069,16,26,20,-6,-14,-8,-8,-3
26105498069,-6,-16,32,19,9,-1,-9,-5
26105511738,0,4,-34,-10,4,2,-1,0
26105511738,0,8,37,10,-7,-17,-28,-8
26105519247,-17,-42,-26,-10,-13,-1,32,-5
26105519247,-6,47,14,-11,-9,-6,-15,-14
26105534238,5,8,12,13,8,-1,4,3
26105534238,-12,-29,-14,-20,-14,-11,-29,-9
26105542479,-7,-47,-67,-59,-22,-5,12,4
26105542479,-19,-12,5,-26,-32,-25,-23,-22
26105557398,5,40,30,45,29,17,-4,-4
26105557398,26,31,2,7,10,14,34,19
26105558103,-18,-7,22,9,7,2,30,0
26105558103,6,-41,-74,-31,-4,1,1,9
26105571793,-4,-8,-30,-34,-22,-10,2,-3
26105571793,-8,-3,4,18,5,-6,-16,-16
26105579340,14,34,1,20,18,8,-11,4
26105579340,-10,-17,-5,10,8,5,3,-2
26105594304,-2,-9,11,13,-2,-6,-3,5
26105594304,-1,-8,-7,-8,2,1,7,2
26105602370,6,-8,3,29,14,3,-16,-3
26105602370,-2,19,17,18,6,3,4,3
26105617470,-23,-40,-63,-45,-24,-6,-2,-1
26105617470,18,22,57,21,5,-4,-32,-3
26105618091,-9,-52,-25,-29,-12,2,20,0
26105618091,36,103,102,43,7,0,3,14
26105631700,-8,-12,19,-1,6,12,9,3
26105631700,-21,-35,-59,-51,-25,-5,10,-5
26105639323,3,-1,-23,11,7,-13,-40,-18
26105639323,-13,-28,-15,-6,-9,-6,-14,9
26105654281,6,31,20,-13,-8,2,16,12
26105654281,-11,-8,13,13,1,-2,3,2
26105662409,19,13,33,47,21,2,-13,1
26105662409,-12,-45,-52,-41,-12,-10,-9,-10
26105685609,-3,15,-3,-6,-6,-7,7,-9
26105685609,-18,-67,1,14,6,0,-3,0
26105686293,-15,9,-36,-56,-23,-3,-6,-11
26105686293,17,77,87,63,21,12,22,11
26105691757,-6,-59,-116,-34,-6,-8,-15,-6
26105691757,23,82,114,33,7,5,11,6
26105699260,-9,-46,-65,-54,-8,0,-2,7
26105699260,-18,-27,-16,-6,2,1,-6,-14
26105714202,8,1,34,17,-3,-7,-11,-5
26105714202,-1,4,-38,-9,0,-4,4,-5
26105722457,-3,12,17,15,2,-4,-11,-7
26105722457,-14,-71,-49,-24,-3,0,-15,-11
26105737491,3,19,48,25,10,8,44,25
26105737491,16,41,-49,8,15,7,2,1
26105738120,18,36,50,21,8,28,39,31
26105738120,-10,-43,-77,-10,3,2,6,0
26105751644,-11,-22,35,12,0,-2,-1,-1
26105751644,-5,-21,-69,-19,-7,-10,-12,-7
26105759286,18,48,86,47,31,13,-2,2
26105759286,1,8,-39,-25,-10,-2,3,2
26105774219,6,-4,0,-1,-6,-4,-11,0
26105774219,-27,-55,-57,-14,1,6,9,-2
26105782378,-18,34,47,5,-11,-36,-86,-48
26105782378,20,-13,36,4,7,43,107,65
26105797339,-32,38,29,-14,-14,-17,-29,-26
26105797339,32,2,0,-14,-12,2,18,13
26105798123,-40,-76,-75,-17,-15,-17,-15,-3
26105798123,12,72,57,9,1,-6,-11,-2
26105811729,71,11,-16,3,2,2,4,-5
26105811729,-7,-4,-14,-28,-4,4,10,7
26105819232,11,13,28,2,-4,-1,3,3
26105819232,-29,-40,-101,-19,4,-3,-22,-15
26105834172,-14,2,80,54,17,9,5,7
26105834172,-2,2,-14,-2,-6,-13,-35,-15
26105842386,0,27,15,-9,-7,2,30,1
26105842386,-3,17,19,25,-6,-18,-21,-11
26105857374,6,-6,-18,-3,9,4,9,5
26105857374,-15,-34,-11,29,3,-7,-24,-9
26105858021,-7,-2,-5,12,1,-8,3,0
26105858021,5,-43,20,-16,-10,1,7,-1
26105871732,-19,35,-11,-10,-12,-25,-34,-21
26105871732,-13,4,55,-1,5,15,18,-13
26105879309,14,41,7,37,10,-6,-23,-2
26105879309,30,1,0,-6,14,23,60,37
26105894291,-43,-38,6,4,-11,-10,-6,-12
26105894291,1,-31,-45,0,-5,-15,-14,-3
26105902098,9,33,7,5,3,12,15,4
26105902098,-19,-58,-62,-43,-16,-20,-37,-22
26105917439,18,39,85,34,8,3,-8,5
26105917439,-31,0,-34,-22,-18,-17,4,-4
26105918090,4,-40,0,23,-8,-13,-50,-24
26105918090,15,47,67,9,-7,-9,0,1
26105931615,0,-21,-120,-48,-8,1,13,12
26105931615,-11,11,56,31,11,3,-2,-11
26105939105,9,-23,-48,-35,-12,-3,0,5
26105939105,-44,-58,10,55,38,12,-24,-18
26105954130,-24,3,-16,-17,-16,-19,-19,-16
26105954130,49,23,22,-24,-8,4,21,33
26105962336,-24,-90,-105,-61,-22,-4,15,-5
26105962336,16,51,-46,-23,-5,-23,-78,-23
26105977335,-3,-39,49,14,17,43,86,30
26105977335,-2,103,57,23,5,-4,-8,-9
26105978093,-1,-36,-56,-26,-8,0,26,16
26105978093,-9,7,6,-28,-15,-8,-7,-8
26105991702,8,-14,7,49,12,-5,-36,-15
26105991702,-12,-20,-82,-53,-15,0,4,-9
26105999156,28,66,106,34,5,1,3,9
26105999156,-29,-50,-11,34,18,5,-30,-13
26106014164,23,18,-24,-23,3,6,25,13
26106014164,12,-40,-66,-32,-1,15,39,18
26106022446,0,45,93,60,11,-2,-5,3
26106022446,-3,0,-35,-28,-20,-11,-1,1
26106036597,11,-51,-102,-40,-14,-4,3,16
26106036597,3,79,93,51,18,-14,-59,-23
26106044774,-26,-2,-99,-70,-3,39,30,8
26106044774,7,-12,57,47,12,21,94,13
26106051563,10,28,-47,-6,9,11,1,22
26106051563,19,-56,-27,22,-6,-8,-14,-1
26106059090,-1,30,-21,-27,7,5,9,24
26106059090,43,53,-11,-29,-11,1,3,-5
26106074108,-61,-12,77,27,-3,-1,-11,-35
26106074108,11,6,-18,-2,-6,-12,-19,-6
26106082425,-45,-125,-112,-58,-14,-18,-50,-28
26106082425,-10,20,13,-27,-10,3,13,18
26106096746,19,60,79,34,0,-18,-23,-3
26106096746,10,7,49,-13,-4,13,20,17
26106104987,3,-6,-17,20,3,-16,-21,-21
26106104987,-12,7,38,48,17,-12,-22,-6
26106111693,-10,-19,9,-59,-26,-7,0,-10
26106111693,-11,-26,2,47,25,6,-2,-13
26106119225,-7,2,15,22,4,11,24,1
26106119225,9,17,-26,-16,-23,-46,-81,-22
26106134271,-10,-3,46,64,6,-10,-2,12
26106134271,-23,-36,-10,-30,2,6,-13,-22
26106142373,32,115,127,30,2,11,64,30
26106142373,-2,-48,-40,2,-5,1,-2,-3
26106156740,-3,-54,-73,-31,-7,4,-9,-11
26106156740,-6,9,16,-10,-10,-10,6,1
26106164857,-15,-11,9,20,-4,-11,-33,-18
26106164857,26,22,-34,-20,9,25,40,25
26106171779,48,97,87,37,14,0,-3,-1
26106171779,-9,-20,-41,11,10,8,17,19
26106187615,2,-4,41,11,7,4,3,-5
26106187615,-19,-15,-28,5,-4,-12,-18,-9
26106194177,-7,25,-35,-34,-14,-11,-15,-6
26106194177,5,16,76,52,10,6,11,16
26106209993,-17,-54,-65,6,7,11,-12,-7
26106209993,23,29,61,11,7,18,26,5
26106216617,-23,-52,-43,-12,-2,1,-3,-3
26106216617,30,44,1,-11,-4,0,6,5
26106224950,2,4,-17,-25,-18,-21,-7,-1
26106224950,4,-1,27,22,-4,-13,-18,-6
26106239875,-13,-23,-34,4,-2,-9,-13,2
26106239875,-34,-13,44,12,8,-16,-57,-47
26106240546,13,-45,-49,-45,-1,29,41,27
26106240546,-15,39,-37,-55,-19,6,32,1
26106263131,-2,-37,20,1,0,-3,2,0
26106263131,-33,-68,-78,-47,-18,-4,1,1
26106263770,26,57,54,35,7,-14,-12,-3
26106263770,-24,-69,-67,-34,-11,-8,-12,-9
26106276660,18,-22,-5,-3,7,11,6,2
26106276660,-8,-11,-64,-11,-12,-7,6,2
26106285004,5,80,88,16,10,-1,-4,-2
26106285004,-16,-15,0,-12,1,5,-2,5
26106299971,10,-7,-55,15,16,5,0,0
26106299971,-7,-17,62,-7,-1,7,28,10
26106300593,-10,-15,0,27,2,-7,-5,-14
26106300593,-9,-52,-84,-24,-4,-8,-48,-16
26106314170,-6,-3,-13,-1,18,12,20,2
26106314170,-2,79,105,57,11,-13,-30,-14
26106322348,2,-12,-59,-30,2,32,48,12
26106322348,14,-23,-7,10,-7,-12,-4,0
26106336705,-27,-35,-5,-31,-19,-18,-51,-23
26106336705,20,19,-49,-14,-2,11,21,19
26106344895,-7,35,28,9,1,-11,10,-7
26106344895,6,32,44,27,10,11,16,3
26106360003,7,-11,-51,-28,-11,0,-2,6
26106360003,-15,9,-29,-22,-19,-11,-1,-12
26106360580,-2,22,24,11,13,-3,-14,0
26106360580,3,-51,-56,-20,-2,6,9,8
26106374246,17,82,125,59,7,-3,-2,-7
26106374246,1,0,0,-25,-16,4,11,13
26106382336,18,0,-59,2,-4,-8,-14,3
26106382336,-11,12,14,-27,-10,-8,-17,-9
26106396762,-19,-31,-46,-28,-14,-4,5,-2
26106396762,14,-30,-32,15,11,6,8,13
26106411778,-12,-46,-12,22,7,-10,-34,-16
26106411778,2,43,21,3,-5,-10,-7,2
26106419924,1,39,15,-8,-2,0,8,-2
26106419924,-1,-30,-12,-10,4,7,-6,-6
26106426711,-9,-53,-60,-15,-16,-6,-10,-7
26106426711,-18,-18,36,15,-2,-4,-8,7
26106434274,9,16,-128,-62,0,14,27,11
26106434274,22,23,76,60,26,15,22,12
26106443114,-14,-1,7,-23,-16,-11,-17,-8
26106443114,16,28,67,55,24,9,5,-4
26106456795,-1,-29,-10,-13,-8,-3,1,0
26106456795,-13,-31,-40,2,0,-2,1,-4
26106465605,18,56,70,0,6,-6,-12,10
26106465605,-30,-37,-4,2,11,-3,-6,-15
26106480024,6,13,43,14,-3,-4,-8,4
26106480024,10,4,-48,-24,-7,-1,-1,-1
26106486722,-27,-48,-13,-1,-5,-1,4,-5
26106486722,8,32,21,-2,-11,-8,-3,4
26106494248,-2,36,45,9,5,-2,-20,-13
26106494248,18,3,-30,-15,-10,-2,12,8
26106503105,4,-5,34,46,26,21,13,9
26106503105,-5,-19,-64,-18,-3,0,0,-6
26106516770,0,-41,-36,-35,-15,-8,9,6
26106516770,-12,49,90,25,8,4,9,-7
26106525594,14,5,-40,-23,-14,0,7,14
26106525594,14,2,29,26,13,21,47,17
26106539909,-18,-36,-27,-3,-3,-4,-20,-2
26106539909,-16,-7,0,-1,2,3,-10,-16
26106546766,19,11,18,0,-5,-6,4,6
26106546766,-21,-34,-44,-7,0,8,18,6
26106554300,4,99,116,9,-4,-3,2,4
26106554300,11,-30,-49,-37,-14,-10,-12,4
26106563096,-8,-1,-50,-24,-9,-10,-18,-17
26106563096,8,-21,-69,-5,2,3,-9,5
26106576750,-11,-35,-33,13,0,0,1,-8
26106576750,-18,26,-9,-22,-18,-13,-11,-5
26106585584,7,-50,-48,-12,3,2,6,9
26106585584,-3,33,-5,-20,-15,-20,-40,-18
26106600517,11,5,-42,-7,9,14,32,7
26106600517,-8,-9,64,31,10,15,16,5
26106602105,6,-12,-36,3,0,-3,3,7
26106602105,-4,25,46,13,-3,6,19,-3
26106614142,22,-24,-8,8,0,-7,-29,-11
26106614142,8,-4,-36,-27,-8,-11,-5,4
26106623145,-1,1,-9,-10,-5,7,23,18
26106623145,-2,5,28,17,0,-5,-12,-9
26106636731,-11,-58,-75,-20,-4,1,6,-1
26106636731,7,10,11,17,12,5,2,11
26106645621,-4,32,52,-8,-5,-3,12,-16
26106645621,-2,-43,25,23,2,-4,-2,-4
26106667979,21,69,20,6,-14,-7,3,11
26106667979,-15,13,40,24,18,4,-15,-12
26106669553,-9,10,79,33,13,2,-9,-4
26106669553,-7,-11,-71,-53,-19,-6,5,3
26106674243,7,-2,41,31,11,-1,-6,4
26106674243,-1,-10,-11,24,4,2,-8,-5
26106690647,-10,-6,-25,-13,-8,4,20,-2
26106690647,8,15,5,-13,-5,-14,-12,-4
26106696822,-19,-25,8,-16,-7,-2,-1,-3
26106696822,13,22,-20,-5,-4,-1,2,9
26106713114,-33,-71,-95,-42,-12,-32,-49,-36
26106713114,19,27,39,-6,2,23,40,21
26106720579,0,21,13,29,16,10,12,11
26106720579,-19,-14,-4,-11,-5,0,5,-9
26106722126,33,39,-16,-24,-6,0,2,17
26106722126,6,-26,-8,9,-1,-7,-14,-7
26106734224,-1,-3,18,-2,-5,-5,-11,-11
26106734224,-9,-39,-54,-27,-7,-3,-1,1
26106743116,-1,24,25,31,3,3,-5,-6
26106743116,7,50,38,34,28,5,-7,-2
26106765491,11,-13,10,6,-2,11,25,14
26106765491,-16,-41,-22,-16,-5,2,2,-3
26106767057,7,47,31,11,-2,-1,6,3
26106767057,4,22,21,-1,-6,-5,0,5
26106780451,-8,-13,-19,-1,3,-6,-17,-8
26106780451,-7,-18,-9,-7,-6,-3,-3,-1
26106782096,2,-1,33,20,3,5,7,2
26106782096,-3,-14,-18,-10,-3,-1,-7,-2
26106794225,-7,-14,-15,-2,2,-4,-11,-7
26106794225,5,11,3,0,-6,-8,-1,-5
26106803130,-6,-22,-13,-10,-1,3,-4,-4
26106803130,-9,-4,-23,-13,-7,-1,-7,0
26106816817,0,24,31,15,6,1,1,-2
26106816817,10,19,10,0,0,-1,7,6
26106825615,-3,-4,-3,-3,-1,-4,-6,-1
26106825615,-11,-21,-22,-10,-8,-7,-5,-7
26106840593,-5,-13,-3,-4,0,0,-2,-1
26106840593,5,14,0,0,-4,-1,-3,2
26106842078,0,-8,-16,-3,0,0,-1,-3
26106842078,-1,-8,4,5,2,1,1,0
26106854174,0,15,30,18,-3,-9,-14,-5
26106854174,-5,-6,-26,-13,-4,2,-1,-4
26106863125,-4,-1,-22,-4,1,4,13,1
26106863125,6,20,22,10,-1,0,2,-1
26106876754,-6,-26,-47,-22,-7,-3,8,2
26106876754,1,7,19,2,-1,-8,-18,-1
26106891663,-3,1,22,13,0,0,-2,-6
26106891663,-3,-18,-25,-13,-4,-1,5,1
26106900484,-2,15,6,3,3,-1,-12,-7
26106900484,6,4,-3,-1,-3,-5,-3,0
26106902085,0,1,7,7,5,8,10,6
26106902085,1,7,10,3,0,1,1,-1
26106914288,-7,-18,-17,-17,-8,-3,-2,-2
26106914288,2,0,7,6,0,0,4,-1
26106923109,3,1,3,3,4,3,2,3
26106923109,-6,-4,-3,1,1,-4,-10,-7
26106936759,-1,-11,-1,-4,-2,1,4,0
26106936759,5,2,-11,-2,3,3,10,2
26106945597,4,9,-6,-14,-6,-6,-11,-3
26106945597,-4,-11,-9,7,3,2,1,0
26106959198,-4,7,31,9,3,0,1,0
26106959198,1,-3,2,8,5,3,4,0
26106968142,-4,-7,-13,-12,-5,-4,-5,-1
26106968142,1,10,4,-7,-2,-1,0,0
26106974237,-3,-7,-16,-8,-2,0,2,-1
26106974237,-2,6,-4,0,-2,-3,-1,-1
26106983085,-4,-14,8,12,4,1,2,1
26106983085,-1,2,0,1,0,1,2,0
26106996784,4,18,7,1,1,0,-5,2
26106996784,-4,-7,-4,-7,-5,-3,-1,-1
26107005558,1,-1,-1,1,0,-1,-2,0
26107005558,-1,-12,5,4,1,0,-2,-5
26107019919,-5,-22,-15,-8,-3,-2,-2,1
26107019919,8,16,4,2,0,0,0,2
26107026598,-1,-14,-3,-1,-6,-5,-5,-1
26107026598,-2,2,-1,-7,-6,-5,-3,0
26107034153,-1,6,4,5,5,4,3,0
26107034153,-2,-3,-5,-5,-5,-2,-1,0
26107043114,-1,5,6,10,4,-1,-2,1
26107043114,-3,-2,-2,-1,-3,-1,-1,-2
26107056749,-2,-23,-19,-10,-5,-6,-2,-2
26107056749,0,9,0,-3,0,0,0,-1
26107065659,-3,-10,1,-5,-4,-2,-2,-3
26107065659,-1,9,8,9,6,2,0,-1
26107079808,1,3,2,-2,0,0,1,0
26107079808,-3,-17,-1,0,-3,-1,-1,-1
26107086685,0,4,4,-1,-2,-2,-1,-1
26107086685,-5,-11,-6,3,3,2,2,-1
26107094215,-3,-2,-8,-3,-3,-2,-2,-3
26107094215,0,-11,1,2,4,1,0,0
26107103122,-6,3,2,7,7,5,1,-1
26107103122,1,-3,-5,-4,-2,-2,-2,-1
26107116631,4,11,2,2,1,-1,1,-1
26107116631,-4,12,5,-2,0,0,0,-2
26107125671,3,14,10,2,-2,-3,-1,-1
26107125671,-3,0,-9,-6,-2,1,0,0
26107139863,-1,-17,0,-3,-2,-2,-2,-2
26107139863,-1,-2,-4,-4,-2,-1,-1,-1
26107146760,-1,-10,-3,0,-4,-4,-4,-1
26107146760,-1,6,6,4,2,1,-1,-3
26107154097,1,-4,-9,-1,-2,-2,-1,-1
26107154097,-2,-4,3,6,3,0,1,0
26107170605,-1,6,-2,-3,-4,-1,-3,-2
26107170605,2,-8,-6,-10,-7,-3,-1,-1
26107176866,-5,-31,-12,-2,-3,-2,-1,-3
26107176866,3,50,17,3,-2,-3,-2,-2
26107185597,4,12,4,1,-1,-3,0,0
26107185597,-2,-1,-5,-4,-4,-3,-3,0
26107199783,-4,0,-3,-4,-2,1,-1,-2
26107199783,-1,-30,-17,-6,-3,-2,-1,-1
26107214155,-7,1,8,2,3,0,-1,-3
26107214155,0,0,1,-1,0,-3,0,0
26107223093,-3,-3,0,-1,0,-3,0,-1
26107223093,-2,-6,-2,2,-2,-2,-1,-2
26107224603,1,6,-5,-1,0,0,-2,0
26107224603,-1,-7,2,0,-2,-1,-2,-2
26107236732,-2,21,5,2,2,1,0,2
26107236732,-1,-16,-12,-5,-2,-2,0,-4
26107245569,-1,3,3,0,-1,0,1,-2
26107245569,-2,6,0,-4,-4,-2,-1,0
26107259845,-5,-6,-3,0,1,0,-2,-1
26107259845,5,9,6,-1,-3,-1,0,2
26107266686,-1,-16,-9,0,1,0,-4,-1
26107266686,-2,-3,0,0,1,-2,-2,-4
26107282976,3,12,1,-3,-4,-1,0,2
26107282976,-3,-5,-3,0,-1,0,-3,-4
26107284557,-4,-9,-4,0,0,2,2,1
26107284557,-7,-35,-16,-2,-3,-2,-3,0
26107296586,9,47,29,3,-1,-2,-1,1
26107296586,2,15,4,3,3,3,0,-1
26107305623,3,-2,-5,-6,-5,-2,-1,0
26107305623,2,4,3,4,5,1,2,1
26107319809,-1,-21,-13,-3,-2,-1,1,-1
26107319809,0,-25,-12,-6,-3,-4,-1,-1
26107326721,0,27,16,0,0,-2,0,-2
26107326721,5,20,8,-1,-4,-2,1,1
26107343014,-4,-8,-8,-1,-4,-3,-3,-2
26107343014,0,7,1,0,-3,-3,-1,0
26107344560,-3,-16,-9,-2,0,-2,-1,-2
26107344560,-1,4,0,-2,-1,-1,1,-2
26107356748,-5,-1,-2,-3,0,2,0,-2
26107356748,-1,-14,-7,-3,-2,0,-1,-1
26107365589,0,-10,-4,1,3,-1,-2,-2
26107365589,1,9,4,0,0,-2,-1,2
26107379903,4,20,5,0,-2,2,2,0
26107379903,-9,-19,-6,1,2,0,-2,-4
26107386765,1,9,2,-3,-4,-1,1,-1
26107386765,2,10,5,0,-1,-2,-4,-1
26107403711,-8,-38,-18,-5,-4,-2,-2,-4
26107403711,1,20,11,1,-1,0,1,1
26107405148,0,-5,-6,-3,-4,-2,1,-1
26107405148,0,-9,-3,4,4,2,2,0
26107416695,-3,-4,0,-3,-1,-1,-2,-2
26107416695,-3,-7,-4,1,3,0,0,1
26107425570,-2,-8,-3,-1,1,-1,-1,-1
26107425570,-1,1,-5,-4,-2,0,0,1
26107439976,-4,-9,0,3,2,0,0,0
26107439976,0,12,2,-1,-3,-1,0,0
26107446737,0,-6,-4,-2,-1,-2,-3,-3
26107446737,-3,-10,-2,-3,-3,1,0,0
26107463107,0,7,-1,1,0,-3,-4,1
26107463107,1,1,4,-1,0,-1,0,-1
26107464589,-12,-33,-15,1,0,0,-1,-3
26107464589,8,29,17,4,1,0,1,1
26107476749,3,18,3,-6,-3,-4,-1,-1
26107476749,-4,-5,-6,1,0,1,0,0
26107485569,-2,-8,2,1,-2,-1,-1,1
26107485569,1,-2,-8,-1,-2,-3,-2,-3
26107500097,-1,-2,1,-1,-1,1,1,-1
26107500097,3,4,-4,-6,-4,-2,1,1
26107508075,2,0,-2,-4,-3,-3,-2,-1
26107508075,-3,-6,2,3,0,2,1,0
26107522917,-2,-9,-4,-3,-2,-2,-2,-1
26107522917,3,8,0,-2,-1,-2,-1,0
26107524509,1,11,3,5,3,1,2,0
26107524509,-4,-4,-2,-4,-2,0,1,-2
26107536626,-2,-9,-6,-2,-1,-2,-1,1
26107536626,-6,-11,-4,-1,-3,-2,-1,-1
26107545593,5,15,7,2,2,2,1,-1
26107545593,-2,2,-2,-2,-2,-1,-2,-2
26107559780,-2,-7,0,-2,-2,-2,-1,-2
26107559780,-4,-7,-9,-7,-2,-2,-2,-1
26107566596,0,4,1,-2,-2,-1,-3,-1
26107566596,3,-11,-9,-1,-2,-1,-3,0
26107582942,-3,7,7,5,2,-1,-2,-3
26107582942,-3,6,3,1,-1,-3,-2,-1
26107584560,2,8,1,-3,-3,-2,-3,0
26107584560,-6,-16,-9,-4,-2,-1,1,-2
26107596543,1,8,-3,-2,-1,-3,-3,-2
26107596543,3,1,8,2,1,3,2,1
26107605570,-2,10,0,3,3,1,-1,-2
26107605570,-2,-3,-2,-1,-1,-2,-4,-2
26107619757,-5,-3,-1,0,0,2,2,-2
26107619757,-1,-10,-1,-2,-2,-1,2,-1
26107626563,-7,-4,-4,1,1,1,0,0
26107626563,-1,3,2,-3,-1,-1,-2,-1
26107642912,0,-2,-5,-1,-1,-1,0,0
26107642912,-5,-21,-8,-4,-2,-2,-3,-4
26107644550,4,16,4,2,0,0,2,2
26107644550,-2,5,8,-1,-4,-4,-3,-1
26107656588,-2,-9,-3,-1,1,2,-1,-2
26107656588,-4,-2,1,4,3,0,-1,-1
26107665651,-1,-6,-3,-5,-7,-4,-2,1
26107665651,-2,6,0,0,3,1,0,-1
26107679896,1,-1,1,-3,-4,-2,-1,1
26107679896,0,0,-2,0,-1,-1,-2,0
26107694175,-1,0,3,1,1,-1,-1,-2
26107694175,-1,-3,0,2,0,1,-1,-2
26107702944,-1,0,-3,-3,0,-2,-2,-2
26107702944,5,-10,-12,-7,-3,-3,-1,-2
26107704571,6,7,4,2,0,0,0,2
26107704571,1,-5,0,-2,-3,-2,-2,2
26107716609,0,4,-1,-1,0,-1,0,-1
26107716609,-5,-4,-4,-2,-2,-5,-6,-3
26107725542,-4,-11,-8,-6,-2,-1,1,-1
26107725542,-6,-21,-8,-1,1,-1,-1,-5
26107739877,1,4,8,-1,-3,-3,-1,1
26107739877,3,14,11,8,8,3,0,1
26107746592,3,-7,-2,0,1,1,-1,0
26107746592,-2,-8,-5,0,-2,-2,-3,-1
26107763566,1,8,-6,-2,-2,1,-1,-1
26107763566,-4,1,3,-1,-5,1,-1,0
26107765197,-6,-14,-8,-3,-2,-3,-3,-2
26107765197,3,6,0,-1,0,-1,-1,0
26107777097,-13,-51,-20,0,4,1,-1,-5
26107777097,11,57,37,10,1,-2,1,4
26107785543,-1,-1,-6,-3,-2,-1,-1,0
26107785543,2,6,-3,-7,-6,-5,-3,-2
26107799820,-1,-15,-9,-1,-1,0,0,-1
26107799820,-2,-1,-6,-5,-1,1,-1,-2
26107806610,-6,-12,1,2,2,0,-3,-2
26107806610,-2,3,-1,0,-2,0,0,-2
26107822975,2,17,8,-1,-3,-1,0,0
26107822975,-8,-21,-16,-6,-4,-3,-2,-3
26107824557,4,6,4,-1,-4,-5,-3,-1
26107824557,-1,9,3,2,1,1,-3,0
26107836560,6,11,0,-2,-4,-3,-1,1
26107836560,-1,-3,-2,-3,-2,0,-1,-2
26107845571,-10,-5,-4,-1,-1,-1,0,-1
26107845571,-4,-14,-6,-2,3,1,0,-2
26107859760,0,2,-2,-3,-1,1,2,2
26107859760,9,51,25,5,2,1,2,4
26107866561,0,-29,-26,-8,-3,-5,0,0
26107866561,3,26,13,-2,-3,0,1,0
26107882945,1,-5,-7,-2,-2,-3,-3,0
26107882945,-10,-26,3,4,0,2,-1,-7
26107884568,3,9,3,-3,-3,0,-3,-1
26107884568,-1,-12,0,2,1,1,1,1
26107896589,1,12,-1,-1,0,1,1,-2
26107896589,-9,-18,-5,0,0,-4,-3,-2
26107905531,-4,0,2,1,2,1,0,-3
26107905531,-6,-8,-3,0,-1,0,-1,-2
26107919730,4,8,8,3,0,1,1,0
26107919730,-2,-17,-16,-6,-3,-2,-2,-1
26107926582,-1,5,5,-1,0,1,0,-2
26107926582,4,13,0,-2,-3,-2,0,3
26107942321,-8,3,6,4,1,-2,-1,-2
26107942321,-3,-14,-13,-7,-7,-4,-3,-4
26107949102,-7,-12,-7,0,0,2,-1,-4
26107949102,10,31,19,4,2,2,0,2
26107956619,-3,4,-1,2,-1,3,3,0
26107956619,3,-1,-3,-5,-2,-2,-2,3
26107965637,-1,3,0,0,0,-2,-2,-1
26107965637,2,-9,-6,-1,-2,-3,-2,-2
26107980008,-1,1,0,0,-3,-1,-3,-1
26107980008,1,-5,-6,-1,0,3,3,-1
26107986707,0,7,3,-2,-2,0,-1,0
26107986707,-9,-19,-9,-1,1,-1,-3,-3
26108002436,1,4,5,-1,-2,-4,-6,-1
26108002436,0,-2,-2,2,1,3,-1,-2
26108009195,4,43,9,4,4,2,1,0
26108009195,-5,-21,-9,-1,0,0,1,-3
26108016619,1,3,-1,-5,-1,-3,-1,-1
26108016619,0,-1,-3,-3,-2,-2,-1,-1
26108025609,-2,-8,-3,-5,-3,-2,0,-2
26108025609,-10,-19,-10,-2,0,1,1,-2
26108039934,1,-5,8,4,1,1,0,1
26108039934,6,8,-5,-2,-3,-1,1,2
26108046697,1,-4,6,3,0,-1,-2,-1
26108046697,0,1,-1,-3,-2,-1,1,1
26108062312,-1,-14,-3,2,3,0,0,-3
26108062312,-3,-9,-4,-3,-2,-2,-1,1
26108069190,-2,-7,-4,-5,-3,-4,-1,-1
26108069190,3,12,2,4,2,2,-1,0
26108085509,-3,4,-1,-2,-1,-2,0,-1
26108085509,1,-3,-2,-1,-1,-3,-1,-1
26108087098,-3,-4,-3,-2,-2,-2,-1,-2
26108087098,-3,-6,1,-4,-2,-1,-3,-3
26108099800,0,-1,-5,-5,-6,-3,-1,0
26108099800,0,-2,0,3,3,2,0,-1
26108106682,0,-9,0,0,-3,-3,-1,-1
26108106682,-1,-3,-4,-3,-3,-1,-1,-2
26108122351,1,3,1,-2,0,-1,-3,-2
26108122351,-6,1,1,1,1,0,0,-3
26108129295,2,7,4,-1,-1,3,2,2
26108129295,-1,-17,-3,-1,-1,0,0,0
26108145523,-4,0,-3,0,-2,0,-1,-3
26108145523,1,12,0,1,0,-1,-4,-2
26108147059,0,1,1,3,2,0,-2,-1
26108147059,2,18,4,-4,-3,-5,-1,-1
26108159927,-8,-26,-7,0,0,0,0,0
26108159927,1,-3,5,2,4,0,0,0
26108166602,4,24,4,-1,-2,-2,-2,1
26108166602,0,3,-2,-1,-2,-2,-1,0
26108182353,-7,-1,-1,-1,0,1,2,-3
26108182353,2,-9,-4,-4,-5,-3,-1,2
26108189314,-7,-15,1,2,3,-1,-2,-2
26108189314,7,-4,-3,-2,0,1,1,3
26108205629,1,5,-1,0,-1,0,-1,-2
26108205629,-5,0,-2,-1,-3,-2,-1,-2
26108207105,-7,-17,-7,-4,-5,-1,0,-2
26108207105,7,25,11,5,3,1,-3,-1
26108219884,3,-3,3,3,4,1,-1,0
26108219884,-3,-1,-3,-4,-3,-1,-1,-1
26108226683,-1,-3,-6,-5,2,0,-3,-1
26108226683,-2,-5,2,0,-2,-1,-2,0
26108242279,3,2,-1,-2,0,1,0,1
26108242279,1,-3,-1,1,0,1,1,-1
26108249025,-4,-11,-5,-2,-1,-1,0,-1
26108249025,2,7,-4,-1,-1,-1,0,-1
26108265484,-9,-17,-9,1,0,0,-2,-3
26108265484,2,13,6,-2,-4,-2,-2,-2
26108267046,3,-5,-1,-3,-4,-1,1,1
26108267046,-3,-8,-1,0,3,0,0,-3
26108279834,0,-1,-6,0,1,0,1,1
26108279834,-1,2,-2,-3,-2,-3,-4,0
26108286722,2,3,1,2,-1,1,0,1
26108286722,-1,-2,-3,-1,-4,-2,-2,-1
26108302327,1,-10,-9,-10,-6,-4,-2,-1
26108302327,-2,-7,-3,0,0,0,2,0
26108309103,0,11,7,3,2,0,-2,-1
26108309103,-4,-7,-7,-4,-1,-2,-2,0
26108325472,1,15,2,0,-4,-4,-1,-2
26108325472,1,12,2,0,0,0,0,-2
26108327110,-6,-10,-5,-3,-3,-2,0,-4
26108327110,-9,-3,-4,-3,0,0,-1,-5
26108339176,3,-1,3,1,-1,-3,-1,1
26108339176,-3,2,5,0,2,0,-2,-1
26108348047,1,-1,-3,-1,-3,-2,2,-1
26108348047,-1,-9,-5,-2,-2,-2,-1,0
26108362242,0,-1,3,-1,-1,0,0,-3
26108362242,-1,-23,-11,-1,-2,-2,-3,-3
26108369142,-1,0,-1,0,-1,1,-3,-3
26108369142,-3,-3,4,0,0,1,2,-3
26108385387,-3,-1,1,-2,-2,-1,-1,-1
26108385387,3,6,0,-1,-1,0,-2,0
26108387013,-1,-5,-4,0,-1,1,0,-2
26108387013,2,8,2,3,-1,-1,-1,1
26108399179,-1,0,-3,0,0,2,0,-1
26108399179,-3,7,3,-3,-5,-2,-3,-2
26108408059,2,3,1,-1,-1,-3,-1,2
26108408059,-3,-9,-4,1,-1,-2,-1,-1
26108422395,-5,-15,-7,-5,-2,-1,1,-2
26108422395,4,29,9,4,2,0,0,-1
26108429190,3,-2,-2,-2,-2,-1,2,1
26108429190,-2,-2,0,-6,-5,-2,0,-2
26108445584,4,6,-1,-4,-3,-1,-1,0
26108445584,-7,-20,-8,0,1,1,-2,-2
26108447079,-3,-2,-2,-1,-2,0,-4,-2
26108447079,1,2,-3,-1,1,-1,0,0
26108459873,-1,0,2,2,-1,-1,-2,-1
26108459873,3,-4,-4,-4,-2,-3,-1,-1
26108466590,0,1,1,-1,0,-1,-4,-1
26108466590,-3,2,0,-2,0,-2,-1,-2
26108482426,0,5,1,0,-1,-3,-3,-2
26108482426,-3,-5,-3,0,0,1,0,1
26108489302,0,-6,-6,-1,-2,-1,-3,0
26108489302,-3,-3,-2,-5,-5,0,-5,-2
26108505584,-3,-5,6,7,3,2,-2,1
26108505584,3,9,0,-4,-1,-2,1,0
26108507028,-3,-3,1,-1,-1,-3,0,-2
26108507028,-5,-23,-10,-4,-1,-2,0,-1
26108535611,7,36,7,-2,-2,-4,-3,0
26108535611,-4,-9,0,7,2,0,1,-1
26108537019,-5,-9,-3,-4,-2,-2,1,-4
26108537019,3,11,1,0,-2,-3,-2,0
26108542431,-5,-11,-1,2,3,3,0,-2
26108542431,-1,-25,-14,-5,-4,-1,1,-1
26108549332,3,28,11,0,1,1,0,2
26108549332,-2,-4,-1,1,-1,2,-1,-1
26108565471,0,-7,-3,-2,-3,-1,-1,-1
26108565471,-3,-3,4,1,1,0,-2,0
26108567024,-3,-11,-5,-1,-4,-1,-1,0
26108567024,0,2,1,-4,-3,-4,-2,-2
26108579272,-2,-11,-5,2,4,0,2,2
26108579272,-3,7,2,3,1,0,-1,-2
26108588059,-1,4,3,-3,1,-1,2,0
26108588059,4,8,1,-2,-4,-2,0,0
26108602395,-2,2,-2,0,-1,-1,-1,-1
26108602395,-5,-13,-5,-2,-2,-2,-1,-2
26108609197,0,1,1,2,1,3,-1,0
26108609197,-1,2,0,0,-1,-2,-3,1
26108625527,-2,-6,-3,-4,-3,-1,0,-2
26108625527,1,-4,-2,-3,-2,-2,-2,1
26108626996,-1,2,-1,1,-1,0,-1,-2
26108626996,1,-5,2,2,2,1,0,0
26108639237,-2,4,1,-3,-1,-2,-1,-1
26108639237,0,-2,0,-2,-1,-1,-4,-1
26108648092,3,4,0,0,-3,-2,0,0
26108648092,-3,-1,-1,2,2,-1,-3,0
26108662369,-1,-8,-2,0,1,-1,-1,-2
26108662369,1,7,2,-3,-4,-3,-1,0
26108669069,0,0,-4,-3,-2,0,-1,1
26108669069,1,9,3,4,1,-1,0,-1
26108685548,-1,-2,-3,-4,-1,1,0,0
26108685548,-2,-5,-1,0,2,1,1,0
26108687055,-1,-7,-2,-2,-3,-3,-2,-2
26108687055,0,-5,-1,-5,-4,-3,-1,-1
26108707922,-2,-7,-3,-2,-1,0,-2,-2
26108707922,1,11,0,2,1,-1,-1,-2
26108709509,1,0,-3,-2,-2,-2,0,0
26108709509,1,-1,-2,-2,-1,-2,0,1
26108722256,-2,-2,0,0,-1,-2,-1,-1
26108722256,-1,-2,-3,-4,-5,0,-1,-2
26108729104,0,-8,-7,-2,-3,-1,-2,-2
26108729104,-1,7,3,0,-1,-1,-3,-2
26108745551,3,5,2,3,1,-2,0,0
26108745551,-2,-9,-2,1,1,-1,0,1
26108747073,-3,-6,-1,2,0,-2,-1,-2
26108747073,-3,-8,-6,-4,-2,-2,0,-1
26108767246,-4,-17,-4,-2,-2,-2,-3,-1
26108767246,2,22,5,0,-1,0,-2,1
26108768019,1,1,2,1,1,-1,-1,-1
26108768019,-4,-4,-3,-1,-1,0,0,-1
26108783136,0,1,-1,0,-2,-2,1,0
26108783136,-5,-6,-3,-2,1,-2,0,-3
26108789107,-2,-2,-3,-1,0,-2,0,-1
26108789107,-3,2,1,0,1,0,-2,-1
26108804720,-3,3,-2,-4,-3,-2,-4,-1
26108804720,-1,-6,-1,0,-2,0,-2,0
26108805476,-1,3,-1,2,2,0,1,1
26108805476,-2,0,-2,1,-1,-1,1,-2
26108827341,0,3,-7,-2,-3,-1,0,-2
26108827341,-1,-9,-6,-1,-3,0,0,-1
26108828018,0,-5,-3,-1,1,1,1,0
26108828018,0,2,-1,-2,-1,0,-2,-1
26108843038,-1,1,4,1,2,2,0,0
26108843038,0,3,3,-2,-1,0,1,-1
26108849100,-3,-6,0,-1,0,0,-1,-1
26108849100,-1,-6,0,2,0,-1,0,1
26108864786,0,-1,-1,0,-3,-1,-2,0
26108864786,3,10,8,1,-2,0,-2,1
26108865517,-2,9,3,-2,-3,-1,-2,1
26108865517,-2,2,3,-1,-1,-1,2,0
26108887333,0,-5,-1,-2,1,-2,-1,0
26108887333,-1,-7,-4,-2,-3,-3,-1,-2
26108888047,-2,-3,1,-1,-2,-1,-3,0
26108888047,0,-9,0,1,-1,0,0,0
26108903060,-5,-1,-1,-1,-2,1,1,-2
26108903060,-1,-7,-1,-3,-3,0,0,0
26108909220,2,5,0,-1,-2,-2,-2,-1
26108909220,1,-1,-5,-2,-1,-1,-3,-1
26108924193,-1,0,3,1,-1,1,-1,-1
26108924193,2,0,-1,-1,1,0,-1,-1
26108931579,-1,-4,-4,-3,-2,-1,0,-2
26108931579,3,3,1,0,0,1,0,-1
26108947386,1,0,1,-1,-2,-2,-1,-2
26108947386,-2,13,1,1,-1,-2,-2,-1
26108948010,-1,-3,-2,-3,-2,-2,-1,-2
26108948010,-3,-3,-4,-2,-1,-1,0,-2
26108963070,0,3,-1,-3,-2,-2,-3,-2
26108963070,-5,-11,-1,1,2,2,-1,-1
26108969163,-3,-5,0,-1,-1,-1,-1,-1
26108969163,-1,5,1,0,0,-2,-2,-2
26108984089,2,9,-1,-2,1,0,0,-1
26108984089,0,-3,-6,-3,-3,0,-2,0
26108991665,0,-4,-3,-1,-2,-1,-1,-1
26108991665,-1,-2,2,-1,-1,-1,-2,-1
26109007250,-2,-1,0,0,1,-2,1,-1
26109007250,-3,-6,-4,-1,0,-2,1,0
26109008053,0,4,1,1,-1,-1,-1,1
26109008053,-1,-3,-4,0,0,-1,0,-1
26109023080,-1,3,0,-1,-3,-1,-1,-1
26109023080,-4,0,-3,0,-1,0,-1,-2
26109029246,-3,-4,-1,-3,-3,0,-1,0
26109029246,-3,-4,1,0,-1,-1,-2,-2
26109044209,5,-4,-3,-1,0,-2,-2,1
26109044209,-3,-15,-2,1,1,0,-1,-1
26109051687,1,8,3,0,0,0,-1,0
26109051687,0,0,-1,-3,-3,-2,-1,-2
26109067273,-1,-2,-2,-2,-4,-2,-1,-1
26109067273,0,2,-2,-3,-1,-1,-3,-2
26109068057,2,1,-3,-3,-2,-2,0,-1
26109068057,-4,-1,-3,-3,-1,-1,-1,-3
26109083090,0,-2,2,2,0,0,0,1
26109083090,1,8,0,-1,-2,-3,0,-2
26109089200,-2,-5,-1,0,0,-2,-1,-4
26109089200,0,0,1,1,-3,-2,-2,-1
26109104232,-3,-3,-4,-1,-2,-2,-2,-1
26109104232,-2,-17,-5,-1,1,-1,1,-2
26109111744,5,9,6,-1,-1,1,0,-1
26109111744,2,5,6,1,-1,-2,1,0
26109127301,-1,-2,-1,-3,-1,-1,-2,0
26109127301,0,9,3,1,0,-1,-5,2
26109128024,-2,-16,-8,-2,-3,-2,-3,-1
26109128024,2,-3,-4,-4,-1,0,-2,0
26109143039,-2,4,3,-1,1,1,-3,-1
26109143039,-3,-7,-2,0,-2,0,-1,-2
26109149109,0,8,2,2,1,2,-1,0
26109149109,0,5,-2,0,0,1,-1,1
26109164194,-1,-4,-2,-3,-4,-2,1,-3
26109164194,2,1,-4,-3,-2,-1,0,0
26109171769,-2,-4,2,1,1,0,0,-2
26109171769,1,6,0,1,-1,-2,-3,-1
26109187193,-2,-2,1,1,1,-1,0,-1
26109187193,1,5,0,-1,-2,-2,-2,-1
26109188015,-4,-3,-2,1,1,1,-1,0
26109188015,-4,-13,-4,-3,-1,-2,-1,-2
26109203320,0,-3,-1,-2,-2,-1,-3,-1
26109203320,-2,-5,1,0,-2,-1,-2,1
26109208999,0,-11,-5,-2,-2,-2,-1,-1
26109208999,1,8,0,0,2,-2,2,0
26109224024,-1,4,-3,1,0,-1,3,-1
26109224024,-2,6,2,2,0,0,1,-1
26109231518,-3,-5,-4,2,1,-3,1,-1
26109231518,-3,-1,-3,-11,-4,-2,-1,-2
26109247323,-1,4,0,-2,-2,-2,-2,-2
26109247323,-4,-13,-9,-6,-2,-2,1,-2
26109247982,2,11,4,-1,-2,1,-2,0
26109247982,-2,-13,-2,-1,-1,-3,-5,-1
26109261670,0,1,3,1,2,1,-3,0
26109261670,2,2,2,-1,-3,-2,-1,0
26109269214,-4,-11,-3,-1,2,0,-1,1
26109269214,-3,0,-2,1,-1,0,1,-2
26109284115,0,-3,-4,-5,-1,-1,0,0
26109284115,2,6,2,0,0,1,-3,-1
26109291730,-1,1,-2,0,1,-1,0,-1
26109291730,2,10,1,0,-2,-1,0,1
26109307242,0,-7,-2,1,-2,-1,-1,0
26109307242,0,2,1,-1,-1,-1,-1,-2
26109308037,0,1,-1,-5,-4,-3,-2,-1
26109308037,-5,-12,-5,-2,2,1,-2,-2
26109321533,0,-3,-2,-3,-3,-1,-1,-1
26109321533,3,12,1,-4,-3,-3,-2,0
26109329205,-3,1,1,1,2,0,0,-2
26109329205,1,2,-1,3,1,-1,-1,-1
26109344112,-1,1,-3,0,0,-1,1,-1
26109344112,-6,-15,-9,-2,-3,-1,-2,-2
26109351641,3,10,6,-2,-3,-2,-1,-1
26109351641,-1,-7,1,-1,-3,-1,-1,-2
26109367377,-2,7,-3,-7,-4,-3,-2,-2
26109367377,-4,-20,-7,-2,-1,-3,-1,-2
26109368021,1,3,2,1,1,1,-1,-2
26109368021,1,0,1,3,2,1,1,1
26109389887,-2,0,-1,-3,-3,-3,-3,0
26109389887,-2,-2,-1,1,-1,-4,0,-1
26109390525,0,2,-2,2,4,0,1,1
26109390525,-2,-5,0,-1,-1,0,0,0
26109412404,-1,2,2,-1,0,0,-2,0
26109412404,0,-2,0,-3,-1,-1,1,0
26109413020,-3,0,-1,-4,-2,-3,-2,-3
26109413020,0,-3,0,-1,0,0,-2,0
26109427294,-1,-8,-3,0,-1,-1,0,-2
26109427294,1,1,1,-1,0,-2,-2,0
26109428013,0,-6,-9,-8,-6,-2,0,-2
26109428013,-7,-16,-9,-4,-4,-1,-3,-3
26109443072,3,6,10,15,11,6,3,0
26109443072,3,6,5,1,3,-1,0,1
26109449073,-2,-5,-4,-4,-2,-3,-3,-1
26109449073,0,0,-6,-10,-4,-5,-2,-2
26109464251,-2,-4,-5,-7,-2,0,0,0
26109464251,-1,2,6,15,8,5,3,1
26109471653,-3,-9,-8,-6,-4,-2,-2,0
26109471653,1,-2,4,5,2,0,-2,0
26109487357,5,21,8,-2,-2,-2,-3,0
26109487357,-4,-6,-6,-8,-5,0,-2,-3
26109488024,-1,-6,0,-3,-3,-2,-1,0
26109488024,0,9,-2,1,0,0,-1,0
26109501666,-3,-13,-6,0,-1,-1,-3,-3
26109501666,2,5,-1,-3,-2,-1,-2,-1
26109509173,-1,-6,-4,1,0,-2,-1,0
26109509173,0,3,1,0,0,-4,-1,-3
26109524200,-1,0,-1,-2,1,-2,-2,-1
26109524200,-1,5,0,0,-4,-2,-2,-2
26109531715,-1,-1,-1,-1,-1,0,-1,-1
26109531715,0,0,-1,-4,-3,0,0,-1
26109547257,0,2,4,1,0,1,-1,1
26109547257,-4,-7,-6,0,3,-1,-2,-1
26109547992,-3,-6,4,-3,-4,-4,-2,-2
26109547992,3,13,8,-4,-8,-1,1,0
26109561648,0,8,1,7,10,8,2,2
26109561648,-2,-12,-5,-8,-2,-2,-1,-3
26109569169,1,19,16,16,5,3,1,-2
26109569169,-3,-2,-2,-1,-3,-4,-1,0
26109584089,-5,-16,-10,-9,-10,-5,-4,-3
26109584089,2,3,3,2,1,-1,0,0
26109591678,-3,-4,-5,-5,-1,-1,-3,-3
26109591678,-3,-8,-5,-4,0,2,-3,-2
26109607321,0,-1,-4,-12,-10,-6,-2,2
26109607321,-3,-3,-3,-2,-6,-6,-4,-2
26109607987,2,0,2,7,5,9,3,1
26109607987,-1,5,1,5,7,4,2,1
26109623083,-3,-8,-8,1,0,-2,0,-2
26109623083,-6,-4,-9,-14,-7,-4,-2,-3
26109629182,0,-10,12,-1,-1,-2,-1,2
26109629182,1,8,-5,2,4,2,-1,2
26109644199,0,6,12,8,2,-1,-2,-1
26109644199,6,17,28,10,4,4,3,2
26109651608,-3,-11,-16,0,1,-1,0,-2
26109651608,-5,-21,-6,-3,-3,-1,-4,-5
26109667333,4,19,-1,-1,-3,-2,2,1
26109667333,-1,-11,-12,0,2,2,-1,-2
26109668000,0,6,0,-13,-10,-5,3,-1
26109668000,-4,-12,-9,0,4,-1,-1,-3
26109681643,-1,-2,-5,2,2,-1,-2,-2
26109681643,-2,-13,-12,-3,-1,-1,-2,-1
26109689201,6,19,10,3,1,1,-1,2
26109689201,-2,9,-3,-6,-8,-6,-3,-3
26109704192,-3,-18,-7,-3,-4,-3,-2,0
26109704192,2,14,10,-2,-1,-4,-1,-1
26109711646,-4,-20,-24,-6,1,4,-2,0
26109711646,-4,-9,-12,5,3,-1,0,-2
26109727341,3,17,27,12,10,7,-1,-2
26109727341,-1,0,-4,-8,-8,-2,3,-2
26109728018,-12,-16,-18,-13,-15,-12,-13,-13
26109728018,9,-2,9,12,7,1,-2,3
26109743073,0,6,4,8,12,9,15,13
26109743073,5,2,1,2,6,4,-4,-4
26109749189,-4,-7,-14,-12,-4,-5,-4,-4
26109749189,-5,4,6,-9,-10,-7,-8,-5
26109764248,-1,2,0,-6,-10,-9,-4,-3
26109764248,-1,6,6,0,5,2,3,-1
26109771648,0,9,7,3,2,-1,0,-1
26109771648,-4,-25,-16,-7,-8,-5,-1,-1
26109787379,5,7,0,3,1,3,-7,0
26109787379,2,24,5,1,1,3,9,3
26109788018,-3,-23,-27,-10,-6,-5,-4,-3
26109788018,0,7,20,20,13,3,8,6
26109809838,-3,-43,-22,-7,-1,2,1,-6
26109809838,0,51,48,8,-7,-8,-18,-11
26109810536,7,-3,-16,-16,-2,7,13,8
26109810536,9,35,-12,-23,-18,-11,-25,-10
26109824106,-8,17,51,21,2,-1,14,-3
26109824106,-2,-32,-19,3,7,-1,-5,19
26109831589,-10,-2,11,-3,-8,-11,-33,-29
26109831589,-7,-12,-24,-9,1,11,24,-3
26109846647,18,15,-3,-5,-1,6,30,25
26109846647,-26,-18,-1,-4,-7,-2,0,-13
26109854881,2,7,11,11,5,-2,-9,5
26109854881,-1,-9,-1,2,2,-1,-3,1
26109861671,-9,-38,-22,-5,-3,-7,-13,-13
26109861671,6,13,5,-5,-6,-8,-4,-3
26109869139,5,15,5,13,11,9,11,7
26109869139,4,6,12,6,7,5,-4,-1
26109884052,-11,-16,-25,-6,-5,-8,-18,-18
26109884052,0,-35,-25,-17,-11,-7,-1,14
26109891510,-1,19,6,-13,-4,3,22,2
26109891510,-8,-6,0,-10,-6,-4,-5,5
26109906703,8,52,30,15,4,4,5,-6
26109906703,-14,-37,-60,-25,-12,-7,-15,-14
26109914886,7,-6,17,19,6,4,13,7
26109914886,-8,-10,12,18,10,5,1,-2
26109921680,0,-7,-16,-23,-6,-6,-13,-3
26109921680,13,31,22,20,10,8,11,6
26109929183,-4,-1,2,3,-5,-6,-20,-13
26109929183,-3,-11,1,5,-2,0,24,31
26109944250,-23,-38,-30,-20,-12,-4,-5,-23
26109944250,13,52,20,9,4,3,8,-6
26109951721,29,2,16,2,3,5,11,40
26109951721,-14,-24,-34,-16,-11,-9,-3,-25
26109966621,14,66,43,14,5,-1,-6,9
26109966621,-16,-53,-37,-10,2,2,-2,-5
26109974852,-16,-20,-15,-5,-3,-3,-4,-17
26109974852,10,44,2,-3,-2,-5,-10,-3
26109981796,-3,-28,32,21,4,6,3,6
26109981796,-1,-21,4,5,0,-5,-16,-9
26109989057,4,13,0,-12,-6,-2,2,7
26109989057,5,58,17,-14,-6,-7,-11,-10
26110004008,-1,-12,-32,-37,-18,-2,19,-4
26110004008,27,74,29,13,2,-3,-10,21
26110011620,-12,-85,-21,8,2,4,26,12
26110011620,-21,-70,-9,8,7,6,-4,-7
26110026688,12,93,25,14,4,-1,1,-3
26110026688,-3,-6,-10,-4,4,4,1,-8
26110034879,-1,-1,-28,-8,0,1,6,-2
26110034879,7,13,44,9,-4,-7,-20,-5
26110049869,-27,-122,-82,-25,4,7,11,5
26110049869,8,39,61,36,9,6,20,25
26110050508,-10,25,8,-15,-11,-13,-12,-15
26110050508,6,-11,-24,-13,2,5,10,3
26110064147,-9,-62,-9,14,-3,-7,-22,0
26110064147,-4,-51,-24,-6,-3,1,11,-10
26110071675,1,14,-15,-18,-6,0,-5,-13
26110071675,-4,-66,-4,16,5,4,0,3
26110086672,4,-10,-8,21,15,3,-41,-19
26110086672,11,55,56,4,-2,8,50,50
26110094869,43,107,58,23,5,-2,-1,12
26110094869,-58,-118,-60,-22,-4,6,9,-6
26110109790,-1,87,23,5,1,-4,-25,-19
26110109790,0,-13,-24,-10,2,5,17,7
26110110616,2,-28,10,28,3,-1,-12,-4
26110110616,8,15,26,-7,-4,-6,6,-1
26110124169,27,91,55,1,-3,-3,1,10
26110124169,-4,-28,-36,-12,-5,-20,-112,-61
26110131694,8,-20,-9,22,17,21,86,56
26110131694,32,47,-6,-42,-24,3,27,20
26110146804,-39,-58,-55,-17,-14,-11,-3,-17
26110146804,5,25,-15,-15,-6,-4,-2,-23
26110154209,11,33,-2,2,2,-7,-44,-25
26110154209,-11,57,59,31,6,0,-2,12
26110169684,21,43,-6,-39,-14,-4,16,8
26110169684,-12,-40,9,19,1,1,5,-3
26110170457,-14,-35,-28,2,8,-2,-16,-7
26110170457,-29,-40,-48,-9,-2,-5,-36,-37
26110184010,22,19,51,-17,-16,5,54,57
26110184010,-10,25,33,5,3,2,7,-6
26110191566,-31,8,-24,-58,-28,-18,-26,-29
26110191566,25,16,-26,-2,-7,-2,4,18
26110206686,-16,-37,-9,7,1,-9,-25,-26
26110206686,-21,-31,-38,-24,-10,2,10,-9
26110214898,10,-13,5,17,10,7,12,9
26110214898,4,-10,12,-1,-1,-12,-21,-16
26110229805,-11,-10,9,-18,-1,2,-7,-2
26110229805,10,-33,-40,9,5,-3,13,12
26110230495,-4,60,81,24,-2,-4,-30,-13
26110230495,-1,0,-8,15,5,5,17,7
26110244150,1,-55,-40,15,6,2,4,9
26110244150,10,9,-29,-23,-11,-5,-5,-3
26110251681,-7,-17,-6,-2,0,0,-9,-5
26110251681,15,21,-19,7,11,8,8,6
26110266616,-10,-21,15,-4,-5,-6,-3,-1
26110266616,17,12,72,44,10,4,-14,-11
26110274859,-10,-72,-30,7,-4,-12,-32,-17
26110274859,18,2,-37,-17,0,12,31,28
26110289861,14,32,41,12,12,12,9,7
26110289861,-10,-38,-36,-11,1,-1,11,9
26110290526,26,106,88,12,-5,-3,7,1
26110290526,12,71,40,29,5,-8,-19,-5
26110304186,-18,-85,-90,-39,-10,-7,-22,-16
26110304186,4,33,60,28,6,-1,-5,0
26110311631,-28,-42,-49,-27,3,11,18,-10
26110311631,-21,-67,2,9,-9,-11,-13,-15
26110326689,32,85,6,8,4,2,4,34
26110326689,-18,-48,51,3,0,-3,5,-3
26110334857,-20,19,-50,-32,-12,-7,-9,9
26110334857,12,16,8,-1,1,1,3,-9
26110349759,-9,-48,2,23,7,-1,-22,-15
26110349759,33,69,20,2,-1,9,32,27
26110350505,-24,-107,-71,-5,5,2,10,12
26110350505,23,69,29,-15,7,4,-22,-39
26110364109,32,93,98,49,-5,-6,26,32
26110364109,-18,-58,-95,-41,-10,-5,24,42
26110371670,-9,-46,-21,-27,-16,-6,-8,-4
26110371670,-15,-103,-42,-10,1,-3,-2,-14
26110386689,6,56,56,39,18,11,14,6
26110386689,9,5,-22,-35,1,2,-7,-3
26110394849,11,9,95,99,4,-15,-49,-24
26110394849,-11,58,21,-9,-6,-7,-12,-27
26110410236,-32,-54,-68,-20,0,15,51,22
26110410236,7,-27,16,7,1,2,4,3
26110410950,-22,-15,-29,-10,-5,-5,-5,-15
26110410950,-9,-9,-47,-31,-15,-13,-40,-9
26110424156,-5,-50,41,28,11,5,13,-15
26110424156,1,9,-47,-3,-11,-9,-42,-33
26110431674,7,-31,-54,-23,0,5,47,21
26110431674,-8,-45,-11,6,3,8,18,23
26110446637,-2,-34,-33,-39,-5,5,21,9
26110446637,-3,-13,-2,19,4,2,-6,-9
26110454845,11,19,71,32,2,-8,-26,-15
26110454845,2,15,-28,2,-7,-5,10,16
26110469682,17,21,-1,-22,-1,-6,-19,1
26110469682,-6,-40,-24,11,11,-1,-28,-40
26110470438,-4,54,3,-80,-26,-2,27,18
26110470438,32,26,40,54,11,1,-4,21
26110484056,-50,-115,-84,-35,-19,-20,-16,-25
26110484056,19,42,44,-3,-6,5,17,9
26110491502,-9,-42,-47,-14,-3,-1,0,13
26110491502,3,-4,-39,-42,3,6,15,2
26110506507,11,55,28,3,-1,-7,-39,-3
26110506507,-37,-95,-50,-10,-4,-1,-1,-5
26110514848,19,44,37,14,17,14,19,8
26110514848,-8,42,55,0,-16,-15,-22,-16
26110529837,15,16,-10,24,12,1,-6,2
26110529837,-18,-36,-33,-36,-16,-2,24,-19
26110530515,5,-80,-6,5,-1,1,-14,6
26110530515,-7,44,77,38,13,4,-12,-21
26110552297,-3,-36,-83,-33,-5,9,54,17
26110552297,-17,24,61,43,14,7,0,16
26110552963,-2,-40,-64,-13,-12,-12,-18,-17
26110552963,-11,-36,36,-13,-12,-4,6,-12
26110566696,-18,9,41,39,8,-10,-63,-48
26110566696,39,77,-32,-56,-30,-3,30,41
26110574855,0,29,31,13,0,-3,17,1
26110574855,-27,-99,-44,3,3,2,1,5
26110589897,8,26,-34,-5,6,9,-7,-19
26110589897,-2,63,62,-9,-14,-17,-25,-22
26110590478,-5,-34,-8,13,25,14,-3,3
26110590478,25,67,-25,-31,-2,2,5,11
26110604146,14,-38,24,5,0,0,18,-3
26110604146,-36,-92,-101,-28,-3,-10,-27,-14
26110611670,12,-10,36,43,9,-6,-17,-27
26110611670,-14,-31,-6,-19,2,15,26,71
26110626621,1,48,38,-11,-8,-2,9,16
26110626621,-5,-20,-17,8,0,-2,-1,-6
26110634884,-15,25,-23,-11,-2,-11,-42,-15
26110634884,-12,-7,12,21,5,6,27,-24
26110649760,10,16,-5,-7,-4,-12,-13,-1
26110649760,21,8,64,-10,-4,5,-8,27
26110650493,5,33,-42,-5,-3,2,15,-4
26110650493,2,18,14,20,-1,-8,-11,2
26110664156,-17,-108,-69,-58,-21,-7,-20,17
26110664156,2,44,-14,-3,12,2,18,-22
26110671657,12,-11,-9,14,4,5,10,-5
26110671657,13,-30,3,6,5,-3,-7,13
26110686669,7,-42,0,-3,-14,1,13,32
26110686669,-48,-21,33,47,12,-5,-41,-27
26110694748,39,0,-18,-38,-16,-7,10,6
26110694748,-80,-82,-84,-32,-28,-30,-35,-51
26110709683,19,33,19,3,12,24,37,5
26110709683,7,-13,-87,2,-7,-10,5,43
26110710443,-18,-6,13,-21,-2,3,-10,-6
26110710443,25,18,-3,-23,-5,-10,-7,-14
26110724183,-55,-74,-76,3,7,5,-7,-29
26110724183,9,98,95,1,1,0,0,-11
26110731688,-10,-22,-57,-11,-1,2,-2,0
26110731688,19,-63,-97,-86,-32,-11,-8,8
26110746801,-22,29,78,89,33,10,-9,-22
26110746801,31,27,79,43,11,-3,2,-7
26110754854,-17,-41,-30,-37,-32,-33,-44,-16
26110754854,-47,5,39,35,23,40,71,22
26110769835,23,-10,-74,-43,-19,-16,-1,17
26110769835,-9,-59,-26,-13,-10,-22,-92,-43
26110770515,8,66,120,95,34,24,70,20
26110770515,33,59,50,0,-4,6,28,61
26110784075,-21,9,-9,-22,-14,-19,-57,-40
26110784075,19,-9,-32,-47,-5,15,47,24
26110791676,4,-15,-44,-55,-13,3,16,53
26110791676,30,30,-1,49,18,0,-9,-19
26110806655,-22,41,53,5,2,4,19,7
26110806655,-12,-61,-83,-39,-8,-7,-5,5
26110814866,3,40,43,4,-3,-9,-21,-8
26110814866,7,-54,-48,22,7,1,1,-15
26110829114,-26,-65,-74,-11,2,4,-11,-12
26110829114,14,56,83,59,10,6,28,6
26110837340,-10,-43,-85,-26,1,10,15,6
26110837340,-8,-16,-20,23,13,-8,-25,-22
26110844182,42,74,99,6,-1,-2,14,26
26110844182,-24,-53,-93,-42,-4,6,-3,-3
26110852373,-3,76,63,24,-4,-12,-22,-45
26110852373,-16,-47,-22,-32,-13,-6,-16,-21
26110866581,24,-44,-58,-15,-10,-3,-5,1
26110866581,-11,-7,-38,-15,3,10,30,61
26110874822,16,8,61,19,11,-2,-33,-11
26110874822,5,51,22,14,22,20,34,37
26110889276,-25,-110,-80,-31,-34,-23,-30,-42
26110889276,18,97,40,46,21,13,5,3
26110905561,8,-8,-37,-1,7,6,31,23
26110905561,11,17,-6,-21,-19,-8,-20,-21
26110907062,-9,-30,-45,-23,-7,-10,-29,-28
26110907062,-14,-61,-61,-52,-17,-14,-14,2
26110912325,3,2,79,74,17,10,16,-12
26110912325,13,37,-13,4,12,8,21,32
26110926588,32,20,-7,-24,0,6,16,36
26110926588,-27,-67,46,43,4,-1,-27,-48
26110934819,23,25,-21,-3,4,11,50,22
26110934819,0,-13,-49,-26,2,-11,-50,-33
26110949105,-48,-10,23,14,5,17,38,12
26110949105,13,-14,25,24,9,7,23,11
26110957310,-11,-17,-19,-9,2,7,2,14
26110957310,-14,-94,-72,-40,-18,-20,-30,-20
26110964145,30,82,41,31,16,2,-13,-16
26110964145,0,58,-9,-43,-20,-10,2,-15
26110972330,-11,-23,39,69,21,3,-5,-10
26110972330,-21,-48,-42,-43,-21,-8,-2,2
26110986644,-9,25,22,18,-3,-15,-30,-19
26110986644,24,36,16,7,1,4,1,6
26110994977,-21,-39,-24,-35,-19,-19,-39,-17
26110994977,15,60,84,39,9,10,23,17
26111009185,15,-32,-50,-29,3,12,13,34
26111009185,-24,-40,-4,-10,-10,-12,-18,-22
26111017243,2,-15,-4,8,3,10,44,16
26111017243,-21,4,34,20,11,13,43,6
26111033084,19,23,-78,-45,-13,-4,14,30
26111033084,13,3,37,-1,-3,-1,-4,-7
26111033685,1,16,-20,-24,-15,-18,-50,-16
26111033685,6,20,75,60,28,17,12,4
26111046673,3,-13,13,27,16,15,64,7
26111046673,5,-3,-17,12,4,-3,2,-2
26111054896,-11,-34,-61,-25,-2,2,-6,12
26111054896,20,66,95,19,-4,-11,-33,-23
26111078063,6,31,40,19,0,-8,-19,-5
26111078063,8,12,-34,-8,-5,1,8,6
26111078703,-15,-11,-58,-30,-5,-4,-9,-19
26111078703,47,81,46,61,21,11,3,27
26111093054,-26,3,72,57,6,-8,-24,-28
26111093054,3,-28,-44,-32,-16,-8,-2,14
26111093691,-10,-69,-100,-54,-14,0,7,-1
26111093691,-4,16,11,-4,-11,-7,-6,-1
26111106489,-1,-10,-3,-6,-7,-8,-23,2
26111106489,2,25,20,-35,2,1,-15,-13
26111114705,6,42,89,28,21,6,8,21
26111114705,-6,-52,-37,-42,-12,1,21,32
26111129115,-2,8,-21,-17,-8,-9,-19,-17
