26894693113,-0.0706787109375,-0.140319824219,0.00775146484375,0.987548828125
26894715881,-0.069580078125,-0.140319824219,0.00726318359375,0.987609863281
26894739588,-0.0680541992188,-0.140502929688,0.00689697265625,0.987670898438
26894755139,-0.064453125,-0.140502929688,0.00628662109375,0.987915039062
26894760825,-0.061767578125,-0.147399902344,0.00518798828125,0.987121582031
26894784544,-0.0595092773438,-0.153198242188,0.00408935546875,0.986389160156
26894805733,-0.061279296875,-0.151733398438,0.004150390625,0.986511230469
26894820742,-0.0642700195312,-0.14453125,0.00506591796875,0.987365722656
26894844558,-0.0638427734375,-0.144714355469,0.00494384765625,0.987365722656
26894890201,-0.0630493164062,-0.146362304688,0.0047607421875,0.987182617188
26894892299,-0.065185546875,-0.144165039062,0.00506591796875,0.987365722656
26894904507,-0.0673828125,-0.137634277344,0.00592041015625,0.988159179688
26894926500,-0.0641479492188,-0.140991210938,0.0052490234375,0.987915039062
26894942169,-0.0662231445312,-0.140380859375,0.00531005859375,0.987854003906
26894971603,-0.0657958984375,-0.140808105469,0.00518798828125,0.98779296875
26895015524,-0.0654296875,-0.140563964844,0.0050048828125,0.987854003906
26895033315,-0.065185546875,-0.140319824219,0.0050048828125,0.987915039062
26895034824,-0.065185546875,-0.140319824219,0.00494384765625,0.987915039062
26895046319,-0.0654296875,-0.139038085938,0.0048828125,0.988098144531
26895060742,-0.0684204101562,-0.136657714844,0.00543212890625,0.988220214844
26895083135,-0.069091796875,-0.138732910156,0.00531005859375,0.987854003906
26895105496,-0.0698852539062,-0.137451171875,0.00555419921875,0.987976074219
26895120650,-0.0702514648438,-0.13623046875,0.00567626953125,0.988159179688
26895143134,-0.0668334960938,-0.141418457031,0.004638671875,0.987670898438
26895165566,-0.0660400390625,-0.144836425781,0.00408935546875,0.987243652344
26895180524,-0.0690307617188,-0.138061523438,0.00494384765625,0.987976074219
26895203173,-0.0681762695312,-0.136291503906,0.0048828125,0.98828125
26895221004,-0.0648803710938,-0.143005371094,0.00372314453125,0.987548828125
26895240674,-0.0625,-0.147705078125,0.00311279296875,0.986999511719
26895263081,-0.0630493164062,-0.1484375,0.0030517578125,0.986877441406
26895280976,-0.06298828125,-0.147888183594,0.0028076171875,0.986999511719
26895300682,-0.0628051757812,-0.1474609375,0.0025634765625,0.987060546875
26895323133,-0.0625610351562,-0.147033691406,0.00238037109375,0.987121582031
26895340916,-0.0626220703125,-0.146667480469,0.0020751953125,0.987182617188
26895360644,-0.062744140625,-0.146179199219,0.0018310546875,0.987243652344
26895383049,-0.062744140625,-0.145751953125,0.00164794921875,0.9873046875
26895400957,-0.062744140625,-0.145629882812,0.00164794921875,0.9873046875
26895420597,-0.062744140625,-0.145568847656,0.00164794921875,0.9873046875
26895443125,-0.0626831054688,-0.145324707031,0.00140380859375,0.987365722656
26895461013,-0.0626831054688,-0.145263671875,0.00146484375,0.987365722656
26895481983,-0.0626831054688,-0.14501953125,0.00128173828125,0.987426757812
26895510526,-0.0626220703125,-0.144775390625,0.00103759765625,0.987426757812
26895520942,-0.0625610351562,-0.144470214844,0.00079345703125,0.987487792969
26895542064,-0.0621948242188,-0.143920898438,0.0006103515625,0.987609863281
26895563126,-0.0615234375,-0.143310546875,0.00042724609375,0.987731933594
26895585495,-0.0607299804688,-0.142639160156,0.000732421875,0.987854003906
26895601972,-0.0597534179688,-0.141967773438,0.00146484375,0.988037109375
26895623110,-0.057861328125,-0.141235351562,0.00238037109375,0.98828125
26895640945,-0.057861328125,-0.140319824219,0.00347900390625,0.988403320312
26895662037,-0.0585327148438,-0.139465332031,0.004638671875,0.988464355469
26895683160,-0.0593872070312,-0.137817382812,0.00537109375,0.988647460938
26895705596,-0.0621948242188,-0.135559082031,0.00604248046875,0.98876953125
26895722016,-0.0665893554688,-0.133483886719,0.00677490234375,0.98876953125
26895743117,-0.0701293945312,-0.131286621094,0.00775146484375,0.988830566406
26895765561,-0.0722045898438,-0.128601074219,0.00927734375,0.989013671875
26895789443,-0.073486328125,-0.126037597656,0.0108032226562,0.989196777344
26895803141,-0.0740356445312,-0.122375488281,0.0125732421875,0.989624023438
26895820927,-0.0743408203125,-0.116821289062,0.01416015625,0.990234375
26895841959,-0.0740966796875,-0.110046386719,0.0155029296875,0.991027832031
26895864522,-0.0735473632812,-0.103576660156,0.0156860351562,0.991760253906
26895881064,-0.0745849609375,-0.097412109375,0.0152587890625,0.992309570312
26895903512,-0.0762939453125,-0.0910034179688,0.0149536132812,0.992797851562
26895923171,-0.0792236328125,-0.0861206054688,0.0150756835938,0.992980957031
26895940903,-0.0823974609375,-0.0807495117188,0.01513671875,0.9931640625
26895963509,-0.0866088867188,-0.0748901367188,0.0153198242188,0.993286132812
26895982990,-0.0891723632812,-0.0682373046875,0.014892578125,0.993530273438
26896006167,-0.089599609375,-0.0602416992188,0.014892578125,0.994018554688
26896022622,-0.0886840820312,-0.0509643554688,0.0153198242188,0.99462890625
26896045180,-0.0872192382812,-0.0403442382812,0.0159301757812,0.995239257812
26896066188,-0.08642578125,-0.0282592773438,0.016845703125,0.995666503906
26896090143,-0.087158203125,-0.01513671875,0.0181884765625,0.995910644531
26896111461,-0.08935546875,-0.00115966796875,0.0199584960938,0.995788574219
26896126277,-0.0919189453125,0.013916015625,0.022216796875,0.995361328125
26896142689,-0.0935668945312,0.0298461914062,0.02490234375,0.994812011719
26896165107,-0.0941162109375,0.0468139648438,0.0277709960938,0.994018554688
26896186254,-0.0924682617188,0.0648193359375,0.0313110351562,0.993103027344
26896201988,-0.0903930664062,0.0833740234375,0.0354614257812,0.991760253906
26896225170,-0.0881958007812,0.102722167969,0.0399169921875,0.989929199219
26896246342,-0.0863647460938,0.122619628906,0.0446166992188,0.987670898438
26896262029,-0.0849609375,0.142761230469,0.0496215820312,0.984802246094
26896285138,-0.0830078125,0.16259765625,0.0552368164062,0.981628417969
26896306275,-0.0809936523438,0.18212890625,0.0614013671875,0.977966308594
26896321929,-0.0783081054688,0.201782226562,0.0675659179688,0.973937988281
26896345171,-0.0755004882812,0.221130371094,0.0733642578125,0.969543457031
26896366212,-0.0720825195312,0.240051269531,0.0790405273438,0.964782714844
26896381979,-0.0678100585938,0.258605957031,0.0848999023438,0.959838867188
26896405160,-0.0635375976562,0.276245117188,0.0906372070312,0.954650878906
26896427629,-0.0596923828125,0.29345703125,0.0960693359375,0.94921875
26896441997,-0.0557861328125,0.310119628906,0.101196289062,0.943603515625
26896466047,-0.0516357421875,0.326171875,0.106262207031,0.937866210938
26896487576,-0.0468139648438,0.341674804688,0.111083984375,0.932006835938
26896501927,-0.0426025390625,0.356506347656,0.115783691406,0.926086425781
26896525159,-0.0389404296875,0.370544433594,0.120239257812,0.920104980469
26896547649,-0.0347900390625,0.384033203125,0.124389648438,0.914184570312
26896568746,-0.03076171875,0.397094726562,0.128112792969,0.908203125
26896585111,-0.0267333984375,0.409362792969,0.131591796875,0.902404785156
26896607644,-0.0227661132812,0.420837402344,0.134826660156,0.896728515625
26896628803,-0.018798828125,0.431457519531,0.137756347656,0.891296386719
26896645124,-0.014404296875,0.441467285156,0.140258789062,0.886047363281
26896667629,-0.0098876953125,0.450744628906,0.142517089844,0.881103515625
26896688831,-0.00634765625,0.459289550781,0.144409179688,0.876403808594
26896705122,-0.0023193359375,0.467346191406,0.145874023438,0.871887207031
26896727623,0.00146484375,0.474914550781,0.147155761719,0.867553710938
26896748705,0.0035400390625,0.481872558594,0.148742675781,0.863464355469
26896765133,0.00433349609375,0.488098144531,0.150329589844,0.859680175781
26896787628,0.00555419921875,0.494323730469,0.151489257812,0.855895996094
26896808684,0.00677490234375,0.500183105469,0.152526855469,0.852294921875
26896825146,0.00787353515625,0.505676269531,0.153442382812,0.848876953125
26896847634,0.009033203125,0.510620117188,0.154235839844,0.845764160156
26896868781,0.010498046875,0.514953613281,0.154968261719,0.842956542969
26896885122,0.0125122070312,0.518981933594,0.155395507812,0.840393066406
26896907717,0.014892578125,0.522766113281,0.155883789062,0.837951660156
26896928786,0.0169067382812,0.525695800781,0.156860351562,0.835876464844
26896945119,0.0182495117188,0.527954101562,0.157958984375,0.834167480469
26896973808,0.0198364257812,0.530151367188,0.15869140625,0.832641601562
26896988695,0.0216064453125,0.532470703125,0.159423828125,0.830993652344
26897005104,0.0228881835938,0.534362792969,0.159851074219,0.82958984375
26897027586,0.024169921875,0.536010742188,0.159912109375,0.828491210938
26897048789,0.0257568359375,0.53759765625,0.159790039062,0.827453613281
26897065079,0.0269165039062,0.539123535156,0.159851074219,0.826416015625
26897087659,0.0277099609375,0.540588378906,0.160095214844,0.825378417969
26897108766,0.0277709960938,0.541687011719,0.160339355469,0.824645996094
26897125153,0.0281982421875,0.542602539062,0.160278320312,0.824035644531
26897147660,0.0292358398438,0.544006347656,0.16015625,0.823059082031
26897168793,0.0294189453125,0.545349121094,0.160705566406,0.822082519531
26897185134,0.0288696289062,0.546569824219,0.16162109375,0.821105957031
26897207661,0.0277709960938,0.547180175781,0.16259765625,0.820556640625
26897228704,0.0272216796875,0.547912597656,0.163269042969,0.819946289062
26897244925,0.0266723632812,0.548767089844,0.1640625,0.819213867188
26897267626,0.0250244140625,0.549438476562,0.165344238281,0.818603515625
26897288800,0.0232543945312,0.550048828125,0.16650390625,0.817993164062
26897305152,0.0221557617188,0.550598144531,0.167602539062,0.817443847656
26897327674,0.0213012695312,0.551208496094,0.168640136719,0.816772460938
26897350141,0.0206909179688,0.5517578125,0.169738769531,0.816223144531
26897364469,0.0197143554688,0.552185058594,0.1708984375,0.815734863281
26897387595,0.0189819335938,0.552734375,0.171752929688,0.815185546875
26897410124,0.0184326171875,0.55322265625,0.172607421875,0.814697265625
26897425146,0.0175170898438,0.553466796875,0.173217773438,0.814392089844
26897447642,0.0171508789062,0.553649902344,0.173583984375,0.814208984375
26897470262,0.0172729492188,0.553833007812,0.173889160156,0.814025878906
26897484424,0.0172729492188,0.554016113281,0.174194335938,0.813842773438
26897507553,0.0167846679688,0.553833007812,0.17431640625,0.81396484375
26897530670,0.0162963867188,0.553588867188,0.173950195312,0.814208984375
26897544449,0.0164184570312,0.5537109375,0.173278808594,0.814208984375
26897567664,0.0166015625,0.553955078125,0.1728515625,0.814208984375
26897590141,0.0160522460938,0.55419921875,0.172485351562,0.814086914062
26897604534,0.015625,0.554626464844,0.172058105469,0.813903808594
26897627597,0.0153198242188,0.554992675781,0.171691894531,0.813720703125
26897650087,0.01513671875,0.555419921875,0.171447753906,0.813537597656
26897664454,0.0150756835938,0.555725097656,0.171447753906,0.813293457031
26897687625,0.0147094726562,0.556030273438,0.171691894531,0.813049316406
26897710139,0.0143432617188,0.55615234375,0.171875,0.812927246094
26897732630,0.0140991210938,0.556213378906,0.172241210938,0.812805175781
26897747611,0.0137329101562,0.556274414062,0.1728515625,0.812683105469
26897770105,0.0131225585938,0.556274414062,0.17333984375,0.812561035156
26897784484,0.0126953125,0.556030273438,0.173706054688,0.812622070312
26897807623,0.012451171875,0.555969238281,0.174072265625,0.812622070312
26897830100,0.01220703125,0.556030273438,0.174438476562,0.8125
26897851207,0.0112915039062,0.555725097656,0.174499511719,0.812683105469
26897867614,0.0105590820312,0.555419921875,0.174194335938,0.81298828125
26897890143,0.01025390625,0.555358886719,0.173828125,0.813110351562
26897911129,0.0100708007812,0.555419921875,0.173706054688,0.813110351562
26897927607,0.0096435546875,0.555419921875,0.173889160156,0.813049316406
26897950133,0.00921630859375,0.555480957031,0.173889160156,0.813049316406
26897971368,0.00927734375,0.555603027344,0.174133300781,0.812927246094
26897987594,0.00921630859375,0.555480957031,0.174377441406,0.812927246094
26898010087,0.00897216796875,0.55517578125,0.174743652344,0.813049316406
26898031300,0.0086669921875,0.554870605469,0.175170898438,0.813171386719
26898047648,0.00811767578125,0.554382324219,0.175537109375,0.813415527344
26898070097,0.0078125,0.554016113281,0.175476074219,0.813659667969
26898091162,0.0074462890625,0.553588867188,0.17529296875,0.814086914062
26898107590,0.00732421875,0.553588867188,0.175048828125,0.814086914062
26898130083,0.00640869140625,0.553466796875,0.175048828125,0.814208984375
26898154075,0.00518798828125,0.552978515625,0.174987792969,0.814514160156
26898167611,0.00408935546875,0.552307128906,0.174682617188,0.815063476562
26898190098,0.0035400390625,0.551940917969,0.174560546875,0.815368652344
26898211224,0.00299072265625,0.551391601562,0.174865722656,0.815673828125
26898227633,0.00250244140625,0.550842285156,0.175231933594,0.81591796875
26898250079,0.001953125,0.55029296875,0.17529296875,0.816284179688
26898272570,0.0018310546875,0.550109863281,0.174987792969,0.816528320312
26898288066,0.00262451171875,0.550720214844,0.17529296875,0.815979003906
26898310095,0.001708984375,0.550537109375,0.175231933594,0.816162109375
26898332613,0.0009765625,0.549987792969,0.174865722656,0.816589355469
26898347630,0.00103759765625,0.550415039062,0.174621582031,0.81640625
26898370104,0.0008544921875,0.550354003906,0.174926757812,0.816345214844
26898392593,-0.000244140625,0.549499511719,0.175659179688,0.816772460938
26898407594,-0.0010986328125,0.549072265625,0.176696777344,0.816833496094
26898436196,-0.001708984375,0.549133300781,0.177856445312,0.816528320312
26898452616,-0.0018310546875,0.549133300781,0.178955078125,0.816284179688
26898467180,-0.00189208984375,0.549133300781,0.180053710938,0.816040039062
26898490133,-0.00238037109375,0.549011230469,0.1806640625,0.815979003906
26898512610,-0.00250244140625,0.549438476562,0.181091308594,0.815612792969
26898527427,-0.00341796875,0.549377441406,0.181274414062,0.815612792969
26898550111,-0.005126953125,0.548522949219,0.180480957031,0.816345214844
26898572618,-0.005859375,0.546813964844,0.179138183594,0.817810058594
26898586915,-0.006103515625,0.545043945312,0.177612304688,0.819274902344
26898610059,-0.00421142578125,0.545837402344,0.175842285156,0.819152832031
26898638646,-0.0052490234375,0.5439453125,0.174499511719,0.820678710938
26898653755,-0.00775146484375,0.541076660156,0.173522949219,0.822814941406
26898670117,-0.0072021484375,0.539611816406,0.170654296875,0.824340820312
26898692588,-0.0064697265625,0.53857421875,0.170166015625,0.825134277344
26898713706,-0.0069580078125,0.538146972656,0.172729492188,0.824890136719
26898730121,-0.00689697265625,0.538391113281,0.175476074219,0.824157714844
26898752612,-0.00872802734375,0.538391113281,0.177185058594,0.823791503906
26898773772,-0.0101928710938,0.538024902344,0.177856445312,0.823791503906
26898790078,-0.00982666015625,0.538024902344,0.177368164062,0.823913574219
26898795572,-0.00927734375,0.537963867188,0.177001953125,0.824096679688
26898818015,-0.00921630859375,0.53759765625,0.177795410156,0.824157714844
26898835964,-0.0104370117188,0.536743164062,0.179016113281,0.824401855469
26898863176,-0.0130004882812,0.535278320312,0.179748535156,0.8251953125
26898878071,-0.0145874023438,0.533996582031,0.179931640625,0.825927734375
26898895911,-0.0152587890625,0.53271484375,0.179504394531,0.826843261719
26898915735,-0.015625,0.531372070312,0.179077148438,0.827819824219
26898938097,-0.0158081054688,0.529602050781,0.178466796875,0.829040527344
26898954443,-0.0167236328125,0.527282714844,0.17822265625,0.83056640625
26898975628,-0.018310546875,0.524475097656,0.178039550781,0.832336425781
26898998097,-0.0204467773438,0.521057128906,0.177795410156,0.83447265625
26899020688,-0.0216674804688,0.516357421875,0.177001953125,0.837524414062
26899035645,-0.0216674804688,0.511779785156,0.175842285156,0.840576171875
26899058134,-0.0214233398438,0.507385253906,0.174926757812,0.843444824219
26899090780,-0.022216796875,0.502624511719,0.174560546875,0.846313476562
26899095622,-0.0245361328125,0.497497558594,0.174682617188,0.849304199219
26899118066,-0.0274047851562,0.491943359375,0.174743652344,0.852416992188
26899140577,-0.0302124023438,0.486145019531,0.173950195312,0.855773925781
26899155629,-0.0322265625,0.480712890625,0.171752929688,0.859252929688
26899178127,-0.0330810546875,0.475463867188,0.169128417969,0.862670898438
26899200679,-0.0345458984375,0.469482421875,0.167114257812,0.8662109375
26899215634,-0.037109375,0.46240234375,0.165283203125,0.870300292969
26899238068,-0.0408325195312,0.454467773438,0.163330078125,0.874633789062
26899260630,-0.045166015625,0.445983886719,0.160949707031,0.879211425781
26899283079,-0.0491943359375,0.436889648438,0.157958984375,0.884155273438
26899298075,-0.0521850585938,0.427368164062,0.154602050781,0.88916015625
26899320663,-0.0546264648438,0.417602539062,0.151062011719,0.894287109375
26899335619,-0.0576171875,0.407653808594,0.147399902344,0.899291992188
26899358175,-0.0609130859375,0.397521972656,0.143920898438,0.904174804688
26899375921,-0.063232421875,0.387390136719,0.140563964844,0.908874511719
26899395740,-0.0653686523438,0.377075195312,0.13720703125,0.91357421875
26899418304,-0.0680541992188,0.366760253906,0.133544921875,0.918090820312
26899435920,-0.0703125,0.356872558594,0.129699707031,0.92236328125
26899455627,-0.0718383789062,0.347351074219,0.12548828125,0.926452636719
26899478113,-0.0728759765625,0.337524414062,0.12109375,0.930603027344
26899500690,-0.07470703125,0.327392578125,0.116760253906,0.934631347656
26899515617,-0.0776977539062,0.316833496094,0.112182617188,0.938598632812
26899538153,-0.0806884765625,0.305969238281,0.107482910156,0.942443847656
26899555937,-0.0833129882812,0.295104980469,0.102905273438,0.946228027344
26899575570,-0.0853881835938,0.284362792969,0.0983276367188,0.949768066406
26899598142,-0.0870361328125,0.273803710938,0.09375,0.953186035156
26899615909,-0.0885009765625,0.263366699219,0.0892944335938,0.956420898438
26899635499,-0.08935546875,0.253173828125,0.0848388671875,0.959533691406
26899658116,-0.0897216796875,0.243286132812,0.080322265625,0.96240234375
26899675915,-0.0904541015625,0.233764648438,0.0759887695312,0.965026855469
26899695674,-0.091552734375,0.224365234375,0.0718994140625,0.967468261719
26899718100,-0.0927734375,0.215087890625,0.0682373046875,0.9697265625
26899735936,-0.093994140625,0.2060546875,0.0652465820312,0.971801757812
26899755570,-0.095458984375,0.197204589844,0.0626220703125,0.9736328125
26899778090,-0.0962524414062,0.188537597656,0.0601196289062,0.975463867188
26899795957,-0.0966186523438,0.179931640625,0.0575561523438,0.977172851562
26899816925,-0.0963745117188,0.171325683594,0.0548706054688,0.978942871094
26899838092,-0.095703125,0.162658691406,0.0519409179688,0.980590820312
26899855945,-0.0951538085938,0.154296875,0.049072265625,0.982177734375
26899876955,-0.0949096679688,0.146057128906,0.0463256835938,0.983581542969
26899898179,-0.0953369140625,0.137939453125,0.0438232421875,0.98486328125
26899915924,-0.0958862304688,0.130004882812,0.04150390625,0.985961914062
26899936940,-0.0968627929688,0.122192382812,0.0394897460938,0.986938476562
26899958194,-0.0977172851562,0.114318847656,0.0371704101562,0.987915039062
26899975901,-0.0984497070312,0.106750488281,0.0348510742188,0.98876953125
26899997010,-0.0990600585938,0.0992431640625,0.03271484375,0.989562988281
26900025415,-0.0985717773438,0.0916748046875,0.03076171875,0.990417480469
26900035906,-0.0977172851562,0.0842895507812,0.02880859375,0.9912109375
26900056925,-0.0972290039062,0.0770263671875,0.0269165039062,0.991882324219
26900077981,-0.0968017578125,0.0696411132812,0.0252685546875,0.992492675781
26900095923,-0.095703125,0.0619506835938,0.0235595703125,0.9931640625
26900116996,-0.0946655273438,0.0546875,0.0218505859375,0.993713378906
26900137985,-0.0935668945312,0.0479125976562,0.0200805664062,0.994201660156
26900156312,-0.0924682617188,0.0410766601562,0.0181274414062,0.994689941406
26900178433,-0.091064453125,0.0342407226562,0.0162963867188,0.9951171875
26900198144,-0.0895385742188,0.0277099609375,0.0144653320312,0.995483398438
26900215920,-0.08837890625,0.0214233398438,0.0128784179688,0.995727539062
26900238352,-0.0881958007812,0.014892578125,0.01123046875,0.995910644531
26900258116,-0.0884399414062,0.00811767578125,0.00958251953125,0.995971679688
26900275915,-0.0880126953125,0.0013427734375,0.00823974609375,0.996032714844
26900298379,-0.0865478515625,-0.00506591796875,0.0069580078125,0.996154785156
26900318051,-0.0842895507812,-0.0112915039062,0.00579833984375,0.996337890625
26900335935,-0.08203125,-0.0176391601562,0.0047607421875,0.996459960938
26900358397,-0.0800170898438,-0.0241088867188,0.00360107421875,0.996459960938
26900378709,-0.0776977539062,-0.0303955078125,0.0023193359375,0.996459960938
26900395077,-0.0756225585938,-0.0361328125,0.00079345703125,0.996459960938
26900417605,-0.0746459960938,-0.0413208007812,-0.00054931640625,0.996337890625
26900438781,-0.07470703125,-0.0465698242188,-0.00213623046875,0.99609375
26900455074,-0.0752563476562,-0.0515747070312,-0.00384521484375,0.995788574219
26900477549,-0.07568359375,-0.0560913085938,-0.00531005859375,0.995483398438
26900498627,-0.0753784179688,-0.0606079101562,-0.006591796875,0.995239257812
26900515099,-0.07470703125,-0.0653076171875,-0.0081787109375,0.994995117188
26900537656,-0.07421875,-0.0699462890625,-0.00994873046875,0.994689941406
26900558755,-0.0738525390625,-0.0743408203125,-0.0115966796875,0.994384765625
26900575049,-0.0736083984375,-0.0785522460938,-0.0128784179688,0.994079589844
26900597627,-0.0733032226562,-0.082763671875,-0.01416015625,0.993713378906
26900618727,-0.07275390625,-0.0868530273438,-0.0154418945312,0.993408203125
26900635060,-0.0720825195312,-0.0906372070312,-0.0165405273438,0.993103027344
26900657602,-0.07177734375,-0.0939331054688,-0.0174560546875,0.992797851562
26900678772,-0.0717163085938,-0.0972900390625,-0.0183715820312,0.992492675781
26900695067,-0.072021484375,-0.099853515625,-0.0191650390625,0.9921875
26900717577,-0.072265625,-0.101379394531,-0.019775390625,0.992004394531
26900738783,-0.0713500976562,-0.102355957031,-0.0199584960938,0.991943359375
26900755110,-0.0698852539062,-0.103515625,-0.0195922851562,0.991943359375
26900785105,-0.0694580078125,-0.105163574219,-0.0192260742188,0.991821289062
26900798698,-0.0691528320312,-0.107177734375,-0.0191650390625,0.991638183594
26900815066,-0.068359375,-0.109497070312,-0.019287109375,0.991394042969
26900837569,-0.066650390625,-0.111755371094,-0.0197143554688,0.991271972656
26900858727,-0.064697265625,-0.114135742188,-0.0203247070312,0.991149902344
26900875026,-0.0632934570312,-0.116821289062,-0.0209350585938,0.990905761719
26900897592,-0.061767578125,-0.119750976562,-0.0209350585938,0.990661621094
26900918725,-0.061279296875,-0.121032714844,-0.0208129882812,0.990478515625
26900935053,-0.0606689453125,-0.121398925781,-0.0203247070312,0.990539550781
26900957684,-0.0590209960938,-0.120788574219,-0.0203857421875,0.990661621094
26900980047,-0.0574951171875,-0.12060546875,-0.0204467773438,0.990783691406
26900995021,-0.0573120117188,-0.12109375,-0.0205078125,0.99072265625
26901017569,-0.0578002929688,-0.122253417969,-0.0206909179688,0.990600585938
26901038701,-0.057861328125,-0.12353515625,-0.0206298828125,0.990417480469
26901055102,-0.0574340820312,-0.124816894531,-0.0205078125,0.990295410156
26901077512,-0.0570068359375,-0.125915527344,-0.0203857421875,0.990173339844
26901100494,-0.0567016601562,-0.126770019531,-0.0203247070312,0.990051269531
26901115085,-0.0564575195312,-0.127563476562,-0.020263671875,0.989990234375
26901137540,-0.0562133789062,-0.128112792969,-0.0200805664062,0.989929199219
26901160082,-0.0557250976562,-0.128662109375,-0.0198364257812,0.989929199219
26901175072,-0.0548706054688,-0.129150390625,-0.0194091796875,0.989868164062
26901197610,-0.0538330078125,-0.1298828125,-0.0186767578125,0.989868164062
26901220077,-0.052001953125,-0.130737304688,-0.017578125,0.989868164062
26901235065,-0.0494384765625,-0.131408691406,-0.0159912109375,0.989929199219
26901257559,-0.046142578125,-0.13232421875,-0.014404296875,0.989990234375
26901280074,-0.0433349609375,-0.133361816406,-0.0130615234375,0.989990234375
26901301127,-0.0416259765625,-0.133666992188,-0.0125122070312,0.990051269531
26901317547,-0.0413818359375,-0.134033203125,-0.0122680664062,0.989990234375
26901340072,-0.0423583984375,-0.134338378906,-0.0123901367188,0.989929199219
26901354400,-0.0430297851562,-0.134216308594,-0.01220703125,0.989929199219
26901377579,-0.0430908203125,-0.134155273438,-0.01220703125,0.989929199219
26901400024,-0.0430908203125,-0.134216308594,-0.01220703125,0.989929199219
26901414379,-0.04296875,-0.134216308594,-0.01220703125,0.989929199219
26901437579,-0.0429077148438,-0.13427734375,-0.01220703125,0.989929199219
26901460045,-0.0429077148438,-0.13427734375,-0.01220703125,0.989929199219
26901474417,-0.0428466796875,-0.13427734375,-0.01220703125,0.989929199219
26901497626,-0.0429077148438,-0.13427734375,-0.01220703125,0.989929199219
26901520043,-0.0429077148438,-0.134338378906,-0.01220703125,0.989929199219
26901534424,-0.043212890625,-0.13427734375,-0.0121459960938,0.989929199219
26901557590,-0.04345703125,-0.134338378906,-0.0122680664062,0.989868164062
26901580069,-0.0438232421875,-0.134216308594,-0.0123901367188,0.989868164062
26901594397,-0.0438842773438,-0.134216308594,-0.0123901367188,0.989868164062
26901617552,-0.0440063476562,-0.134155273438,-0.0123291015625,0.989868164062
26901640071,-0.0440673828125,-0.134094238281,-0.0123901367188,0.989868164062
26901661223,-0.0438842773438,-0.1337890625,-0.012451171875,0.989929199219
26901677551,-0.0437622070312,-0.133666992188,-0.0125732421875,0.989929199219
26901700021,-0.0440673828125,-0.133605957031,-0.0127563476562,0.989929199219
26901721219,-0.0443115234375,-0.133422851562,-0.0128173828125,0.989990234375
26901737571,-0.0446166992188,-0.133239746094,-0.0128784179688,0.989990234375
26901760051,-0.0452880859375,-0.133056640625,-0.0130615234375,0.989929199219
26901781190,-0.0464477539062,-0.132873535156,-0.0131225585938,0.989929199219
26901797527,-0.0477905273438,-0.132507324219,-0.0130004882812,0.989929199219
26901820041,-0.048583984375,-0.132202148438,-0.0127563476562,0.989929199219
26901841197,-0.048828125,-0.132080078125,-0.0125122070312,0.989929199219
26901857542,-0.048828125,-0.132080078125,-0.0125122070312,0.989929199219
26901880054,-0.049072265625,-0.13232421875,-0.0125732421875,0.989868164062
26901901203,-0.0492553710938,-0.132446289062,-0.0127563476562,0.989868164062
26901917545,-0.049560546875,-0.132263183594,-0.012939453125,0.989868164062
26901940096,-0.0499877929688,-0.131896972656,-0.0132446289062,0.989868164062
26901961206,-0.050537109375,-0.13134765625,-0.013671875,0.989929199219
26901977546,-0.0519409179688,-0.130310058594,-0.0143432617188,0.989990234375
26902000039,-0.053955078125,-0.129028320312,-0.014892578125,0.990051269531
26902021385,-0.0562744140625,-0.1279296875,-0.0153198242188,0.990051269531
26902037638,-0.0587158203125,-0.127197265625,-0.0159301757812,0.989990234375
26902060020,-0.06103515625,-0.126220703125,-0.0166015625,0.989990234375
26902082570,-0.0625,-0.124816894531,-0.0166625976562,0.990051269531
26902098027,-0.0637817382812,-0.122375488281,-0.0164184570312,0.990295410156
26902119980,-0.0659790039062,-0.118103027344,-0.0157470703125,0.990661621094
26902142552,-0.0667114257812,-0.112060546875,-0.014404296875,0.991333007812
26902156972,-0.0657958984375,-0.104736328125,-0.0138549804688,0.9921875
26902180051,-0.0632934570312,-0.1015625,-0.0160522460938,0.99267578125
26902202568,-0.0634765625,-0.0980834960938,-0.0173950195312,0.992980957031
26902223743,-0.0678100585938,-0.0942993164062,-0.0184936523438,0.993041992188
26902246244,-0.0731811523438,-0.0911254882812,-0.0196533203125,0.992919921875
26902262553,-0.0782470703125,-0.0882568359375,-0.0203857421875,0.992797851562
26902283672,-0.08349609375,-0.0846557617188,-0.0206298828125,0.99267578125
26902300027,-0.0880126953125,-0.0807495117188,-0.020263671875,0.992614746094
26902322611,-0.0914306640625,-0.0762329101562,-0.0197143554688,0.99267578125
26902343668,-0.0940551757812,-0.0711059570312,-0.019287109375,0.992797851562
26902360072,-0.0952758789062,-0.0659790039062,-0.0188598632812,0.993041992188
26902382569,-0.0960083007812,-0.060546875,-0.0184326171875,0.993347167969
26902403680,-0.0968627929688,-0.0545043945312,-0.01806640625,0.993591308594
26902420072,-0.0968627929688,-0.0477294921875,-0.0173950195312,0.993957519531
26902442532,-0.0964965820312,-0.039794921875,-0.0165405273438,0.994384765625
26902463803,-0.0970458984375,-0.031005859375,-0.01611328125,0.99462890625
26902480076,-0.0980834960938,-0.0214233398438,-0.0150756835938,0.994812011719
26902502532,-0.0995483398438,-0.01123046875,-0.0133056640625,0.994873046875
26902523673,-0.101989746094,-0.00030517578125,-0.0114135742188,0.994689941406
26902539997,-0.103820800781,0.01123046875,-0.00933837890625,0.994445800781
26902562615,-0.104187011719,0.0233764648438,-0.0068359375,0.994262695312
26902583677,-0.103576660156,0.0360717773438,-0.00421142578125,0.993957519531
26902600019,-0.102905273438,0.0492553710938,-0.00140380859375,0.993469238281
26902622568,-0.101379394531,0.0628662109375,0.00177001953125,0.992797851562
26902643733,-0.0994262695312,0.0770263671875,0.005126953125,0.992004394531
26902660122,-0.097900390625,0.0917358398438,0.00872802734375,0.990905761719
26902682498,-0.0963134765625,0.106567382812,0.0122680664062,0.989501953125
26902703631,-0.0949096679688,0.121459960938,0.0162963867188,0.987854003906
26902720053,-0.0930786132812,0.136535644531,0.0205688476562,0.986022949219
26902742519,-0.0914306640625,0.151306152344,0.0247192382812,0.98388671875
26902763657,-0.0887451171875,0.16552734375,0.02880859375,0.981750488281
26902779482,-0.0858154296875,0.179565429688,0.0330810546875,0.979431152344
26902802556,-0.08203125,0.193603515625,0.036865234375,0.976928710938
26902823705,-0.0775756835938,0.207214355469,0.0409545898438,0.974304199219
26902839366,-0.0737915039062,0.219848632812,0.0460205078125,0.971618652344
26902862517,-0.071044921875,0.23193359375,0.0510864257812,0.96875
26902883716,-0.0685424804688,0.244262695312,0.055419921875,0.965637207031
26902899371,-0.0655517578125,0.257019042969,0.0593872070312,0.962280273438
26902922535,-0.0623779296875,0.269348144531,0.0639038085938,0.958862304688
26902943704,-0.0595092773438,0.280883789062,0.0682983398438,0.955383300781
26902959372,-0.0571899414062,0.292419433594,0.072265625,0.951782226562
26902982513,-0.0546875,0.304077148438,0.0760498046875,0.947998046875
26903005046,-0.0513916015625,0.315551757812,0.0797119140625,0.944091796875
26903019367,-0.0477294921875,0.326721191406,0.08349609375,0.940185546875
26903042544,-0.0438232421875,0.338012695312,0.0869140625,0.93603515625
26903064992,-0.0397338867188,0.349182128906,0.0905151367188,0.931762695312
26903079835,-0.0364379882812,0.3603515625,0.0938110351562,0.927307128906
26903102530,-0.0330200195312,0.371398925781,0.0967407226562,0.922790527344
26903125039,-0.0294189453125,0.382141113281,0.0989990234375,0.918273925781
26903139343,-0.0256958007812,0.393249511719,0.100280761719,0.913513183594
26903162501,-0.0217895507812,0.404113769531,0.100769042969,0.908813476562
26903185042,-0.0181884765625,0.4140625,0.100830078125,0.904418945312
26903206112,-0.0151977539062,0.423156738281,0.100891113281,0.900268554688
26903222538,-0.0130004882812,0.431579589844,0.101013183594,0.896240234375
26903245071,-0.0111083984375,0.439514160156,0.100830078125,0.892456054688
26903266170,-0.0084228515625,0.446350097656,0.1005859375,0.889099121094
26903282547,-0.00537109375,0.452514648438,0.1005859375,0.885986328125
26903305002,-0.00213623046875,0.458435058594,0.100891113281,0.882934570312
26903326263,0.00091552734375,0.463623046875,0.101684570312,0.880126953125
26903342522,0.00372314453125,0.468444824219,0.103149414062,0.877380371094
26903364982,0.0067138671875,0.473327636719,0.105102539062,0.87451171875
26903386096,0.0096435546875,0.478393554688,0.107543945312,0.871398925781
26903402571,0.0125122070312,0.4833984375,0.110900878906,0.868225097656
26903425024,0.0150146484375,0.488464355469,0.115051269531,0.864807128906
26903446250,0.017333984375,0.493408203125,0.119140625,0.861389160156
26903462517,0.0204467773438,0.497985839844,0.122985839844,0.858154296875
26903485021,0.0239868164062,0.502502441406,0.126892089844,0.854797363281
26903506193,0.027099609375,0.506774902344,0.131042480469,0.8515625
26903522520,0.029296875,0.510620117188,0.135437011719,0.848510742188
26903545013,0.0308227539062,0.514282226562,0.139953613281,0.845520019531
26903566176,0.0322265625,0.518005371094,0.144104003906,0.842468261719
26903582523,0.0338745117188,0.521362304688,0.147644042969,0.839721679688
26903604994,0.0355834960938,0.524353027344,0.151062011719,0.837158203125
26903626196,0.0368041992188,0.527038574219,0.154418945312,0.834838867188
26903642518,0.0375366210938,0.529418945312,0.157592773438,0.832702636719
26903664999,0.0380249023438,0.531372070312,0.160522460938,0.830871582031
26903686188,0.0385131835938,0.533142089844,0.162841796875,0.829284667969
26903702556,0.0390014648438,0.53466796875,0.1650390625,0.827819824219
26903707995,0.0390014648438,0.535949707031,0.1669921875,0.826599121094
26903730600,0.0386962890625,0.537231445312,0.168640136719,0.825439453125
26903753190,0.0386352539062,0.538635253906,0.169738769531,0.824279785156
26903768149,0.038818359375,0.539611816406,0.17041015625,0.823486328125
26903790520,0.0390014648438,0.5400390625,0.170593261719,0.823181152344
26903813082,0.0390014648438,0.540100097656,0.170654296875,0.823120117188
26903828049,0.0384521484375,0.53955078125,0.171020507812,0.823425292969
26903850599,0.03759765625,0.539428710938,0.171325683594,0.823486328125
26903873072,0.0369873046875,0.539367675781,0.172119140625,0.823425292969
26903888138,0.0365600585938,0.539428710938,0.173217773438,0.823120117188
26903910552,0.0360107421875,0.53955078125,0.174682617188,0.822814941406
26903933069,0.0355834960938,0.539733886719,0.176330566406,0.822387695312
26903948013,0.0355224609375,0.5400390625,0.177856445312,0.821838378906
26903970659,0.0357055664062,0.540222167969,0.179565429688,0.8212890625
26903988366,0.03515625,0.540100097656,0.181518554688,0.820983886719
26904013825,0.0343627929688,0.539916992188,0.183227539062,0.820739746094
26904030384,0.0340576171875,0.53955078125,0.1845703125,0.820678710938
26904048310,0.0338134765625,0.539001464844,0.185668945312,0.82080078125
26904068156,0.0332641601562,0.538696289062,0.186340332031,0.820922851562
26904090424,0.0330810546875,0.5380859375,0.186645507812,0.821228027344
26904108300,0.0327758789062,0.537292480469,0.186767578125,0.821716308594
26904127876,0.0322875976562,0.53662109375,0.186889648438,0.822143554688
26904150672,0.0318603515625,0.535766601562,0.187194824219,0.822692871094
26904168322,0.0310668945312,0.535034179688,0.187255859375,0.823181152344
26904188070,0.0309448242188,0.534729003906,0.186889648438,0.823486328125
26904211929,0.0308837890625,0.534484863281,0.186584472656,0.82373046875
26904228294,0.0303955078125,0.534301757812,0.186340332031,0.823913574219
26904248008,0.0297241210938,0.534423828125,0.186157226562,0.823852539062
26904270620,0.02880859375,0.534484863281,0.185974121094,0.823913574219
26904288341,0.028564453125,0.534729003906,0.185607910156,0.823852539062
26904308082,0.0281982421875,0.534301757812,0.185485839844,0.824157714844
26904330539,0.0275268554688,0.53369140625,0.185974121094,0.824462890625
26904348315,0.0266723632812,0.533142089844,0.186401367188,0.824768066406
26904367977,0.0262451171875,0.53271484375,0.186340332031,0.825073242188
26904390465,0.0264282226562,0.532348632812,0.186157226562,0.825317382812
26904408247,0.0260009765625,0.531860351562,0.185913085938,0.82568359375
26904428082,0.0252685546875,0.531555175781,0.185485839844,0.826049804688
26904450585,0.0247192382812,0.531066894531,0.185302734375,0.826416015625
26904468763,0.0233764648438,0.530334472656,0.184997558594,0.826965332031
26904487940,0.0220336914062,0.529846191406,0.184692382812,0.827392578125
26904510478,0.021240234375,0.528747558594,0.184509277344,0.828186035156
26904528257,0.0204467773438,0.527282714844,0.184387207031,0.829162597656
26904549347,0.0191650390625,0.525756835938,0.184753417969,0.830017089844
26904570548,0.0180053710938,0.524108886719,0.185485839844,0.830932617188
26904593021,0.0167846679688,0.522033691406,0.18603515625,0.832153320312
26904609332,0.0158081054688,0.519958496094,0.186096191406,0.83349609375
26904630498,0.0148315429688,0.5185546875,0.185729980469,0.834411621094
26904649768,0.0143432617188,0.517578125,0.185485839844,0.835083007812
26904670787,0.0133056640625,0.516540527344,0.185302734375,0.835815429688
26904690649,0.0123901367188,0.515869140625,0.184814453125,0.836303710938
26904708317,0.0117797851562,0.515686035156,0.183776855469,0.836669921875
26904729360,0.0116577148438,0.515930175781,0.182861328125,0.836730957031
26904750506,0.0111694335938,0.516357421875,0.182312011719,0.836608886719
26904768281,0.0101318359375,0.516906738281,0.182067871094,0.836364746094
26904789309,0.0096435546875,0.517517089844,0.181640625,0.836059570312
26904810525,0.0103149414062,0.518371582031,0.181335449219,0.835571289062
26904828349,0.0106811523438,0.518981933594,0.18115234375,0.835205078125
26904849340,0.010986328125,0.519409179688,0.181091308594,0.835021972656
26904870496,0.0108032226562,0.519592285156,0.180908203125,0.8349609375
26904888314,0.011474609375,0.519836425781,0.1806640625,0.834838867188
26904910839,0.011474609375,0.519775390625,0.1806640625,0.834838867188
26904930599,0.011474609375,0.519775390625,0.1806640625,0.834838867188
26904948775,0.0117797851562,0.519714355469,0.181030273438,0.834838867188
26904970785,0.0123901367188,0.518981933594,0.181518554688,0.835144042969
26904990583,0.0133056640625,0.518310546875,0.181762695312,0.835510253906
26905008298,0.0142822265625,0.517578125,0.182373046875,0.835815429688
26905030799,0.0145263671875,0.516662597656,0.182922363281,0.836242675781
26905050517,0.0147094726562,0.515991210938,0.182983398438,0.836669921875
26905068303,0.0148315429688,0.515441894531,0.183044433594,0.836975097656
26905090810,0.014404296875,0.5146484375,0.183044433594,0.837463378906
26905110391,0.0133666992188,0.513732910156,0.183044433594,0.838012695312
26905128263,0.0122680664062,0.512573242188,0.182678222656,0.838806152344
26905150829,0.0108642578125,0.51171875,0.182006835938,0.839538574219
26905170423,0.0101318359375,0.510803222656,0.180725097656,0.840393066406
26905188335,0.00921630859375,0.509704589844,0.178649902344,0.841491699219
26905210829,0.0076904296875,0.508178710938,0.175903320312,0.843017578125
26905230431,0.0054931640625,0.505798339844,0.173034667969,0.845031738281
26905248300,0.00396728515625,0.503112792969,0.169799804688,0.847290039062
26905270753,0.00164794921875,0.500183105469,0.16650390625,0.849670410156
26905291167,-0.0008544921875,0.496826171875,0.163696289062,0.852233886719
26905307497,-0.00164794921875,0.493225097656,0.161376953125,0.854736328125
26905329984,-0.0029296875,0.4892578125,0.159851074219,0.857299804688
26905351126,-0.00579833984375,0.484802246094,0.158325195312,0.860107421875
26905367920,-0.00860595703125,0.480285644531,0.156494140625,0.862976074219
26905389984,-0.0108032226562,0.475708007812,0.154479980469,0.865844726562
26905411036,-0.0126953125,0.471130371094,0.15234375,0.86865234375
26905427553,-0.0143432617188,0.466918945312,0.150024414062,0.871337890625
26905449990,-0.0167846679688,0.462524414062,0.147705078125,0.8740234375
26905471150,-0.0191040039062,0.457763671875,0.145874023438,0.876770019531
26905488307,-0.0215454101562,0.452575683594,0.144897460938,0.879577636719
26905510403,-0.0242309570312,0.447387695312,0.144165039062,0.882263183594
26905531102,-0.0269775390625,0.441955566406,0.143127441406,0.885070800781
26905547468,-0.0291748046875,0.43603515625,0.141906738281,0.888122558594
26905577500,-0.0309448242188,0.429382324219,0.140747070312,0.891479492188
26905591159,-0.0325927734375,0.422485351562,0.139343261719,0.894958496094
26905607503,-0.0341186523438,0.415100097656,0.137878417969,0.898559570312
26905629961,-0.035888671875,0.407104492188,0.136108398438,0.902404785156
26905651295,-0.0382690429688,0.398315429688,0.133483886719,0.906616210938
26905666920,-0.0403442382812,0.388610839844,0.1298828125,0.911254882812
26905689995,-0.0419921875,0.378601074219,0.1259765625,0.915954589844
26905711146,-0.0443115234375,0.368103027344,0.1220703125,0.920593261719
26905726856,-0.0475463867188,0.357421875,0.117553710938,0.925231933594
26905750449,-0.0499877929688,0.346374511719,0.11279296875,0.929931640625
26905771821,-0.0524291992188,0.3349609375,0.108154296875,0.934509277344
26905786925,-0.0552978515625,0.323364257812,0.103332519531,0.93896484375
26905809996,-0.0585327148438,0.311706542969,0.0980834960938,0.943237304688
26905831185,-0.0609741210938,0.299926757812,0.0925903320312,0.947448730469
26905854949,-0.0628051757812,0.287963867188,0.0870361328125,0.951538085938
26905870027,-0.0646362304688,0.27587890625,0.0813598632812,0.955505371094
26905892471,-0.0667724609375,0.263977050781,0.0756225585938,0.959228515625
26905906797,-0.0691528320312,0.252502441406,0.0700073242188,0.962524414062
26905929928,-0.0712890625,0.241149902344,0.0648803710938,0.965637207031
26905952489,-0.0732421875,0.22998046875,0.0604248046875,0.968505859375
26905966820,-0.0756225585938,0.219116210938,0.0565185546875,0.971069335938
26905989970,-0.0780639648438,0.208618164062,0.0531005859375,0.973388671875
26906012505,-0.0804443359375,0.198486328125,0.0499267578125,0.975463867188
26906033750,-0.0814208984375,0.18896484375,0.046875,0.977416992188
26906049976,-0.0816650390625,0.179992675781,0.0440673828125,0.979248046875
26906072447,-0.0816650390625,0.171142578125,0.0413818359375,0.98095703125
26906093618,-0.0824584960938,0.162658691406,0.0388793945312,0.982421875
26906109995,-0.0836791992188,0.154602050781,0.03662109375,0.983703613281
26906132463,-0.0841674804688,0.146911621094,0.0350952148438,0.984924316406
26906153689,-0.085205078125,0.138854980469,0.0339965820312,0.986022949219
26906169946,-0.0870971679688,0.130554199219,0.0324096679688,0.987060546875
26906192469,-0.0885009765625,0.1220703125,0.0306396484375,0.988037109375
26906213720,-0.089599609375,0.11376953125,0.0293579101562,0.989013671875
26906229939,-0.08984375,0.106018066406,0.0279541015625,0.989868164062
26906252503,-0.0894775390625,0.0986938476562,0.0270385742188,0.990661621094
26906273621,-0.089599609375,0.0914306640625,0.0264892578125,0.991394042969
26906289973,-0.0910034179688,0.0844116210938,0.02587890625,0.991882324219
26906312431,-0.0927734375,0.0775756835938,0.025146484375,0.992309570312
26906333724,-0.09375,0.0703735351562,0.0242919921875,0.992797851562
26906349973,-0.0936889648438,0.0631103515625,0.0233764648438,0.993286132812
26906372437,-0.0930786132812,0.0559692382812,0.0222778320312,0.993835449219
26906393596,-0.092529296875,0.0488891601562,0.0214233398438,0.994262695312
26906410413,-0.0919799804688,0.0416259765625,0.0208129882812,0.99462890625
26906432471,-0.0912475585938,0.0340576171875,0.0199584960938,0.994995117188
26906453620,-0.0899047851562,0.026611328125,0.0187377929688,0.995361328125
26906469955,-0.08837890625,0.01904296875,0.017578125,0.995727539062
26906492473,-0.0872802734375,0.0115356445312,0.0164184570312,0.995971679688
26906513595,-0.0865478515625,0.00433349609375,0.0152587890625,0.99609375
26906529945,-0.0859375,-0.00244140625,0.0142211914062,0.996154785156
26906552504,-0.0852661132812,-0.00872802734375,0.012939453125,0.996215820312
26906573634,-0.0848999023438,-0.0144653320312,0.0116577148438,0.996215820312
26906589305,-0.0851440429688,-0.020263671875,0.010498046875,0.99609375
26906612457,-0.08544921875,-0.0263061523438,0.0091552734375,0.995910644531
26906633652,-0.0851440429688,-0.0322875976562,0.00738525390625,0.995788574219
26906649271,-0.084228515625,-0.0380249023438,0.005615234375,0.995666503906
26906672499,-0.0824584960938,-0.0441284179688,0.003662109375,0.99560546875
26906693624,-0.0808715820312,-0.0501098632812,0.0010986328125,0.995422363281
26906709321,-0.0797729492188,-0.0554809570312,-0.00152587890625,0.995239257812
26906732466,-0.0797729492188,-0.060302734375,-0.00360107421875,0.994934082031
26906753639,-0.0805053710938,-0.0651245117188,-0.005615234375,0.994567871094
26906769270,-0.0814208984375,-0.0695190429688,-0.00738525390625,0.994201660156
26906792400,-0.0819702148438,-0.0736694335938,-0.00885009765625,0.993835449219
26906814983,-0.0817260742188,-0.0775756835938,-0.0098876953125,0.993530273438
26906829315,-0.0812377929688,-0.0811767578125,-0.0105590820312,0.993286132812
26906852465,-0.0810546875,-0.08447265625,-0.0111694335938,0.993041992188
26906874969,-0.0809326171875,-0.087158203125,-0.011962890625,0.992797851562
26906889303,-0.0802001953125,-0.0890502929688,-0.0125122070312,0.99267578125
26906912447,-0.0780639648438,-0.0901489257812,-0.0136108398438,0.992736816406
26906934919,-0.0767822265625,-0.0906372070312,-0.0139770507812,0.992797851562
26906949327,-0.0772705078125,-0.0913696289062,-0.0142822265625,0.99267578125
26906972563,-0.0784912109375,-0.092041015625,-0.014404296875,0.992553710938
26906994945,-0.079345703125,-0.09326171875,-0.0146484375,0.992370605469
26907009265,-0.0798950195312,-0.0950317382812,-0.0147094726562,0.992126464844
26907032456,-0.0799560546875,-0.0971069335938,-0.0148315429688,0.991943359375
26907054972,-0.0798950195312,-0.099365234375,-0.0150146484375,0.99169921875
26907069296,-0.0801391601562,-0.101745605469,-0.0155639648438,0.991455078125
26907092444,-0.0808715820312,-0.103759765625,-0.0164794921875,0.991149902344
26907114925,-0.0812377929688,-0.104858398438,-0.017333984375,0.990966796875
26907129309,-0.0814208984375,-0.105407714844,-0.0174560546875,0.990905761719
26907152502,-0.080810546875,-0.106079101562,-0.0171508789062,0.990905761719
26907174947,-0.0792846679688,-0.107482910156,-0.0167236328125,0.990905761719
26907189324,-0.0771484375,-0.109130859375,-0.0165405273438,0.990844726562
26907212520,-0.0750732421875,-0.110168457031,-0.0165405273438,0.990905761719
26907241234,-0.0740356445312,-0.110656738281,-0.0166625976562,0.990905761719
26907249328,-0.074462890625,-0.111083984375,-0.016845703125,0.990844726562
26907272439,-0.0748291015625,-0.11181640625,-0.0169067382812,0.99072265625
26907294922,-0.0740356445312,-0.112670898438,-0.0167846679688,0.99072265625
26907316121,-0.072509765625,-0.113464355469,-0.0166625976562,0.99072265625
26907332567,-0.0709838867188,-0.114440917969,-0.0165405273438,0.99072265625
26907354950,-0.069580078125,-0.115356445312,-0.0166625976562,0.99072265625
26907376039,-0.0685424804688,-0.116149902344,-0.016845703125,0.99072265625
26907392474,-0.0682373046875,-0.116577148438,-0.01708984375,0.990661621094
26907414971,-0.0684814453125,-0.11669921875,-0.0172729492188,0.990661621094
26907436128,-0.0687866210938,-0.116333007812,-0.0172119140625,0.990661621094
26907452422,-0.0687866210938,-0.116333007812,-0.0172119140625,0.990661621094
26907475001,-0.068603515625,-0.1162109375,-0.0172119140625,0.990661621094
26907496164,-0.068115234375,-0.1162109375,-0.0173950195312,0.99072265625
26907518723,-0.0676879882812,-0.116149902344,-0.0175170898438,0.99072265625
26907534918,-0.0672607421875,-0.116149902344,-0.0176391601562,0.990783691406
26907556126,-0.0667114257812,-0.116149902344,-0.0177612304688,0.990783691406
26907572480,-0.0659790039062,-0.116088867188,-0.0178833007812,0.990844726562
26907594941,-0.0656127929688,-0.116088867188,-0.0180053710938,0.990905761719
26907616144,-0.0656127929688,-0.115966796875,-0.0181884765625,0.990905761719
26907632421,-0.0657348632812,-0.115783691406,-0.0183715820312,0.990905761719
26907654947,-0.0657348632812,-0.115417480469,-0.0184936523438,0.990966796875
26907676144,-0.0655517578125,-0.115173339844,-0.0186157226562,0.990966796875
26907692486,-0.0650634765625,-0.114990234375,-0.0186767578125,0.991027832031
26907714974,-0.0643920898438,-0.11474609375,-0.0187377929688,0.991088867188
26907736043,-0.0641479492188,-0.114379882812,-0.0189208984375,0.991149902344
26907752498,-0.064208984375,-0.114135742188,-0.0192260742188,0.991149902344
26907774918,-0.0642700195312,-0.113830566406,-0.0194091796875,0.9912109375
26907797449,-0.0642700195312,-0.113830566406,-0.0194091796875,0.9912109375
26907812442,-0.0642700195312,-0.113830566406,-0.0194091796875,0.9912109375
26907834976,-0.0640258789062,-0.113708496094,-0.01953125,0.9912109375
26907857444,-0.0640258789062,-0.113708496094,-0.01953125,0.9912109375
26907871786,-0.0640258789062,-0.113708496094,-0.01953125,0.9912109375
26907894922,-0.064208984375,-0.113708496094,-0.0195922851562,0.9912109375
26907917448,-0.064208984375,-0.113708496094,-0.0195922851562,0.9912109375
26907931848,-0.064208984375,-0.113708496094,-0.0195922851562,0.9912109375
26907954950,-0.0643310546875,-0.113708496094,-0.0195922851562,0.9912109375
26907977480,-0.0647583007812,-0.11376953125,-0.01953125,0.9912109375
26907998671,-0.06494140625,-0.113647460938,-0.019287109375,0.9912109375
26908014980,-0.0653076171875,-0.11376953125,-0.0191040039062,0.991149902344
26908037427,-0.0660400390625,-0.114013671875,-0.01904296875,0.991088867188
26908051769,-0.0670166015625,-0.113952636719,-0.0189208984375,0.991027832031
26908075400,-0.06787109375,-0.113647460938,-0.0187377929688,0.991027832031
26908097450,-0.0687255859375,-0.113525390625,-0.0186157226562,0.990966796875
26908111749,-0.069580078125,-0.113342285156,-0.0187377929688,0.990905761719
26908134958,-0.0703125,-0.112426757812,-0.0186157226562,0.990966796875
26908157470,-0.0711669921875,-0.111206054688,-0.0185546875,0.991027832031
26908171769,-0.0724487304688,-0.1103515625,-0.0188598632812,0.991027832031
26908194949,-0.0739135742188,-0.109313964844,-0.01953125,0.991027832031
26908217448,-0.0755004882812,-0.107482910156,-0.0197143554688,0.991088867188
26908238634,-0.0768432617188,-0.105529785156,-0.0197143554688,0.9912109375
26908254977,-0.0789184570312,-0.103454589844,-0.0201416015625,0.991271972656
26908277443,-0.0816040039062,-0.1015625,-0.0211181640625,0.9912109375
26908298497,-0.0853881835938,-0.0989379882812,-0.0220947265625,0.991149902344
26908314947,-0.0889892578125,-0.0961303710938,-0.0233154296875,0.991088867188
26908337419,-0.0911865234375,-0.0921630859375,-0.02490234375,0.9912109375
26908358716,-0.0933837890625,-0.0885620117188,-0.027099609375,0.991271972656
26908374982,-0.0935668945312,-0.0843505859375,-0.0285034179688,0.991577148438
26908397459,-0.0946044921875,-0.079833984375,-0.029296875,0.991882324219
26908418790,-0.0982055664062,-0.07470703125,-0.0302124023438,0.991882324219
26908434974,-0.1025390625,-0.068603515625,-0.0303955078125,0.991882324219
26908457425,-0.105529785156,-0.0617065429688,-0.030029296875,0.992004394531
26908478579,-0.107177734375,-0.0537719726562,-0.0299072265625,0.992309570312
26908494232,-0.107788085938,-0.0447998046875,-0.0296630859375,0.99267578125
26908517404,-0.108154296875,-0.0352172851562,-0.029296875,0.993041992188
26908538730,-0.109069824219,-0.0250244140625,-0.0286254882812,0.993286132812
26908554280,-0.110717773438,-0.013916015625,-0.0274047851562,0.993347167969
26908577481,-0.112548828125,-0.002197265625,-0.02587890625,0.993286132812
26908598613,-0.113464355469,0.00982666015625,-0.0242919921875,0.9931640625
26908614238,-0.113342285156,0.0221557617188,-0.0224609375,0.993041992188
26908629232,-0.112548828125,0.0348510742188,-0.0200805664062,0.992797851562
26908642826,-0.110717773438,0.04736328125,-0.0175170898438,0.992553710938
26908665294,-0.107666015625,0.059814453125,-0.014892578125,0.992248535156
26908681747,-0.10400390625,0.0725708007812,-0.0120849609375,0.991821289062
26908702911,-0.100708007812,0.08544921875,-0.00897216796875,0.991149902344
26908725367,-0.0982666015625,0.0980224609375,-0.00555419921875,0.990295410156
26908741794,-0.0965576171875,0.110717773438,-0.00189208984375,0.989135742188
26908762830,-0.094970703125,0.123596191406,0.00177001953125,0.987731933594
26908785363,-0.0933227539062,0.136779785156,0.0052490234375,0.986145019531
26908801749,-0.0911254882812,0.150024414062,0.0087890625,0.984436035156
26908830425,-0.088623046875,0.163391113281,0.0125122070312,0.982482910156
26908845459,-0.0858764648438,0.176513671875,0.01611328125,0.980346679688
26908861798,-0.0819091796875,0.189758300781,0.0193481445312,0.978149414062
26908882853,-0.0772094726562,0.203369140625,0.02197265625,0.975769042969
26908906836,-0.0731201171875,0.216918945312,0.023681640625,0.97314453125
26908921822,-0.0703735351562,0.230102539062,0.0253295898438,0.970275878906
26908942893,-0.068359375,0.242370605469,0.0279541015625,0.967346191406
26908965529,-0.0662231445312,0.253723144531,0.0309448242188,0.964477539062
26908981768,-0.06494140625,0.26513671875,0.0335693359375,0.961364746094
26909002893,-0.0636596679688,0.276000976562,0.036865234375,0.958312988281
26909025418,-0.0612182617188,0.285766601562,0.041015625,0.955444335938
26909040422,-0.0585327148438,0.29541015625,0.044677734375,0.952514648438
26909062808,-0.056396484375,0.305419921875,0.0481567382812,0.949279785156
26909085551,-0.0543212890625,0.315124511719,0.0521850585938,0.946044921875
26909100319,-0.0521240234375,0.324462890625,0.0571899414062,0.942687988281
26909122930,-0.0516357421875,0.333190917969,0.0620727539062,0.939331054688
26909145424,-0.0513305664062,0.34130859375,0.0667724609375,0.936096191406
26909160557,-0.0509643554688,0.349365234375,0.0711059570312,0.932861328125
26909182755,-0.0513305664062,0.357299804688,0.0752563476562,0.929504394531
26909205371,-0.0520629882812,0.364501953125,0.0801391601562,0.92626953125
26909220485,-0.0536499023438,0.37109375,0.0851440429688,0.923095703125
26909242869,-0.0535888671875,0.376953125,0.08984375,0.920288085938
26909265356,-0.0518798828125,0.38232421875,0.0946655273438,0.917663574219
26909281758,-0.0505981445312,0.387329101562,0.0995483398438,0.915100097656
26909302841,-0.0491943359375,0.392333984375,0.104370117188,0.912536621094
26909325417,-0.0482788085938,0.3974609375,0.109008789062,0.909790039062
26909341716,-0.047607421875,0.402587890625,0.113525390625,0.907043457031
26909363011,-0.0468139648438,0.407592773438,0.117431640625,0.904296875
26909385514,-0.0465698242188,0.413269042969,0.120788574219,0.901306152344
26909401750,-0.0466918945312,0.419189453125,0.124328613281,0.898071289062
26909422923,-0.0469970703125,0.424987792969,0.1279296875,0.894836425781
26909445453,-0.0467529296875,0.430725097656,0.130737304688,0.891662597656
26909461794,-0.0460815429688,0.436584472656,0.133178710938,0.888488769531
26909482877,-0.0455322265625,0.442260742188,0.135559082031,0.885375976562
26909505265,-0.0447998046875,0.447875976562,0.138305664062,0.882141113281
26909521806,-0.044677734375,0.453002929688,0.141174316406,0.879089355469
26909550391,-0.044921875,0.457702636719,0.143981933594,0.876159667969
26909565405,-0.0443725585938,0.462463378906,0.146728515625,0.873229980469
26909581749,-0.043212890625,0.467163085938,0.149597167969,0.870300292969
26909602897,-0.04296875,0.471496582031,0.152160644531,0.867492675781
26909625411,-0.042724609375,0.475646972656,0.154846191406,0.864807128906
26909641767,-0.0418701171875,0.480102539062,0.157348632812,0.861938476562
26909662928,-0.0423583984375,0.484191894531,0.15966796875,0.859191894531
26909685435,-0.0422973632812,0.487854003906,0.161315917969,0.856811523438
26909703189,-0.0425415039062,0.491516113281,0.162658691406,0.854431152344
26909722924,-0.04296875,0.494995117188,0.164123535156,0.852111816406
26909752954,-0.0446166992188,0.497436523438,0.166564941406,0.850158691406
26909763245,-0.0466918945312,0.499450683594,0.168823242188,0.848388671875
26909782979,-0.0482177734375,0.501159667969,0.170776367188,0.846923828125
26909812926,-0.0493774414062,0.502807617188,0.172790527344,0.845458984375
26909830711,-0.051025390625,0.504455566406,0.174743652344,0.843933105469
26909842841,-0.0516967773438,0.505737304688,0.176513671875,0.842834472656
26909860773,-0.0516967773438,0.506896972656,0.17822265625,0.841735839844
26909883175,-0.0525512695312,0.508056640625,0.180114746094,0.840576171875
26909902939,-0.0534057617188,0.509033203125,0.182250976562,0.839477539062
26909920717,-0.054443359375,0.509338378906,0.183898925781,0.8388671875
26909943207,-0.0542602539062,0.510009765625,0.185424804688,0.838134765625
26909962837,-0.0550537109375,0.510559082031,0.18701171875,0.83740234375
26909980706,-0.0557250976562,0.510986328125,0.188781738281,0.836669921875
26910003250,-0.0557250976562,0.510925292969,0.1904296875,0.836364746094
26910030239,-0.0552368164062,0.511047363281,0.191528320312,0.836059570312
26910040683,-0.05517578125,0.511596679688,0.192199707031,0.835571289062
26910063268,-0.0554809570312,0.511840820312,0.192810058594,0.835266113281
26910082937,-0.0553588867188,0.511840820312,0.193542480469,0.835144042969
26910100719,-0.0560302734375,0.511535644531,0.194091796875,0.835144042969
26910123163,-0.0578002929688,0.511291503906,0.194702148438,0.835021972656
26910142804,-0.0584106445312,0.510375976562,0.195251464844,0.835388183594
26910160743,-0.0581665039062,0.509094238281,0.195495605469,0.836120605469
26910183176,-0.059326171875,0.508666992188,0.195617675781,0.836303710938
26910203552,-0.060791015625,0.508239746094,0.195739746094,0.83642578125
26910219908,-0.060791015625,0.507629394531,0.196105957031,0.836669921875
26910242395,-0.0601806640625,0.507385253906,0.196166992188,0.836853027344
26910263545,-0.0607299804688,0.507629394531,0.196105957031,0.836730957031
26910279921,-0.0625,0.507568359375,0.196228027344,0.836608886719
26910302401,-0.0625,0.507263183594,0.196716308594,0.836669921875
26910323530,-0.0615844726562,0.507385253906,0.197143554688,0.836547851562
26910339929,-0.06298828125,0.507751464844,0.197631835938,0.836120605469
26910362372,-0.064453125,0.507690429688,0.198425292969,0.835815429688
26910384941,-0.06396484375,0.507568359375,0.199401855469,0.835754394531
26910399941,-0.0635986328125,0.507507324219,0.199584960938,0.835754394531
26910422431,-0.0640869140625,0.507934570312,0.19970703125,0.83544921875
26910443576,-0.0648803710938,0.507934570312,0.199890136719,0.835327148438
26910460362,-0.0648803710938,0.507934570312,0.199890136719,0.835327148438
26910482335,-0.0648803710938,0.5078125,0.199401855469,0.835510253906
26910503598,-0.0665283203125,0.507568359375,0.199157714844,0.835571289062
26910519919,-0.0682373046875,0.506774902344,0.199157714844,0.8359375
26910542387,-0.0687255859375,0.505737304688,0.198791503906,0.836608886719
26910563521,-0.0692749023438,0.505004882812,0.19775390625,0.837219238281
26910579924,-0.0704345703125,0.504638671875,0.196594238281,0.837646484375
26910602359,-0.0711669921875,0.504028320312,0.196105957031,0.838012695312
26910624921,-0.0720825195312,0.503173828125,0.19580078125,0.838562011719
26910640006,-0.0721435546875,0.502685546875,0.1953125,0.838928222656
26910662396,-0.0730590820312,0.502380371094,0.194946289062,0.839111328125
26910684915,-0.07373046875,0.502014160156,0.194885253906,0.83935546875
26910699248,-0.0739135742188,0.501525878906,0.195007324219,0.839599609375
26910722385,-0.0736694335938,0.501525878906,0.194580078125,0.839721679688
26910744923,-0.0744018554688,0.501831054688,0.1943359375,0.839538574219
26910759218,-0.0750732421875,0.502075195312,0.194580078125,0.839233398438
26910782409,-0.0747680664062,0.502319335938,0.194702148438,0.839111328125
26910804924,-0.0743408203125,0.502868652344,0.194519042969,0.8388671875
26910819208,-0.0745239257812,0.50341796875,0.194458007812,0.838562011719
26910848494,-0.0747680664062,0.503356933594,0.19482421875,0.838439941406
26910864913,-0.0748901367188,0.503112792969,0.195068359375,0.838500976562
26910879269,-0.074462890625,0.5029296875,0.194946289062,0.838684082031
26910902385,-0.074951171875,0.502807617188,0.194702148438,0.838745117188
26910924919,-0.0755615234375,0.502075195312,0.194946289062,0.839111328125
26910939218,-0.07470703125,0.5009765625,0.195617675781,0.839660644531
26910962422,-0.0744018554688,0.49951171875,0.196472167969,0.840393066406
26910984950,-0.073486328125,0.498229980469,0.197143554688,0.841064453125
26910999217,-0.0734252929688,0.497192382812,0.197570800781,0.841613769531
26911022365,-0.0743408203125,0.496704101562,0.197387695312,0.841857910156
26911044640,-0.075439453125,0.496215820312,0.19677734375,0.842163085938
26911059281,-0.0758666992188,0.495361328125,0.196411132812,0.842712402344
26911082386,-0.076416015625,0.493835449219,0.196228027344,0.843627929688
26911104908,-0.07763671875,0.491577148438,0.196166992188,0.844848632812
26911126076,-0.0789794921875,0.488891601562,0.195922851562,0.846313476562
26911142396,-0.0802001953125,0.485656738281,0.1953125,0.848205566406
26911164926,-0.0818481445312,0.481628417969,0.194396972656,0.8505859375
26911186052,-0.0839233398438,0.476867675781,0.192993164062,0.853393554688
26911202359,-0.0856323242188,0.47216796875,0.191162109375,0.856201171875
26911224944,-0.0867309570312,0.4677734375,0.188781738281,0.859008789062
26911246068,-0.08740234375,0.463256835938,0.186096191406,0.861999511719
26911262378,-0.089111328125,0.458618164062,0.183227539062,0.864929199219
26911284893,-0.0906982421875,0.453918457031,0.18017578125,0.867858886719
26911306083,-0.092041015625,0.448913574219,0.176818847656,0.871032714844
26911322402,-0.09423828125,0.443054199219,0.173217773438,0.87451171875
26911344916,-0.0977172851562,0.436401367188,0.169494628906,0.878173828125
26911366076,-0.100830078125,0.429077148438,0.165405273438,0.882202148438
26911381758,-0.10302734375,0.42138671875,0.160583496094,0.886535644531
26911404897,-0.105285644531,0.412963867188,0.154907226562,0.891235351562
26911425907,-0.107360839844,0.403625488281,0.148681640625,0.896301269531
26911441665,-0.108642578125,0.3935546875,0.142517089844,0.901611328125
26911464902,-0.109924316406,0.382873535156,0.136047363281,0.907043457031
26911486075,-0.111572265625,0.372131347656,0.129577636719,0.912231445312
26911501816,-0.112915039062,0.361206054688,0.123413085938,0.917297363281
26911526293,-0.113891601562,0.349731445312,0.117248535156,0.922424316406
26911547374,-0.115295410156,0.337890625,0.111511230469,0.927368164062
26911561701,-0.117980957031,0.325988769531,0.105834960938,0.931945800781
26911584910,-0.120666503906,0.314331054688,0.10009765625,0.936218261719
26911607649,-0.122375488281,0.303039550781,0.0941162109375,0.940368652344
26911621673,-0.124084472656,0.292053222656,0.088134765625,0.944152832031
26911644923,-0.125,0.281188964844,0.0818481445312,0.947937011719
26911667391,-0.125732421875,0.270629882812,0.0759887695312,0.951354980469
26911688534,-0.127502441406,0.259887695312,0.0704956054688,0.954528808594
26911704917,-0.129699707031,0.24853515625,0.0648193359375,0.957641601562
26911727399,-0.13134765625,0.236755371094,0.0591430664062,0.960815429688
26911748514,-0.132019042969,0.224792480469,0.0533447265625,0.963928222656
26911764902,-0.1318359375,0.213073730469,0.0474853515625,0.966918945312
26911787494,-0.130920410156,0.201416015625,0.041748046875,0.969787597656
26911808583,-0.129943847656,0.189575195312,0.0361328125,0.972534179688
26911824925,-0.128723144531,0.177673339844,0.0307006835938,0.97509765625
26911847364,-0.128173828125,0.165832519531,0.0255737304688,0.977416992188
26911868381,-0.128356933594,0.153747558594,0.0206298828125,0.9794921875
26911884924,-0.128356933594,0.141723632812,0.0158081054688,0.981384277344
26911907389,-0.128601074219,0.130004882812,0.0114135742188,0.983032226562
26911928525,-0.129760742188,0.118347167969,0.00701904296875,0.984375
26911944934,-0.130676269531,0.106811523438,0.00274658203125,0.985595703125
26911967402,-0.130798339844,0.095703125,-0.00140380859375,0.986755371094
26911988593,-0.129821777344,0.0852661132812,-0.0054931640625,0.98779296875
26912004887,-0.128845214844,0.0751953125,-0.009521484375,0.988708496094
26912027399,-0.128601074219,0.065185546875,-0.0133666992188,0.989440917969
26912048551,-0.128662109375,0.0554809570312,-0.0166625976562,0.989990234375
26912064910,-0.12890625,0.046142578125,-0.0194091796875,0.990356445312
26912087348,-0.129272460938,0.0369873046875,-0.0221557617188,0.990661621094
26912108648,-0.129577636719,0.0281982421875,-0.0250244140625,0.990844726562
26912124939,-0.129455566406,0.0199584960938,-0.0277709960938,0.990966796875
26912147362,-0.129028320312,0.01220703125,-0.0303344726562,0.991088867188
26912168420,-0.128479003906,0.00445556640625,-0.0327758789062,0.991149902344
26912184921,-0.127380371094,-0.00347900390625,-0.0346069335938,0.9912109375
26912207377,-0.12548828125,-0.0112915039062,-0.0359497070312,0.991333007812
26912228246,-0.122863769531,-0.0192260742188,-0.037353515625,0.991516113281
26912244227,-0.1201171875,-0.0266723632812,-0.0390625,0.991577148438
26912267372,-0.117492675781,-0.0336303710938,-0.0403442382812,0.991638183594
26912288545,-0.114318847656,-0.0401611328125,-0.0411376953125,0.991760253906
26912304285,-0.111267089844,-0.0464477539062,-0.0421752929688,0.991760253906
26912327392,-0.10888671875,-0.052001953125,-0.0435180664062,0.99169921875
26912348549,-0.107421875,-0.0570068359375,-0.0440063476562,0.991577148438
26912364705,-0.106506347656,-0.0618286132812,-0.0440673828125,0.991394042969
26912387377,-0.105651855469,-0.0663452148438,-0.04443359375,0.991149902344
26912408413,-0.104187011719,-0.0706176757812,-0.04443359375,0.991027832031
26912424224,-0.102478027344,-0.074951171875,-0.0441284179688,0.990905761719
26912447344,-0.100402832031,-0.0789184570312,-0.0438232421875,0.990844726562
26912468586,-0.09765625,-0.0823364257812,-0.0432739257812,0.990844726562
26912484248,-0.09521484375,-0.0853881835938,-0.0427856445312,0.990844726562
26912507123,-0.0934448242188,-0.088623046875,-0.04248046875,0.99072265625
26912529961,-0.0921630859375,-0.0918579101562,-0.042236328125,0.990600585938
26912544197,-0.0909423828125,-0.0949096679688,-0.0421142578125,0.990417480469
26912567337,-0.0902099609375,-0.09716796875,-0.0423583984375,0.990234375
26912589926,-0.0905151367188,-0.0991821289062,-0.042724609375,0.989990234375
26912604922,-0.0914306640625,-0.101806640625,-0.0431518554688,0.989624023438
26912627321,-0.0924072265625,-0.104064941406,-0.0433349609375,0.989318847656
26912649915,-0.0924072265625,-0.105773925781,-0.04345703125,0.989135742188
26912664228,-0.0912475585938,-0.107421875,-0.043701171875,0.989013671875
26912687351,-0.0899658203125,-0.108947753906,-0.0439453125,0.988952636719
26912709917,-0.0891723632812,-0.110412597656,-0.0440673828125,0.988891601562
26912724194,-0.0888671875,-0.11181640625,-0.0441284179688,0.988708496094
26912747344,-0.0887451171875,-0.114013671875,-0.0442504882812,0.988525390625
26912769929,-0.087890625,-0.114807128906,-0.0440063476562,0.988464355469
26912791145,-0.0874633789062,-0.115234375,-0.0437622070312,0.988464355469
26912807371,-0.0874633789062,-0.115295410156,-0.0437622070312,0.988464355469
26912829902,-0.0875854492188,-0.115295410156,-0.043701171875,0.988464355469
26912844203,-0.0877685546875,-0.11572265625,-0.043701171875,0.988403320312
26912867371,-0.0883178710938,-0.116577148438,-0.0436401367188,0.98828125
26912889941,-0.0885009765625,-0.117980957031,-0.0435180664062,0.988098144531
26912904155,-0.0881958007812,-0.119201660156,-0.0433349609375,0.987976074219
26912927367,-0.0870361328125,-0.11962890625,-0.0430908203125,0.988037109375
26912949938,-0.085205078125,-0.11962890625,-0.04296875,0.988220214844
26912964219,-0.0839233398438,-0.120178222656,-0.0433349609375,0.988220214844
26912987365,-0.0829467773438,-0.121276855469,-0.0435180664062,0.988159179688
26913009930,-0.0806884765625,-0.122192382812,-0.0432739257812,0.98828125
26913031086,-0.0767822265625,-0.122924804688,-0.0428466796875,0.988464355469
26913047331,-0.0739135742188,-0.123413085938,-0.0428466796875,0.988647460938
26913070300,-0.0731811523438,-0.124328613281,-0.0435180664062,0.988586425781
26913091050,-0.0744018554688,-0.125,-0.0447387695312,0.988342285156
26913107398,-0.0770874023438,-0.125061035156,-0.0463256835938,0.988037109375
26913129826,-0.0792846679688,-0.124389648438,-0.0485229492188,0.987854003906
26913151037,-0.0802612304688,-0.123596191406,-0.0509643554688,0.987731933594
26913167367,-0.0800170898438,-0.12255859375,-0.0531005859375,0.98779296875
26913189923,-0.076904296875,-0.121887207031,-0.054443359375,0.988037109375
26913210957,-0.0714721679688,-0.122131347656,-0.0551147460938,0.988403320312
26913226613,-0.0670166015625,-0.122680664062,-0.0557861328125,0.988586425781
26913249826,-0.0650634765625,-0.123046875,-0.0564575195312,0.988647460938
26913271191,-0.0654296875,-0.123046875,-0.0570678710938,0.988586425781
26913286706,-0.0671997070312,-0.12255859375,-0.0571899414062,0.988525390625
26913309924,-0.0692749023438,-0.121704101562,-0.056884765625,0.988464355469
26913331048,-0.0709228515625,-0.120971679688,-0.0564575195312,0.988464355469
26913347347,-0.0720825195312,-0.120483398438,-0.0562744140625,0.988464355469
26913369929,-0.0731811523438,-0.119934082031,-0.056396484375,0.988464355469
26913391052,-0.073974609375,-0.119445800781,-0.0564575195312,0.988464355469
26913407352,-0.0746459960938,-0.119140625,-0.0564575195312,0.988403320312
26913429922,-0.0751953125,-0.119201660156,-0.0564575195312,0.988403320312
26913452350,-0.0751953125,-0.119445800781,-0.056640625,0.988342285156
26913467348,-0.0747680664062,-0.11962890625,-0.0568237304688,0.988342285156
26913489929,-0.0738525390625,-0.119873046875,-0.0570068359375,0.988403320312
26913512375,-0.0729370117188,-0.119873046875,-0.0570678710938,0.988464355469
26913517862,-0.072509765625,-0.119934082031,-0.0570068359375,0.988464355469
26913534194,-0.072509765625,-0.120239257812,-0.0569458007812,0.988464355469
26913555349,-0.072998046875,-0.120666503906,-0.0569458007812,0.988342285156
26913577775,-0.0735473632812,-0.121154785156,-0.0570678710938,0.988220214844
26913592854,-0.0739135742188,-0.12158203125,-0.0572509765625,0.988159179688
26913615353,-0.073974609375,-0.121643066406,-0.0572509765625,0.988159179688
26913637793,-0.07373046875,-0.121520996094,-0.0573120117188,0.988159179688
26913652944,-0.073486328125,-0.121459960938,-0.0575561523438,0.988159179688
26913675291,-0.0736694335938,-0.121398925781,-0.057861328125,0.988159179688
26913697842,-0.073974609375,-0.121215820312,-0.05810546875,0.988159179688
26913712856,-0.0740356445312,-0.120971679688,-0.0582275390625,0.988159179688
26913735250,-0.0740356445312,-0.120788574219,-0.0584106445312,0.988159179688
26913757968,-0.07421875,-0.120666503906,-0.0586547851562,0.988159179688
26913772793,-0.074462890625,-0.12060546875,-0.0588989257812,0.988098144531
26913795243,-0.0745849609375,-0.120422363281,-0.05908203125,0.988098144531
26913817895,-0.0741577148438,-0.120483398438,-0.0592651367188,0.988159179688
26913832826,-0.0736694335938,-0.12060546875,-0.0594482421875,0.988159179688
26913855487,-0.0732421875,-0.120666503906,-0.0596923828125,0.988159179688
26913877841,-0.0728149414062,-0.120483398438,-0.059814453125,0.988220214844
26913900394,-0.0723266601562,-0.120361328125,-0.0599975585938,0.988220214844
26913915345,-0.0721435546875,-0.120056152344,-0.0601806640625,0.98828125
26913937887,-0.0719604492188,-0.119567871094,-0.0601196289062,0.988342285156
26913952888,-0.0714111328125,-0.119201660156,-0.0596313476562,0.988464355469
26913975350,-0.0709228515625,-0.119201660156,-0.0591430664062,0.988525390625
26913997880,-0.0715942382812,-0.119506835938,-0.0589599609375,0.988464355469
26914012851,-0.0730590820312,-0.119934082031,-0.0589599609375,0.98828125
26914035287,-0.07421875,-0.1201171875,-0.0588989257812,0.988220214844
26914057956,-0.074462890625,-0.1201171875,-0.0587768554688,0.988220214844
26914075639,-0.0737915039062,-0.1201171875,-0.0587768554688,0.988220214844
26914095224,-0.07275390625,-0.1201171875,-0.0588989257812,0.988342285156
26914117800,-0.0718383789062,-0.120056152344,-0.05908203125,0.988403320312
26914134151,-0.0712280273438,-0.119995117188,-0.0591430664062,0.988403320312
26914155439,-0.0706176757812,-0.120178222656,-0.0592041015625,0.988464355469
26914180638,-0.0701293945312,-0.120300292969,-0.0592041015625,0.988464355469
26914194250,-0.0697631835938,-0.120483398438,-0.0592041015625,0.988464355469
26914215170,-0.069580078125,-0.12060546875,-0.0592041015625,0.988464355469
26914237898,-0.069091796875,-0.120849609375,-0.0592041015625,0.988464355469
26914254175,-0.0682373046875,-0.121398925781,-0.0591430664062,0.988464355469
26914275324,-0.0675659179688,-0.122131347656,-0.059326171875,0.988403320312
26914297996,-0.0663452148438,-0.122802734375,-0.0595092773438,0.988403320312
26914314212,-0.0651245117188,-0.123596191406,-0.0595092773438,0.988403320312
26914335367,-0.0643310546875,-0.124755859375,-0.0593872070312,0.98828125
26914353109,-0.0648193359375,-0.125732421875,-0.0594482421875,0.988159179688
26914374147,-0.0662231445312,-0.126586914062,-0.0595092773438,0.987915039062
26914395385,-0.0684204101562,-0.127319335938,-0.0597534179688,0.987670898438
26914417856,-0.07177734375,-0.128356933594,-0.0599365234375,0.9873046875
26914435682,-0.0751953125,-0.129333496094,-0.0596313476562,0.986938476562
26914455338,-0.0782470703125,-0.130310058594,-0.0594482421875,0.986572265625
26914477955,-0.0814208984375,-0.130676269531,-0.0596313476562,0.986267089844
26914495613,-0.085205078125,-0.130737304688,-0.0597534179688,0.985900878906
26914515354,-0.0897827148438,-0.130065917969,-0.060302734375,0.985595703125
26914537876,-0.093994140625,-0.128967285156,-0.0609130859375,0.985290527344
26914555633,-0.0972290039062,-0.127136230469,-0.0613403320312,0.985168457031
26914575362,-0.0995483398438,-0.125183105469,-0.0621948242188,0.985168457031
26914597852,-0.103149414062,-0.123046875,-0.0634765625,0.984985351562
26914615613,-0.107666015625,-0.120361328125,-0.0647583007812,0.984741210938
26914635472,-0.112365722656,-0.116516113281,-0.0657958984375,0.984619140625
26914657986,-0.11669921875,-0.112548828125,-0.0667114257812,0.984497070312
26914675632,-0.121826171875,-0.108459472656,-0.0667114257812,0.984313964844
26914695292,-0.125427246094,-0.103576660156,-0.06591796875,0.984436035156
26914717831,-0.127563476562,-0.0979614257812,-0.0648803710938,0.984802246094
26914735615,-0.129211425781,-0.0917358398438,-0.0634155273438,0.985290527344
26914755297,-0.130554199219,-0.0849609375,-0.0615234375,0.98583984375
26914778038,-0.131591796875,-0.0777587890625,-0.0592041015625,0.986450195312
26914795675,-0.13232421875,-0.06982421875,-0.0565185546875,0.987121582031
26914816664,-0.132934570312,-0.0609130859375,-0.0535278320312,0.98779296875
26914837777,-0.133239746094,-0.0513305664062,-0.0501708984375,0.988464355469
26914855610,-0.1337890625,-0.0413208007812,-0.0462036132812,0.989013671875
26914876669,-0.135314941406,-0.03076171875,-0.0421142578125,0.989379882812
26914897798,-0.137329101562,-0.0195922851562,-0.03759765625,0.989562988281
26914915670,-0.138854980469,-0.0081787109375,-0.0325927734375,0.98974609375
26914935324,-0.138977050781,0.00341796875,-0.0277099609375,0.989868164062
26914957873,-0.137939453125,0.0154418945312,-0.0225219726562,0.990051269531
26914975684,-0.136352539062,0.0276489257812,-0.0169677734375,0.990112304688
26914996647,-0.134704589844,0.0399780273438,-0.0113525390625,0.989990234375
26915017774,-0.13330078125,0.0529174804688,-0.00579833984375,0.989624023438
26915035582,-0.131896972656,0.0661010742188,0.0,0.989013671875
26915056764,-0.130676269531,0.0794067382812,0.0059814453125,0.988220214844
26915077824,-0.130004882812,0.0926513671875,0.0122680664062,0.987060546875
26915095656,-0.129577636719,0.106201171875,0.018798828125,0.985656738281
26915115978,-0.129089355469,0.119995117188,0.0254516601562,0.984008789062
26915138507,-0.128662109375,0.133544921875,0.031982421875,0.982116699219
26915154826,-0.128723144531,0.147033691406,0.0389404296875,0.979919433594
26915175917,-0.129028320312,0.160339355469,0.04638671875,0.977478027344
26915198470,-0.12939453125,0.173461914062,0.0538940429688,0.974792480469
26915214846,-0.12890625,0.1865234375,0.0612182617188,0.971984863281
26915235966,-0.127807617188,0.199157714844,0.068603515625,0.969116210938
26915251631,-0.126831054688,0.211120605469,0.07666015625,0.966125488281
26915274787,-0.125793457031,0.222290039062,0.0842895507812,0.963134765625
26915295946,-0.12353515625,0.233825683594,0.0906982421875,0.960083007812
26915319826,-0.120300292969,0.245910644531,0.0966796875,0.956909179688
26915334803,-0.117492675781,0.257019042969,0.10302734375,0.953674316406
26915357356,-0.114929199219,0.26708984375,0.109069824219,0.950500488281
26915371687,-0.1123046875,0.276428222656,0.114379882812,0.947509765625
26915394835,-0.109619140625,0.285949707031,0.11865234375,0.944519042969
26915417307,-0.107421875,0.295043945312,0.122863769531,0.94140625
26915431664,-0.105651855469,0.303405761719,0.127075195312,0.938415527344
26915454824,-0.103881835938,0.311096191406,0.130798339844,0.935546875
26915477290,-0.10205078125,0.318969726562,0.133850097656,0.932678222656
26915498441,-0.100158691406,0.326599121094,0.136901855469,0.929748535156
26915514776,-0.0984497070312,0.334350585938,0.139831542969,0.9267578125
26915537326,-0.0975952148438,0.341735839844,0.142761230469,0.923706054688
26915558301,-0.0968627929688,0.348937988281,0.145629882812,0.920654296875
26915574858,-0.095947265625,0.356262207031,0.1484375,0.91748046875
26915597270,-0.094970703125,0.363708496094,0.151123046875,0.914184570312
26915618514,-0.09423828125,0.370788574219,0.15380859375,0.910949707031
26915634581,-0.0938720703125,0.377746582031,0.156555175781,0.90771484375
26915657415,-0.0931396484375,0.384887695312,0.1591796875,0.904296875
26915678540,-0.0922241210938,0.392150878906,0.161865234375,0.900817871094
26915694798,-0.0908813476562,0.399047851562,0.16455078125,0.897399902344
26915717316,-0.0894165039062,0.405700683594,0.1669921875,0.894104003906
26915738509,-0.0878295898438,0.412475585938,0.169128417969,0.890747070312
26915754796,-0.0858764648438,0.418884277344,0.171447753906,0.887512207031
26915777271,-0.083740234375,0.4248046875,0.173767089844,0.884460449219
26915798512,-0.0814819335938,0.430541992188,0.175964355469,0.881408691406
26915814809,-0.0787963867188,0.436462402344,0.177795410156,0.87841796875
26915837314,-0.0761108398438,0.441955566406,0.180053710938,0.875427246094
26915858457,-0.0750122070312,0.447021484375,0.182312011719,0.872497558594
26915874822,-0.0738525390625,0.451721191406,0.1845703125,0.869689941406
26915897293,-0.0719604492188,0.456298828125,0.186706542969,0.867004394531
26915918441,-0.0692749023438,0.460998535156,0.188415527344,0.864318847656
26915934779,-0.066650390625,0.465698242188,0.190307617188,0.861572265625
26915957323,-0.0645141601562,0.470336914062,0.192138671875,0.858825683594
26915978547,-0.0626831054688,0.474487304688,0.193908691406,0.856323242188
26915994800,-0.06103515625,0.478759765625,0.195617675781,0.853637695312
26916017324,-0.0598754882812,0.483093261719,0.197204589844,0.850891113281
26916041005,-0.0585327148438,0.48681640625,0.198974609375,0.848510742188
26916054756,-0.0571899414062,0.490051269531,0.200927734375,0.846252441406
26916092968,-0.0560302734375,0.493469238281,0.202758789062,0.843872070312
26916098468,-0.0552368164062,0.496765136719,0.204895019531,0.841491699219
26916122276,-0.0546264648438,0.499450683594,0.207275390625,0.83935546875
26916137320,-0.05322265625,0.502685546875,0.209228515625,0.837036132812
26916158496,-0.0519409179688,0.506286621094,0.2109375,0.834533691406
26916174158,-0.0517578125,0.509643554688,0.212890625,0.831970214844
26916198754,-0.0518188476562,0.512573242188,0.215209960938,0.829528808594
26916218387,-0.0517578125,0.515014648438,0.217468261719,0.827453613281
26916242328,-0.0513916015625,0.517395019531,0.219299316406,0.825500488281
26916257277,-0.0513305664062,0.519409179688,0.221496582031,0.823669433594
26916280417,-0.0521240234375,0.520874023438,0.223388671875,0.822204589844
26916294181,-0.052001953125,0.522033691406,0.224670410156,0.821105957031
26916317321,-0.05126953125,0.523254394531,0.225830078125,0.820068359375
26916339805,-0.05126953125,0.5244140625,0.22705078125,0.818969726562
26916360958,-0.0514526367188,0.525146484375,0.228393554688,0.818115234375
26916377272,-0.0513916015625,0.525573730469,0.229919433594,0.817443847656
26916400289,-0.0517578125,0.526306152344,0.231018066406,0.816650390625
26916414782,-0.05224609375,0.52734375,0.231811523438,0.815673828125
26916437351,-0.0526123046875,0.528259277344,0.232727050781,0.814819335938
26916459802,-0.0530395507812,0.52880859375,0.233581542969,0.814147949219
26916474123,-0.053955078125,0.529357910156,0.234191894531,0.813598632812
26916497301,-0.0551147460938,0.529663085938,0.234619140625,0.813171386719
26916519810,-0.0557861328125,0.529724121094,0.235412597656,0.812866210938
26916534147,-0.0568237304688,0.529663085938,0.236633300781,0.8125
26916557296,-0.0585327148438,0.529418945312,0.237854003906,0.812194824219
26916579827,-0.0597534179688,0.529235839844,0.239074707031,0.811828613281
26916602280,-0.0601806640625,0.529174804688,0.240051269531,0.811584472656
26916617275,-0.0606079101562,0.529174804688,0.24072265625,0.811340332031
26916639829,-0.0610961914062,0.529418945312,0.241394042969,0.810913085938
26916654205,-0.0618896484375,0.529968261719,0.241821289062,0.810363769531
26916677388,-0.0628051757812,0.530029296875,0.242370605469,0.810119628906
26916699876,-0.0635375976562,0.529663085938,0.24267578125,0.810180664062
26916714162,-0.0646362304688,0.528991699219,0.243286132812,0.810363769531
26916737296,-0.0652465820312,0.528503417969,0.24365234375,0.810546875
26916759769,-0.066162109375,0.527893066406,0.243530273438,0.810913085938
26916780942,-0.0665893554688,0.527648925781,0.243408203125,0.81103515625
26916797337,-0.0675048828125,0.527221679688,0.243530273438,0.811218261719
26916819771,-0.06884765625,0.527099609375,0.243286132812,0.811279296875
26916840927,-0.0693359375,0.527160644531,0.242858886719,0.811279296875
26916857267,-0.0698852539062,0.527404785156,0.242736816406,0.811157226562
26916879795,-0.0703125,0.527526855469,0.242858886719,0.810974121094
26916900975,-0.071044921875,0.527282714844,0.242736816406,0.811096191406
26916917305,-0.0711669921875,0.52734375,0.242431640625,0.811157226562
26916939808,-0.0714111328125,0.527038574219,0.242309570312,0.811401367188
26916960960,-0.072021484375,0.526306152344,0.242492675781,0.811767578125
26916977302,-0.072509765625,0.526062011719,0.242370605469,0.811889648438
26916999818,-0.0730590820312,0.525390625,0.242065429688,0.812377929688
26917020961,-0.073486328125,0.524841308594,0.241577148438,0.812866210938
26917037298,-0.073486328125,0.524475097656,0.241149902344,0.813171386719
26917059774,-0.074462890625,0.524658203125,0.240783691406,0.813110351562
26917081081,-0.0757446289062,0.524108886719,0.240417480469,0.813415527344
26917097425,-0.0756225585938,0.523620605469,0.239685058594,0.81396484375
26917119777,-0.0758056640625,0.523559570312,0.238891601562,0.814270019531
26917140969,-0.0760498046875,0.523803710938,0.238098144531,0.814270019531
26917157273,-0.0763549804688,0.523864746094,0.237548828125,0.814392089844
26917179801,-0.0764770507812,0.523376464844,0.237426757812,0.814697265625
26917201002,-0.0769653320312,0.523315429688,0.236999511719,0.814819335938
26917217261,-0.0768432617188,0.523681640625,0.236145019531,0.814880371094
26917239814,-0.0767211914062,0.52392578125,0.235656738281,0.814819335938
26917262280,-0.0770263671875,0.523742675781,0.235656738281,0.81494140625
26917277256,-0.0774536132812,0.523498535156,0.235656738281,0.815063476562
26917299859,-0.0780639648438,0.523864746094,0.235534667969,0.814819335938
26917322281,-0.0787963867188,0.523803710938,0.235534667969,0.814758300781
26917337316,-0.0801391601562,0.523010253906,0.23583984375,0.815063476562
26917359829,-0.0809326171875,0.522583007812,0.235534667969,0.815307617188
26917382261,-0.0814819335938,0.522521972656,0.235473632812,0.815368652344
26917396656,-0.0823364257812,0.522521972656,0.235778808594,0.815185546875
26917419777,-0.0836181640625,0.522521972656,0.236083984375,0.81494140625
26917442273,-0.0841064453125,0.522888183594,0.236145019531,0.814636230469
26917456634,-0.0842895507812,0.523315429688,0.236267089844,0.814331054688
26917479731,-0.084716796875,0.523559570312,0.236450195312,0.814086914062
26917502031,-0.0851440429688,0.52392578125,0.236694335938,0.813720703125
26917516651,-0.0855712890625,0.523986816406,0.2373046875,0.8134765625
26917539773,-0.0859985351562,0.523498535156,0.238708496094,0.813293457031
26917562245,-0.0861206054688,0.52294921875,0.24072265625,0.813049316406
26917576622,-0.0875244140625,0.522216796875,0.242553710938,0.812805175781
26917599801,-0.0888671875,0.521423339844,0.244262695312,0.812683105469
26917622269,-0.0896606445312,0.520080566406,0.246398925781,0.812805175781
26917643458,-0.091064453125,0.518310546875,0.248962402344,0.81298828125
26917659751,-0.0933837890625,0.516357421875,0.250183105469,0.813598632812
26917682260,-0.096435546875,0.514465332031,0.249877929688,0.814575195312
26917703432,-0.0986328125,0.512451171875,0.248596191406,0.81591796875
26917719750,-0.0990600585938,0.510070800781,0.247131347656,0.817810058594
26917749772,-0.0988159179688,0.506530761719,0.246032714844,0.820373535156
26917763725,-0.099609375,0.501525878906,0.245056152344,0.823669433594
26917786088,-0.100769042969,0.495849609375,0.243286132812,0.827453613281
26917802274,-0.102172851562,0.489013671875,0.240234375,0.832275390625
26917823418,-0.103637695312,0.481628417969,0.236755371094,0.837341308594
26917839787,-0.105773925781,0.47314453125,0.232971191406,0.842956542969
26917862273,-0.108581542969,0.463928222656,0.228759765625,0.848876953125
26917883477,-0.111755371094,0.453857421875,0.22412109375,0.855102539062
26917899103,-0.115661621094,0.443237304688,0.219543457031,0.861328125
26917922281,-0.119201660156,0.432556152344,0.2158203125,0.8671875
26917943373,-0.122863769531,0.421020507812,0.212463378906,0.873168945312
26917959748,-0.127258300781,0.408813476562,0.208435058594,0.879272460938
26917982116,-0.130981445312,0.396545410156,0.203491210938,0.885498046875
26918003600,-0.13330078125,0.384155273438,0.198303222656,0.891784667969
26918019121,-0.135070800781,0.371520996094,0.192993164062,0.898010253906
26918042263,-0.137268066406,0.358337402344,0.187622070312,0.904113769531
26918065452,-0.139892578125,0.345458984375,0.181518554688,0.909973144531
26918079119,-0.141967773438,0.332824707031,0.17529296875,0.915588378906
26918108428,-0.143615722656,0.320434570312,0.169921875,0.920715332031
26918123446,-0.145751953125,0.307861328125,0.164672851562,0.925598144531
26918139125,-0.147583007812,0.29541015625,0.159240722656,0.930297851562
26918162294,-0.148742675781,0.283020019531,0.153137207031,0.934997558594
26918184750,-0.149047851562,0.2705078125,0.146728515625,0.939697265625
26918199131,-0.150085449219,0.257690429688,0.140502929688,0.944030761719
26918222271,-0.150939941406,0.244873046875,0.134338378906,0.9482421875
26918244745,-0.151123046875,0.231994628906,0.128051757812,0.952270507812
26918259118,-0.151123046875,0.219177246094,0.121459960938,0.956176757812
26918282241,-0.151245117188,0.206298828125,0.114501953125,0.959899902344
26918304803,-0.150695800781,0.193481445312,0.107482910156,0.963439941406
26918325874,-0.150085449219,0.180725097656,0.100341796875,0.966796875
26918342324,-0.149536132812,0.167907714844,0.0930786132812,0.969909667969
26918364773,-0.148864746094,0.1552734375,0.0859375,0.972778320312
26918385925,-0.148010253906,0.14306640625,0.0791625976562,0.975341796875
26918402354,-0.147277832031,0.131164550781,0.07275390625,0.977600097656
26918424778,-0.147399902344,0.119506835938,0.0663452148438,0.979553222656
26918446007,-0.147521972656,0.107849121094,0.0599975585938,0.981323242188
26918452771,-0.146362304688,0.0966796875,0.0542602539062,0.982971191406
26918467675,-0.144836425781,0.0855712890625,0.0487060546875,0.984497070312
26918490298,-0.143127441406,0.0746459960938,0.0426635742188,0.985961914062
26918512935,-0.140808105469,0.0640258789062,0.0363159179688,0.987243652344
26918527750,-0.138244628906,0.0535278320312,0.0301513671875,0.988464355469
26918550276,-0.135864257812,0.0430297851562,0.0243530273438,0.989440917969
26918572804,-0.134643554688,0.0325317382812,0.0187377929688,0.990173339844
26918587903,-0.133972167969,0.0223388671875,0.01318359375,0.990600585938
26918617748,-0.132202148438,0.0125732421875,0.00775146484375,0.991088867188
26918628060,-0.129577636719,0.003173828125,0.0025634765625,0.991516113281
26918647719,-0.127014160156,-0.00616455078125,-0.00244140625,0.991882324219
26918670263,-0.124877929688,-0.0157470703125,-0.0076904296875,0.992004394531
26918688094,-0.122253417969,-0.0253295898438,-0.013427734375,0.992065429688
26918707705,-0.119323730469,-0.0343017578125,-0.0186157226562,0.992065429688
26918730269,-0.116271972656,-0.04296875,-0.0231323242188,0.992004394531
26918748055,-0.114440917969,-0.0516357421875,-0.0274658203125,0.99169921875
26918767809,-0.1142578125,-0.0599365234375,-0.0313110351562,0.991149902344
26918790367,-0.11474609375,-0.0673828125,-0.0346069335938,0.990478515625
26918806593,-0.114624023438,-0.073974609375,-0.037109375,0.989929199219
26918827794,-0.113220214844,-0.0799560546875,-0.0392456054688,0.989562988281
26918850380,-0.110290527344,-0.0856323242188,-0.0408935546875,0.989318847656
26918866593,-0.106628417969,-0.0907592773438,-0.0423583984375,0.989196777344
26918887652,-0.102722167969,-0.0953369140625,-0.0435180664062,0.989135742188
26918910249,-0.0993041992188,-0.0997924804688,-0.0446166992188,0.989013671875
26918928035,-0.0970458984375,-0.10400390625,-0.0457153320312,0.98876953125
26918947743,-0.0955200195312,-0.107727050781,-0.04638671875,0.988464355469
26918970342,-0.0947265625,-0.110900878906,-0.047119140625,0.988159179688
26918986668,-0.0944213867188,-0.11376953125,-0.0479125976562,0.987854003906
26919007782,-0.0943603515625,-0.117126464844,-0.0485229492188,0.987426757812
26919030249,-0.0936889648438,-0.118530273438,-0.0488891601562,0.9873046875
26919046641,-0.0923461914062,-0.119323730469,-0.0490112304688,0.9873046875
26919067750,-0.0912475585938,-0.119812011719,-0.0488891601562,0.987365722656
26919090219,-0.0906372070312,-0.1201171875,-0.0486450195312,0.987365722656
26919106599,-0.0902099609375,-0.12060546875,-0.04833984375,0.987365722656
26919127752,-0.0896606445312,-0.121704101562,-0.0479125976562,0.9873046875
26919150277,-0.0881958007812,-0.123596191406,-0.0472412109375,0.987243652344
26919175554,-0.085693359375,-0.1259765625,-0.0466918945312,0.987182617188
26919187775,-0.0830688476562,-0.128479003906,-0.0462646484375,0.987121582031
26919210332,-0.0809326171875,-0.130981445312,-0.0463256835938,0.986999511719
26919228108,-0.0791015625,-0.133544921875,-0.0465698242188,0.986755371094
26919247868,-0.076904296875,-0.1357421875,-0.0469360351562,0.986633300781
26919270399,-0.073486328125,-0.137084960938,-0.0468139648438,0.986694335938
26919288095,-0.0708618164062,-0.138305664062,-0.0465698242188,0.986755371094
26919307687,-0.0692138671875,-0.139953613281,-0.04638671875,0.986633300781
26919330285,-0.0681762695312,-0.142150878906,-0.0466918945312,0.986389160156
26919348098,-0.0676879882812,-0.143676757812,-0.04638671875,0.986206054688
26919367718,-0.06689453125,-0.144714355469,-0.0458984375,0.986145019531
26919390263,-0.0659790039062,-0.145446777344,-0.0455932617188,0.986083984375
26919408047,-0.065673828125,-0.145812988281,-0.04541015625,0.986083984375
26919427726,-0.065673828125,-0.146057128906,-0.0455932617188,0.986022949219
26919450340,-0.0656127929688,-0.146423339844,-0.0457153320312,0.985961914062
26919468062,-0.0652465820312,-0.147033691406,-0.045654296875,0.985900878906
26919487755,-0.0643920898438,-0.148132324219,-0.0455932617188,0.985778808594
26919510361,-0.0640258789062,-0.149047851562,-0.0460205078125,0.985656738281
26919528099,-0.0645141601562,-0.149719238281,-0.0467529296875,0.985473632812
26919547731,-0.0654907226562,-0.149780273438,-0.0472412109375,0.985412597656
26919570194,-0.0659790039062,-0.149353027344,-0.04736328125,0.985412597656
26919588015,-0.0654296875,-0.148986816406,-0.0472412109375,0.985534667969
26919607751,-0.0645751953125,-0.149108886719,-0.04736328125,0.985534667969
26919625561,-0.0648803710938,-0.1494140625,-0.0479125976562,0.985473632812
26919654071,-0.0660400390625,-0.149780273438,-0.0484619140625,0.985290527344
26919667684,-0.0675048828125,-0.150085449219,-0.048583984375,0.985168457031
26919685548,-0.0684814453125,-0.150817871094,-0.048828125,0.984985351562
26919708089,-0.0692138671875,-0.1513671875,-0.0489501953125,0.984802246094
26919730584,-0.0701293945312,-0.151672363281,-0.0491333007812,0.984680175781
26919745572,-0.0709838867188,-0.151916503906,-0.0493774414062,0.984558105469
26919768041,-0.0714721679688,-0.152221679688,-0.0494995117188,0.984497070312
26919789075,-0.0720825195312,-0.152465820312,-0.0497436523438,0.984375
26919805531,-0.0723876953125,-0.152893066406,-0.050048828125,0.984313964844
26919828085,-0.0725708007812,-0.153259277344,-0.0503540039062,0.984191894531
26919849092,-0.0726928710938,-0.153442382812,-0.0509033203125,0.984130859375
26919865524,-0.072509765625,-0.153991699219,-0.0513916015625,0.984069824219
26919888010,-0.072265625,-0.154541015625,-0.0517578125,0.983947753906
26919909103,-0.0718994140625,-0.154907226562,-0.0520629882812,0.98388671875
26919925599,-0.0718383789062,-0.155334472656,-0.0524291992188,0.983825683594
26919948022,-0.0721435546875,-0.155639648438,-0.0527954101562,0.983764648438
26919969072,-0.0726318359375,-0.155822753906,-0.05322265625,0.983642578125
26919985534,-0.0730590820312,-0.155883789062,-0.053466796875,0.983581542969
26920008052,-0.0733032226562,-0.156005859375,-0.0538330078125,0.983520507812
26920028387,-0.0734252929688,-0.156372070312,-0.0543823242188,0.983459472656
26920044047,-0.0736694335938,-0.156616210938,-0.0549926757812,0.983337402344
26920067208,-0.07373046875,-0.156921386719,-0.0555419921875,0.983276367188
26920089756,-0.0733642578125,-0.157104492188,-0.055908203125,0.983215332031
26920104739,-0.0726318359375,-0.157165527344,-0.0563354492188,0.983276367188
26920127254,-0.072021484375,-0.156860351562,-0.0565795898438,0.983337402344
26920149747,-0.0712890625,-0.155822753906,-0.0567016601562,0.983520507812
26920164745,-0.068603515625,-0.154602050781,-0.0574340820312,0.98388671875
26920187253,-0.0643920898438,-0.153564453125,-0.0575561523438,0.984313964844
26920209746,-0.0584716796875,-0.15283203125,-0.0579833984375,0.984802246094
26920230857,-0.0537109375,-0.153625488281,-0.0586547851562,0.984924316406
26920247215,-0.0509033203125,-0.155212402344,-0.0589599609375,0.984802246094
26920269737,-0.0497436523438,-0.155090332031,-0.0585327148438,0.98486328125
26920290876,-0.0491943359375,-0.154418945312,-0.0582275390625,0.985046386719
26920307213,-0.0486450195312,-0.153991699219,-0.0582885742188,0.985107421875
26920329738,-0.0480346679688,-0.153686523438,-0.0584716796875,0.985168457031
26920344113,-0.0481567382812,-0.153137207031,-0.0587768554688,0.985229492188
26920367215,-0.0493774414062,-0.15234375,-0.0591430664062,0.985290527344
26920389672,-0.0504150390625,-0.151672363281,-0.0593872070312,0.9853515625
26920404069,-0.0516357421875,-0.151000976562,-0.06005859375,0.9853515625
26920427278,-0.0532836914062,-0.149963378906,-0.0607299804688,0.9853515625
26920449719,-0.0552978515625,-0.148620605469,-0.0609741210938,0.985412597656
26920470868,-0.0573120117188,-0.147583007812,-0.0609741210938,0.985473632812
26920487267,-0.0604858398438,-0.146606445312,-0.0614013671875,0.985412597656
26920509744,-0.0654296875,-0.144958496094,-0.06201171875,0.985290527344
26920530880,-0.0712280273438,-0.142211914062,-0.062255859375,0.985290527344
26920547222,-0.0758666992188,-0.1396484375,-0.06298828125,0.985229492188
26920569729,-0.0798950195312,-0.135559082031,-0.0636596679688,0.985473632812
26920590971,-0.0841674804688,-0.130493164062,-0.0640869140625,0.985778808594
26920607224,-0.0890502929688,-0.125427246094,-0.0642700195312,0.985961914062
26920629791,-0.0946655273438,-0.120788574219,-0.0643310546875,0.986022949219
26920650890,-0.0994873046875,-0.116821289062,-0.0641479492188,0.986022949219
26920666575,-0.101440429688,-0.112365722656,-0.062744140625,0.986450195312
26920689698,-0.101379394531,-0.107604980469,-0.0611572265625,0.987121582031
26920710858,-0.0999145507812,-0.102355957031,-0.0599975585938,0.987854003906
26920727222,-0.0992431640625,-0.0965576171875,-0.05810546875,0.988647460938
26920749760,-0.100891113281,-0.0908203125,-0.056396484375,0.989135742188
26920770852,-0.102722167969,-0.0858764648438,-0.0546264648438,0.989440917969
26920787259,-0.1044921875,-0.0812377929688,-0.0523681640625,0.989807128906
26920809753,-0.106689453125,-0.0756225585938,-0.0502319335938,0.990112304688
26920838384,-0.107421875,-0.0694580078125,-0.0482177734375,0.990600585938
26920846569,-0.10546875,-0.0626220703125,-0.046142578125,0.991333007812
26920869733,-0.10302734375,-0.0543212890625,-0.0438232421875,0.9921875
26920890899,-0.102233886719,-0.0453491210938,-0.0411376953125,0.992858886719
26920914755,-0.103088378906,-0.0357055664062,-0.0380249023438,0.993286132812
26920929740,-0.104858398438,-0.025390625,-0.034912109375,0.993530273438
26920950879,-0.106750488281,-0.013916015625,-0.0314331054688,0.99365234375
26920973363,-0.107788085938,-0.0020751953125,-0.027099609375,0.993774414062
26920989681,-0.106506347656,0.0103149414062,-0.0228271484375,0.993957519531
26921010779,-0.103576660156,0.0235595703125,-0.0194091796875,0.994140625
26921026547,-0.100219726562,0.0377197265625,-0.01611328125,0.994079589844
26921057195,-0.09765625,0.0518798828125,-0.011962890625,0.993774414062
26921072158,-0.0956420898438,0.0657958984375,-0.00762939453125,0.9931640625
26921086545,-0.0938110351562,0.0802001953125,-0.00347900390625,0.992309570312
26921111153,-0.0927734375,0.0950927734375,0.00079345703125,0.991088867188
26921132220,-0.0922241210938,0.110046386719,0.00531005859375,0.989624023438
26921146544,-0.0914916992188,0.124694824219,0.0101318359375,0.987915039062
26921169745,-0.0896606445312,0.139465332031,0.0147094726562,0.986022949219
26921192284,-0.086181640625,0.154602050781,0.01904296875,0.984008789062
26921213379,-0.083740234375,0.169616699219,0.0238647460938,0.981628417969
26921229692,-0.0823364257812,0.183898925781,0.0297241210938,0.97900390625
26921252254,-0.080322265625,0.197814941406,0.035400390625,0.976257324219
26921273359,-0.0774536132812,0.212097167969,0.0409545898438,0.973266601562
26921289776,-0.0736083984375,0.226440429688,0.0468139648438,0.970092773438
26921311987,-0.0701293945312,0.240417480469,0.0532836914062,0.966613769531
26921333354,-0.066650390625,0.253479003906,0.0604248046875,0.963134765625
26921349663,-0.0631103515625,0.266662597656,0.0673828125,0.959350585938
26921372684,-0.0579833984375,0.280395507812,0.0740356445312,0.955261230469
26921393311,-0.0526123046875,0.293884277344,0.0808715820312,0.950927734375
26921409729,-0.0478515625,0.306884765625,0.0874633789062,0.946472167969
26921432220,-0.0428466796875,0.31982421875,0.0940551757812,0.941772460938
26921453244,-0.037841796875,0.332458496094,0.100341796875,0.936950683594
26921469696,-0.0325317382812,0.3447265625,0.105834960938,0.93212890625
26921492143,-0.0275268554688,0.356262207031,0.111022949219,0.927307128906
26921514703,-0.0232543945312,0.367309570312,0.116516113281,0.922424316406
26921529698,-0.01953125,0.377502441406,0.121948242188,0.917663574219
26921567981,-0.015869140625,0.387268066406,0.127258300781,0.912963867188
26921572957,-0.0123901367188,0.39599609375,0.132385253906,0.908508300781
26921589814,-0.0084228515625,0.403686523438,0.137268066406,0.904479980469
26921612198,-0.0037841796875,0.410095214844,0.1416015625,0.900939941406
26921633160,0.00048828125,0.416442871094,0.145690917969,0.897338867188
26921649697,0.00213623046875,0.422729492188,0.149841308594,0.893737792969
26921672225,0.00494384765625,0.428039550781,0.153625488281,0.890502929688
26921693414,0.008056640625,0.4326171875,0.157836914062,0.887573242188
26921709692,0.00946044921875,0.436218261719,0.162963867188,0.884826660156
26921732243,0.0106811523438,0.440307617188,0.167907714844,0.881896972656
26921753271,0.011962890625,0.4443359375,0.17236328125,0.878967285156
26921769055,0.014404296875,0.448059082031,0.176513671875,0.876220703125
26921792189,0.0164794921875,0.451599121094,0.180603027344,0.87353515625
26921813315,0.0180053710938,0.455261230469,0.184692382812,0.870788574219
26921829017,0.0193481445312,0.458679199219,0.188720703125,0.868103027344
26921852252,0.0214233398438,0.461181640625,0.192138671875,0.865905761719
26921874709,0.0234375,0.463745117188,0.195373535156,0.863830566406
26921889007,0.0247192382812,0.46630859375,0.1982421875,0.861694335938
26921912186,0.0263671875,0.468994140625,0.200988769531,0.859558105469
26921933302,0.0278930664062,0.4716796875,0.203308105469,0.857543945312
26921949059,0.0287475585938,0.474365234375,0.205078125,0.855529785156
26921972282,0.0294189453125,0.477600097656,0.206359863281,0.853393554688
26921994621,0.030029296875,0.481140136719,0.207458496094,0.851196289062
26922008978,0.0309448242188,0.485229492188,0.207885742188,0.848693847656
26922032224,0.0313720703125,0.489929199219,0.208129882812,0.845886230469
26922054690,0.03173828125,0.494995117188,0.208068847656,0.842956542969
26922069011,0.0321655273438,0.499938964844,0.207885742188,0.840026855469
26922092135,0.0321044921875,0.504577636719,0.207824707031,0.837280273438
26922114700,0.0315551757812,0.509155273438,0.207763671875,0.834594726562
26922135750,0.031494140625,0.513366699219,0.207580566406,0.83203125
26922152192,0.0314331054688,0.516723632812,0.20751953125,0.829956054688
26922174707,0.0313110351562,0.519653320312,0.207397460938,0.828186035156
26922195913,0.0311889648438,0.522094726562,0.207336425781,0.82666015625
26922212196,0.03076171875,0.523620605469,0.207458496094,0.82568359375
26922234679,0.0301513671875,0.524597167969,0.207458496094,0.825073242188
26922249032,0.0294799804688,0.525329589844,0.207092285156,0.82470703125
26922272222,0.0294189453125,0.526062011719,0.20654296875,0.824401855469
26922294657,0.0288696289062,0.526550292969,0.206115722656,0.82421875
26922309021,0.0280151367188,0.526672363281,0.205871582031,0.82421875
26922332219,0.0270385742188,0.527038574219,0.205322265625,0.824157714844
26922354655,0.0262451171875,0.528137207031,0.204711914062,0.823669433594
26922369026,0.025634765625,0.52880859375,0.204833984375,0.823181152344
26922392233,0.0250854492188,0.529052734375,0.204833984375,0.823059082031
26922414722,0.0245361328125,0.529541015625,0.204895019531,0.82275390625
26922429517,0.0234985351562,0.529968261719,0.204956054688,0.822448730469
26922452193,0.0231323242188,0.529907226562,0.205261230469,0.822448730469
26922474724,0.0228271484375,0.529418945312,0.205261230469,0.822814941406
26922503397,0.0228271484375,0.529235839844,0.204772949219,0.822998046875
26922512205,0.0218505859375,0.529663085938,0.204528808594,0.822814941406
26922534736,0.0204467773438,0.529052734375,0.204956054688,0.823120117188
26922555853,0.0198364257812,0.528259277344,0.204406738281,0.823791503906
26922572197,0.0199584960938,0.528076171875,0.203796386719,0.824096679688
26922594666,0.018798828125,0.528137207031,0.203674316406,0.824096679688
26922615697,0.0180053710938,0.527465820312,0.204040527344,0.824462890625
26922632180,0.0178833007812,0.526733398438,0.203674316406,0.825012207031
26922654699,0.0181274414062,0.526611328125,0.203430175781,0.825134277344
26922675842,0.0172729492188,0.526977539062,0.203369140625,0.824951171875
26922692125,0.0166625976562,0.526672363281,0.203552246094,0.825073242188
26922714699,0.0164184570312,0.5263671875,0.203186035156,0.825439453125
26922735860,0.0159912109375,0.526428222656,0.202758789062,0.825500488281
26922752168,0.0151977539062,0.526489257812,0.202392578125,0.825500488281
26922774818,0.0150146484375,0.52587890625,0.202087402344,0.826049804688
26922795788,0.015380859375,0.525451660156,0.201293945312,0.826477050781
26922812203,0.0147705078125,0.52490234375,0.200927734375,0.826904296875
26922834670,0.013427734375,0.524475097656,0.200500488281,0.827270507812
26922857161,0.0126953125,0.523864746094,0.200012207031,0.827819824219
26922872217,0.01220703125,0.523315429688,0.199462890625,0.828308105469
26922894722,0.0116577148438,0.52294921875,0.19921875,0.82861328125
26922915847,0.0107421875,0.522399902344,0.19921875,0.828979492188
26922932222,0.01025390625,0.521362304688,0.199340820312,0.82958984375
26922954675,0.00970458984375,0.520446777344,0.199279785156,0.830200195312
26922977200,0.0091552734375,0.52001953125,0.199462890625,0.830444335938
26922992196,0.00836181640625,0.519287109375,0.199645996094,0.830871582031
26923014664,0.00762939453125,0.518127441406,0.199645996094,0.831604003906
26923037193,0.0068359375,0.516845703125,0.199401855469,0.832458496094
26923058389,0.0062255859375,0.515930175781,0.198852539062,0.833129882812
26923074692,0.0052490234375,0.51513671875,0.198364257812,0.833740234375
26923097426,0.00439453125,0.513671875,0.1982421875,0.834716796875
26923111589,0.00372314453125,0.511779785156,0.197692871094,0.835998535156
26923134693,0.00335693359375,0.510498046875,0.196716308594,0.837036132812
26923157181,0.0030517578125,0.509948730469,0.195983886719,0.837524414062
26923179695,0.00225830078125,0.508422851562,0.195739746094,0.838500976562
26923194730,0.0025634765625,0.506774902344,0.194763183594,0.839721679688
26923217185,0.00421142578125,0.505676269531,0.192687988281,0.840881347656
26923231538,0.005615234375,0.505004882812,0.190185546875,0.841796875
26923262226,0.00567626953125,0.504760742188,0.187438964844,0.842590332031
26923277172,0.0050048828125,0.504028320312,0.184875488281,0.843627929688
26923298329,0.00390625,0.502258300781,0.182434082031,0.84521484375
26923314741,0.00323486328125,0.5,0.180053710938,0.847045898438
26923337659,0.00286865234375,0.497436523438,0.177429199219,0.84912109375
26923358329,0.00225830078125,0.49462890625,0.174865722656,0.851257324219
26923365179,0.00079345703125,0.491638183594,0.172424316406,0.853515625
26923380199,-0.0009765625,0.488220214844,0.169555664062,0.856079101562
26923402675,-0.0025634765625,0.484497070312,0.166931152344,0.858642578125
26923425145,-0.00494384765625,0.480285644531,0.164367675781,0.861511230469
26923447622,-0.00640869140625,0.476135253906,0.161804199219,0.864318847656
26923465436,-0.00762939453125,0.4716796875,0.159057617188,0.867248535156
26923485082,-0.00762939453125,0.467590332031,0.155029296875,0.870178222656
26923500147,-0.00848388671875,0.463745117188,0.151000976562,0.872924804688
26923525492,-0.0115966796875,0.45947265625,0.147766113281,0.875671386719
26923553974,-0.01513671875,0.454772949219,0.144775390625,0.878601074219
26923560169,-0.01806640625,0.449523925781,0.141845703125,0.881713867188
26923582684,-0.0204467773438,0.444458007812,0.138854980469,0.884704589844
26923614138,-0.0233154296875,0.439270019531,0.135559082031,0.8876953125
26923620182,-0.0265502929688,0.433654785156,0.132385253906,0.890869140625
26923642803,-0.0305786132812,0.427368164062,0.129455566406,0.894226074219
26923673988,-0.0343017578125,0.420532226562,0.127258300781,0.897583007812
26923680167,-0.03759765625,0.413879394531,0.12451171875,0.900939941406
26923702619,-0.04052734375,0.407348632812,0.121948242188,0.904174804688
26923725087,-0.0445556640625,0.400451660156,0.120666503906,0.9072265625
26923740149,-0.0489501953125,0.393127441406,0.119506835938,0.910339355469
26923762571,-0.0527954101562,0.385681152344,0.118103027344,0.913452148438
26923785160,-0.056884765625,0.378845214844,0.116577148438,0.916259765625
26923800146,-0.0614624023438,0.371459960938,0.114562988281,0.919250488281
26923822566,-0.0657348632812,0.363830566406,0.112426757812,0.922302246094
26923840474,-0.0684204101562,0.355346679688,0.110046386719,0.925659179688
26923860148,-0.0702514648438,0.346130371094,0.10693359375,0.929382324219
26923882718,-0.0713500976562,0.336975097656,0.103210449219,0.93310546875
26923900466,-0.071533203125,0.327392578125,0.0995483398438,0.936889648438
26923920152,-0.0721435546875,0.317321777344,0.0960083007812,0.940673828125
26923942589,-0.073974609375,0.306884765625,0.092529296875,0.944274902344
26923960487,-0.0767211914062,0.297119140625,0.0894165039062,0.947509765625
26923980149,-0.0794067382812,0.287963867188,0.0862426757812,0.950378417969
26924002690,-0.0816040039062,0.278991699219,0.0828857421875,0.953186035156
26924020465,-0.083251953125,0.269714355469,0.0789184570312,0.9560546875
26924040182,-0.0846557617188,0.260131835938,0.07421875,0.958923339844
26924062649,-0.0847778320312,0.250366210938,0.0687866210938,0.9619140625
26924080449,-0.0836791992188,0.240234375,0.063720703125,0.964965820312
26924100283,-0.083251953125,0.229309082031,0.0590209960938,0.967956542969
26924122582,-0.0845336914062,0.217468261719,0.0542602539062,0.970825195312
26924140508,-0.0868530273438,0.205200195312,0.0494384765625,0.973571777344
26924167724,-0.0885620117188,0.192565917969,0.0449829101562,0.976196289062
26924182663,-0.0897827148438,0.179870605469,0.0410766601562,0.978698730469
26924200443,-0.0902709960938,0.166870117188,0.0365600585938,0.981140136719
26924220085,-0.0899047851562,0.154113769531,0.0313110351562,0.9833984375
26924242600,-0.0888061523438,0.14208984375,0.02587890625,0.985473632812
26924260501,-0.0875244140625,0.130310058594,0.0209350585938,0.987365722656
26924280120,-0.0877075195312,0.118591308594,0.0162353515625,0.988891601562
26924302634,-0.0884399414062,0.106872558594,0.011962890625,0.990234375
26924320428,-0.0894775390625,0.0956420898438,0.0079345703125,0.991333007812
26924340175,-0.0908813476562,0.0849609375,0.00390625,0.9921875
26924370141,-0.092529296875,0.074462890625,-6.103515625e-05,0.992919921875
26924380487,-0.0939331054688,0.0641479492188,-0.00396728515625,0.993469238281
26924400259,-0.0944213867188,0.0543212890625,-0.0076904296875,0.994018554688
26924422511,-0.0939331054688,0.0447387695312,-0.01171875,0.994506835938
26924440410,-0.0938720703125,0.03515625,-0.0161743164062,0.994812011719
26924460063,-0.0942993164062,0.0257568359375,-0.0202026367188,0.994995117188
26924482714,-0.0942993164062,0.0167846679688,-0.0233764648438,0.9951171875
26924500490,-0.0938110351562,0.0087890625,-0.0263061523438,0.995178222656
26924522980,-0.0936279296875,0.00152587890625,-0.0294799804688,0.9951171875
26924542645,-0.093994140625,-0.0052490234375,-0.0322875976562,0.994995117188
26924560494,-0.0947875976562,-0.0116577148438,-0.0343627929688,0.994812011719
26924581523,-0.0950927734375,-0.017578125,-0.0362548828125,0.99462890625
26924602614,-0.0952758789062,-0.0230102539062,-0.0379028320312,0.994445800781
26924620467,-0.09521484375,-0.028076171875,-0.0393676757812,0.994262695312
26924641504,-0.0945434570312,-0.032958984375,-0.0404052734375,0.994140625
26924662665,-0.0938720703125,-0.0379638671875,-0.0413818359375,0.993957519531
26924680455,-0.0932006835938,-0.0433959960938,-0.0421752929688,0.993774414062
26924701520,-0.0923461914062,-0.0489501953125,-0.04296875,0.993591308594
26924725465,-0.0908813476562,-0.05419921875,-0.0436401367188,0.993408203125
26924740446,-0.0889282226562,-0.0595092773438,-0.0441284179688,0.993225097656
26924761475,-0.086669921875,-0.06494140625,-0.04443359375,0.993103027344
26924782738,-0.0839233398438,-0.0702514648438,-0.0446166992188,0.992980957031
26924800466,-0.081298828125,-0.0752563476562,-0.044677734375,0.992797851562
26924821522,-0.0789794921875,-0.0801391601562,-0.0447998046875,0.992614746094
26924842712,-0.0770263671875,-0.0848999023438,-0.045166015625,0.992370605469
26924860435,-0.0753784179688,-0.0891723632812,-0.0455932617188,0.992065429688
26924883011,-0.0741577148438,-0.0930786132812,-0.046142578125,0.991821289062
26924902650,-0.073486328125,-0.0965576171875,-0.0469360351562,0.991455078125
26924920461,-0.0731811523438,-0.099609375,-0.0474853515625,0.991149902344
26924942931,-0.0733642578125,-0.1025390625,-0.048095703125,0.990844726562
26924963367,-0.0739135742188,-0.105529785156,-0.0491943359375,0.990417480469
26924979656,-0.0746459960938,-0.108093261719,-0.05029296875,0.990051269531
26925002147,-0.0753784179688,-0.110473632812,-0.0512084960938,0.989685058594
26925023288,-0.0759887695312,-0.113037109375,-0.0523681640625,0.9892578125
26925039639,-0.07666015625,-0.115661621094,-0.0535888671875,0.988830566406
26925062161,-0.077880859375,-0.117858886719,-0.0546264648438,0.988464355469
26925076526,-0.078857421875,-0.119506835938,-0.0553588867188,0.988098144531
26925099645,-0.0791625976562,-0.120910644531,-0.0560913085938,0.987915039062
26925122152,-0.0795288085938,-0.121398925781,-0.0567626953125,0.98779296875
26925136515,-0.0794677734375,-0.121276855469,-0.05712890625,0.987731933594
26925159628,-0.0787963867188,-0.12109375,-0.0569458007812,0.987854003906
26925182243,-0.0782470703125,-0.121520996094,-0.0567626953125,0.987854003906
26925203354,-0.0778198242188,-0.122436523438,-0.0569458007812,0.987731933594
26925219713,-0.0775146484375,-0.123657226562,-0.0574340820312,0.987609863281
26925242205,-0.0770874023438,-0.124145507812,-0.0579833984375,0.987548828125
26925256488,-0.0769653320312,-0.124389648438,-0.0581665039062,0.987487792969
26925279690,-0.0762939453125,-0.124755859375,-0.0582885742188,0.987487792969
26925302187,-0.0743408203125,-0.12548828125,-0.05859375,0.987548828125
26925316477,-0.0726318359375,-0.125854492188,-0.0591430664062,0.987609863281
26925339642,-0.0723266601562,-0.126098632812,-0.0601806640625,0.987548828125
26925362180,-0.072998046875,-0.1259765625,-0.0612182617188,0.987426757812
26925383427,-0.07373046875,-0.12548828125,-0.0619506835938,0.987365722656
26925399636,-0.0739135742188,-0.124694824219,-0.0623168945312,0.987426757812
26925422154,-0.073486328125,-0.124328613281,-0.0626220703125,0.987487792969
26925443314,-0.0729370117188,-0.124206542969,-0.0631713867188,0.987548828125
26925459672,-0.0728149414062,-0.124206542969,-0.0637817382812,0.987487792969
26925482669,-0.0731201171875,-0.124084472656,-0.0641479492188,0.987487792969
26925503490,-0.0736694335938,-0.123962402344,-0.0643310546875,0.987426757812
26925519674,-0.0738525390625,-0.124145507812,-0.064453125,0.987365722656
26925542123,-0.073974609375,-0.124389648438,-0.0646362304688,0.9873046875
26925563452,-0.0744018554688,-0.12451171875,-0.0648803710938,0.9873046875
26925579683,-0.0750732421875,-0.124389648438,-0.065185546875,0.987243652344
26925603612,-0.07568359375,-0.124450683594,-0.0654296875,0.987121582031
26925623323,-0.076416015625,-0.124267578125,-0.065673828125,0.987121582031
26925639614,-0.0770263671875,-0.124084472656,-0.0657348632812,0.987060546875
26925662135,-0.0774536132812,-0.1240234375,-0.0658569335938,0.987060546875
26925683317,-0.0780029296875,-0.124206542969,-0.066162109375,0.986938476562
26925699621,-0.0790405273438,-0.124328613281,-0.0662231445312,0.98681640625
26925722175,-0.0796508789062,-0.124572753906,-0.0661010742188,0.986755371094
26925743292,-0.0797119140625,-0.124816894531,-0.0660400390625,0.986755371094
26925759647,-0.0801391601562,-0.125244140625,-0.0659790039062,0.986633300781
26925782163,-0.0809936523438,-0.125793457031,-0.0659790039062,0.986511230469
26925804644,-0.08154296875,-0.126281738281,-0.0659790039062,0.986389160156
26925819702,-0.0819091796875,-0.126708984375,-0.0659790039062,0.986328125
26925842129,-0.0820922851562,-0.127075195312,-0.0660400390625,0.986267089844
26925864637,-0.08251953125,-0.127502441406,-0.066162109375,0.986145019531
26925879658,-0.0825805664062,-0.127868652344,-0.0662841796875,0.986083984375
26925902145,-0.0824584960938,-0.128112792969,-0.0665283203125,0.986083984375
26925924641,-0.0823974609375,-0.128112792969,-0.0668334960938,0.986022949219
26925938958,-0.0824584960938,-0.128051757812,-0.067138671875,0.986022949219
26925962164,-0.0823974609375,-0.128051757812,-0.0674438476562,0.986022949219
26925984665,-0.0822143554688,-0.127990722656,-0.067626953125,0.986022949219
26925999041,-0.0817260742188,-0.1279296875,-0.067626953125,0.986083984375
26926022158,-0.0816650390625,-0.127990722656,-0.067626953125,0.986083984375
26926044652,-0.0819091796875,-0.127868652344,-0.0677490234375,0.986083984375
26926059001,-0.082275390625,-0.127685546875,-0.0678100585938,0.986022949219
26926082146,-0.0823364257812,-0.127685546875,-0.0678100585938,0.986022949219
26926112144,-0.08203125,-0.127563476562,-0.0678100585938,0.986083984375
26926118979,-0.08203125,-0.127563476562,-0.0678100585938,0.986083984375
26926142211,-0.08203125,-0.127624511719,-0.0678100585938,0.986083984375
26926164601,-0.0818481445312,-0.12744140625,-0.06787109375,0.986083984375
26926178981,-0.0816040039062,-0.127380371094,-0.06787109375,0.986145019531
26926202147,-0.0816040039062,-0.127380371094,-0.06787109375,0.986145019531
26926224605,-0.0816040039062,-0.127380371094,-0.06787109375,0.986145019531
26926238965,-0.0816650390625,-0.127380371094,-0.06787109375,0.986145019531
26926262144,-0.0816650390625,-0.127380371094,-0.06787109375,0.986145019531
26926284647,-0.0812377929688,-0.127258300781,-0.06787109375,0.986206054688
26926305777,-0.0809326171875,-0.127258300781,-0.0679931640625,0.986206054688
26926322139,-0.0809326171875,-0.127258300781,-0.0679931640625,0.986206054688
26926344646,-0.0810546875,-0.127136230469,-0.0680541992188,0.986206054688
26926365821,-0.0811767578125,-0.126892089844,-0.068115234375,0.986206054688
26926381923,-0.0811767578125,-0.126892089844,-0.068115234375,0.986206054688
26926404627,-0.0813598632812,-0.126770019531,-0.0681762695312,0.986206054688
26926425861,-0.0812377929688,-0.126586914062,-0.0682373046875,0.986267089844
26926442101,-0.0809936523438,-0.12646484375,-0.0682373046875,0.986267089844
26926464649,-0.0807495117188,-0.126342773438,-0.0681762695312,0.986328125
26926485679,-0.08056640625,-0.126098632812,-0.0680541992188,0.986389160156
26926502119,-0.0802612304688,-0.125915527344,-0.0678100585938,0.986450195312
26926524652,-0.0797729492188,-0.125915527344,-0.0677490234375,0.986511230469
26926545848,-0.0791015625,-0.125854492188,-0.0679321289062,0.986511230469
26926562127,-0.078125,-0.125732421875,-0.068115234375,0.986633300781
26926584612,-0.076416015625,-0.125793457031,-0.0680541992188,0.986755371094
26926605797,-0.0750122070312,-0.125854492188,-0.0677490234375,0.986877441406
26926622146,-0.0740356445312,-0.125854492188,-0.0673828125,0.986938476562
26926644726,-0.0736083984375,-0.125915527344,-0.067138671875,0.986999511719
