27828105040,-0.101623535156,0.272277832031,-0.849670410156,0.440002441406
27828128692,-0.101623535156,0.272216796875,-0.849731445312,0.43994140625
27828143924,-0.105163574219,0.270385742188,-0.850036621094,0.439575195312
27828164963,-0.104187011719,0.27099609375,-0.849792480469,0.440063476562
27828188849,-0.103881835938,0.271057128906,-0.849731445312,0.440124511719
27828203801,-0.0983276367188,0.276123046875,-0.848022460938,0.441589355469
27828225284,-0.09619140625,0.279052734375,-0.847045898438,0.442077636719
27828248765,-0.101257324219,0.274353027344,-0.848693847656,0.440734863281
27828294548,-0.101928710938,0.273376464844,-0.848999023438,0.440612792969
27828296581,-0.100708007812,0.274536132812,-0.848571777344,0.44091796875
27828308755,-0.100036621094,0.275451660156,-0.848266601562,0.441101074219
27828326530,-0.104919433594,0.271057128906,-0.849792480469,0.439819335938
27828346445,-0.103576660156,0.272766113281,-0.849304199219,0.43994140625
27828376966,-0.10400390625,0.27294921875,-0.849304199219,0.439758300781
27828419951,-0.103942871094,0.273193359375,-0.849243164062,0.439758300781
27828430246,-0.103942871094,0.273193359375,-0.849243164062,0.439758300781
27828430798,-0.103942871094,0.273193359375,-0.849243164062,0.439758300781
27828450597,-0.101623535156,0.273681640625,-0.849182128906,0.440063476562
27828464931,-0.0979614257812,0.278076171875,-0.84765625,0.441162109375
27828487386,-0.09716796875,0.278137207031,-0.847595214844,0.441345214844
27828505280,-0.0960083007812,0.279296875,-0.84716796875,0.441650390625
27828527726,-0.0950927734375,0.280395507812,-0.846801757812,0.44189453125
27828547451,-0.0990600585938,0.27734375,-0.847900390625,0.440856933594
27828565274,-0.103454589844,0.272094726562,-0.849670410156,0.439697265625
27828584992,-0.102600097656,0.272766113281,-0.849426269531,0.43994140625
27828607421,-0.101501464844,0.274108886719,-0.848999023438,0.440246582031
27828625195,-0.102294921875,0.273498535156,-0.849182128906,0.440002441406
27828646222,-0.105346679688,0.2705078125,-0.850158691406,0.439270019531
27828667482,-0.104736328125,0.2705078125,-0.850280761719,0.439208984375
27828685246,-0.104187011719,0.270202636719,-0.850341796875,0.439453125
27828706293,-0.104614257812,0.27001953125,-0.850219726562,0.439636230469
27828727446,-0.104614257812,0.27001953125,-0.850158691406,0.439819335938
27828745242,-0.103820800781,0.269958496094,-0.85009765625,0.440063476562
27828766265,-0.102966308594,0.270202636719,-0.849975585938,0.440368652344
27828787411,-0.101989746094,0.270751953125,-0.849731445312,0.440734863281
27828805245,-0.100830078125,0.271423339844,-0.849365234375,0.441345214844
27828826281,-0.0990600585938,0.271667480469,-0.848876953125,0.442504882812
27828847468,-0.09765625,0.272705078125,-0.847839355469,0.444213867188
27828865237,-0.0953979492188,0.272277832031,-0.846984863281,0.446472167969
27828886270,-0.091796875,0.270324707031,-0.846557617188,0.44921875
27828907412,-0.0875854492188,0.268249511719,-0.846252441406,0.451965332031
27828925221,-0.083251953125,0.266662597656,-0.845703125,0.454772949219
27828946247,-0.0785522460938,0.265686035156,-0.844848632812,0.457702636719
27828967493,-0.0736694335938,0.265380859375,-0.84375,0.460693359375
27828985241,-0.068359375,0.265563964844,-0.842529296875,0.463684082031
27829006270,-0.062744140625,0.266967773438,-0.8408203125,0.466735839844
27829027374,-0.0552978515625,0.267211914062,-0.83984375,0.469299316406
27829045206,-0.0469970703125,0.268127441406,-0.838623046875,0.471862792969
27829066247,-0.037841796875,0.2705078125,-0.836547851562,0.474914550781
27829087569,-0.0278930664062,0.2734375,-0.834106445312,0.478271484375
27829105232,-0.0165405273438,0.276489257812,-0.831359863281,0.481811523438
27829127711,-0.0037841796875,0.280639648438,-0.828002929688,0.485473632812
27829147273,0.0108642578125,0.283325195312,-0.824462890625,0.489807128906
27829165164,0.0263061523438,0.287048339844,-0.820007324219,0.494445800781
27829187675,0.043212890625,0.290588378906,-0.814880371094,0.499694824219
27829207373,0.0610961914062,0.293090820312,-0.809631347656,0.504821777344
27829225253,0.0797119140625,0.294128417969,-0.804260253906,0.510192871094
27829247728,0.0986938476562,0.293762207031,-0.798828125,0.515625
27829267392,0.118896484375,0.289855957031,-0.793823242188,0.521240234375
27829285174,0.14013671875,0.28271484375,-0.789245605469,0.526794433594
27829307701,0.161743164062,0.2724609375,-0.784912109375,0.532470703125
27829327427,0.178649902344,0.260192871094,-0.7822265625,0.537109375
27829357402,0.195678710938,0.248474121094,-0.779602050781,0.54052734375
27829367715,0.21142578125,0.236450195312,-0.777587890625,0.542846679688
27829387397,0.224426269531,0.225891113281,-0.774719238281,0.546264648438
27829410543,0.236694335938,0.214599609375,-0.771118164062,0.550659179688
27829433045,0.249206542969,0.201049804688,-0.768005371094,0.5546875
27829449422,0.261047363281,0.188171386719,-0.764404296875,0.558715820312
27829470600,0.271545410156,0.176879882812,-0.760498046875,0.562683105469
27829486918,0.281127929688,0.16650390625,-0.756958007812,0.56591796875
27829509382,0.289184570312,0.156127929688,-0.754333496094,0.568237304688
27829530605,0.295471191406,0.146484375,-0.753173828125,0.569152832031
27829561944,0.300903320312,0.137817382812,-0.753601074219,0.567932128906
27829570102,0.306335449219,0.129272460938,-0.755187988281,0.564880371094
27829590592,0.311645507812,0.123413085938,-0.757385253906,0.560302734375
27829606275,0.315856933594,0.116088867188,-0.760070800781,0.555908203125
27829637372,0.31591796875,0.113098144531,-0.762939453125,0.552551269531
27829651886,0.313598632812,0.112487792969,-0.765869140625,0.549926757812
27829666211,0.311584472656,0.112915039062,-0.767333984375,0.548950195312
27829689379,0.311950683594,0.113952636719,-0.765991210938,0.550415039062
27829719365,0.313110351562,0.117919921875,-0.763000488281,0.553039550781
27829726212,0.312133789062,0.129150390625,-0.759155273438,0.556396484375
27829749380,0.310119628906,0.14208984375,-0.755004882812,0.559997558594
27829788216,0.310302734375,0.152282714844,-0.751281738281,0.562255859375
27829792963,0.3095703125,0.164916992188,-0.749450683594,0.561462402344
27829816915,0.303283691406,0.183227539062,-0.748107910156,0.56103515625
27829839926,0.297912597656,0.198181152344,-0.748352050781,0.558532714844
27829853048,0.290588378906,0.213195800781,-0.749877929688,0.554809570312
27829869370,0.283569335938,0.225341796875,-0.751159667969,0.551879882812
27829891910,0.279479980469,0.232421875,-0.753601074219,0.547668457031
27829913063,0.276184082031,0.2392578125,-0.757446289062,0.541015625
27829929415,0.26953125,0.250366210938,-0.760986328125,0.534362792969
27829951914,0.258911132812,0.2666015625,-0.762390136719,0.52978515625
27829972882,0.24658203125,0.283203125,-0.763244628906,0.525756835938
27829989417,0.234558105469,0.298583984375,-0.764953613281,0.520202636719
27830012632,0.223754882812,0.311950683594,-0.766967773438,0.51416015625
27830032946,0.214660644531,0.323852539062,-0.768615722656,0.508178710938
27830050422,0.206909179688,0.334411621094,-0.770446777344,0.501708984375
27830073378,0.199645996094,0.343994140625,-0.772644042969,0.494750976562
27830094425,0.191345214844,0.355346679688,-0.774291992188,0.487426757812
27830110860,0.183166503906,0.368408203125,-0.773864746094,0.481506347656
27830131961,0.174194335938,0.382202148438,-0.772583007812,0.47607421875
27830152924,0.16650390625,0.394897460938,-0.770568847656,0.471801757812
27830169343,0.1591796875,0.408996582031,-0.766418457031,0.468994140625
27830191885,0.153381347656,0.420593261719,-0.762817382812,0.466552734375
27830213063,0.148620605469,0.429870605469,-0.760192871094,0.463928222656
27830229350,0.143798828125,0.440368652344,-0.756469726562,0.461608886719
27830251941,0.137756347656,0.451721191406,-0.752075195312,0.459716796875
27830272911,0.130737304688,0.460693359375,-0.748962402344,0.457946777344
27830289421,0.12451171875,0.468444824219,-0.745788574219,0.456970214844
27830311927,0.118957519531,0.474060058594,-0.743896484375,0.455749511719
27830333112,0.114501953125,0.478393554688,-0.743225097656,0.453430175781
27830349353,0.108581542969,0.482971191406,-0.742980957031,0.450500488281
27830371926,0.10107421875,0.48828125,-0.742309570312,0.447509765625
27830393018,0.0924682617188,0.492797851562,-0.741943359375,0.445007324219
27830409452,0.0851440429688,0.497375488281,-0.74072265625,0.443481445312
27830431926,0.0794067382812,0.500610351562,-0.739868164062,0.442321777344
27830453097,0.07470703125,0.503173828125,-0.739501953125,0.440856933594
27830468728,0.0703735351562,0.506958007812,-0.738342285156,0.439147949219
27830491952,0.0670776367188,0.511901855469,-0.736328125,0.437316894531
27830513072,0.0652465820312,0.515441894531,-0.735168457031,0.435424804688
27830528748,0.0639038085938,0.519104003906,-0.733520507812,0.433959960938
27830551936,0.0628662109375,0.522216796875,-0.732238769531,0.4326171875
27830574372,0.0632934570312,0.5234375,-0.731628417969,0.432006835938
27830588781,0.0628662109375,0.525451660156,-0.731079101562,0.4306640625
27830611918,0.0621948242188,0.527038574219,-0.73046875,0.429809570312
27830634370,0.062744140625,0.526306152344,-0.730834960938,0.430114746094
27830649409,0.0626831054688,0.524963378906,-0.7314453125,0.4306640625
27830671871,0.0618286132812,0.5244140625,-0.731384277344,0.431457519531
27830694339,0.0615234375,0.523803710938,-0.7314453125,0.432250976562
27830709382,0.061767578125,0.523254394531,-0.731567382812,0.432556152344
27830731977,0.062255859375,0.523071289062,-0.731628417969,0.432678222656
27830754419,0.063232421875,0.522644042969,-0.731689453125,0.432983398438
27830768750,0.065673828125,0.520324707031,-0.732421875,0.434143066406
27830791920,0.0689697265625,0.516174316406,-0.733947753906,0.43603515625
27830814393,0.0712890625,0.512268066406,-0.735534667969,0.437622070312
27830835618,0.0714111328125,0.509399414062,-0.736694335938,0.43896484375
27830851919,0.0714721679688,0.505920410156,-0.738342285156,0.440246582031
27830874375,0.0714721679688,0.500915527344,-0.741088867188,0.441284179688
27830895550,0.0707397460938,0.495239257812,-0.744689941406,0.441711425781
27830911958,0.0689697265625,0.48876953125,-0.749389648438,0.441284179688
27830950046,0.0665893554688,0.481628417969,-0.755004882812,0.43994140625
27830955453,0.0641479492188,0.473693847656,-0.761352539062,0.438049316406
27830971989,0.0616455078125,0.46435546875,-0.768249511719,0.436218261719
27830994352,0.0585327148438,0.454284667969,-0.775573730469,0.434387207031
27831023083,0.05419921875,0.443603515625,-0.783508300781,0.431762695312
27831031925,0.048583984375,0.432067871094,-0.792114257812,0.428405761719
27831054387,0.0426635742188,0.419372558594,-0.800903320312,0.425231933594
27831075549,0.0367431640625,0.405517578125,-0.809631347656,0.422668457031
27831091918,0.0307006835938,0.391723632812,-0.817810058594,0.420471191406
27831114417,0.0250854492188,0.376770019531,-0.825988769531,0.41845703125
27831135583,0.0192260742188,0.360229492188,-0.834411621094,0.416687011719
27831151955,0.0131225585938,0.342651367188,-0.843078613281,0.414306640625
27831174336,0.008056640625,0.322509765625,-0.85205078125,0.412231445312
27831195519,0.00482177734375,0.298522949219,-0.861511230469,0.41064453125
27831211872,0.002685546875,0.271911621094,-0.870971679688,0.4091796875
27831234391,0.00042724609375,0.246337890625,-0.879211425781,0.407775878906
27831255388,-0.00311279296875,0.224487304688,-0.885498046875,0.406799316406
27831279393,-0.00848388671875,0.206481933594,-0.889953613281,0.406616210938
27831301913,-0.0155639648438,0.194213867188,-0.892639160156,0.406494140625
27831315438,-0.02294921875,0.185607910156,-0.894409179688,0.40625
27831331902,-0.0296630859375,0.178588867188,-0.895874023438,0.40576171875
27831354392,-0.0352783203125,0.171630859375,-0.897399902344,0.404968261719
27831375517,-0.0399780273438,0.164184570312,-0.899169921875,0.403625488281
27831391200,-0.0440063476562,0.156799316406,-0.901062011719,0.401977539062
27831414337,-0.0472412109375,0.150268554688,-0.902587890625,0.400756835938
27831435600,-0.0504150390625,0.145385742188,-0.903686523438,0.399658203125
27831451236,-0.0533447265625,0.142761230469,-0.904357910156,0.398681640625
27831474425,-0.0562744140625,0.142333984375,-0.904541015625,0.398010253906
27831495568,-0.0591430664062,0.143432617188,-0.904418945312,0.397521972656
27831511222,-0.0614624023438,0.144897460938,-0.904113769531,0.397338867188
27831534369,-0.0629272460938,0.146118164062,-0.90380859375,0.397277832031
27831556918,-0.06396484375,0.146911621094,-0.903503417969,0.3974609375
27831571700,-0.0650634765625,0.147583007812,-0.903137207031,0.398010253906
27831594345,-0.0662231445312,0.148193359375,-0.902648925781,0.398620605469
27831616925,-0.0672607421875,0.148620605469,-0.902221679688,0.399291992188
27831631920,-0.0686645507812,0.150207519531,-0.90185546875,0.399230957031
27831654368,-0.06787109375,0.149658203125,-0.902465820312,0.398254394531
27831676882,-0.0667724609375,0.146911621094,-0.902954101562,0.398254394531
27831691221,-0.0639038085938,0.143615722656,-0.903259277344,0.399353027344
27831714355,-0.0607299804688,0.143981933594,-0.902770996094,0.400695800781
27831736933,-0.0588989257812,0.149658203125,-0.901184082031,0.402526855469
27831758050,-0.0590209960938,0.158081054688,-0.898864746094,0.404479980469
27831774419,-0.0594482421875,0.165832519531,-0.896484375,0.406555175781
27831796913,-0.0596923828125,0.172119140625,-0.894287109375,0.408813476562
