27937055645,0.1953125,-0.20263671875,0.91259765625
27937079287,0.19287109375,-0.20458984375,0.92138671875
27937094516,0.4052734375,-0.20166015625,0.86865234375
27937115961,0.66162109375,-0.25390625,1.2998046875
27937139407,0.7998046875,-0.15625,1.31640625
27937154420,0.19677734375,-0.41064453125,1.31005859375
27937175658,-0.47802734375,-0.408203125,0.6923828125
27937199392,0.0400390625,-0.03662109375,0.4658203125
27937253363,0.84326171875,0.0263671875,1.08984375
27937254081,0.39013671875,-0.35693359375,1.37744140625
27937254926,-0.4443359375,-0.4404296875,0.775390625
27937276348,-0.048828125,-0.06982421875,0.44287109375
27937292166,-0.00927734375,-0.36474609375,1.13671875
27937310771,0.22021484375,-0.208984375,0.9404296875
27937334375,0.19189453125,-0.20751953125,0.9208984375
27937362988,0.1904296875,-0.20654296875,0.9208984375
27937374620,0.19140625,-0.212890625,0.91650390625
27937395060,0.0751953125,-0.19384765625,0.90380859375
27937408050,0.1640625,-0.48193359375,1.3798828125
27937430554,0.83154296875,-0.13623046875,1.25634765625
27937453081,0.4716796875,-0.33642578125,1.3876953125
27937468107,-0.33935546875,-0.47314453125,0.943359375
27937490590,-0.27490234375,-0.1669921875,0.4345703125
27937512954,0.6474609375,0.05810546875,0.83642578125
27937528146,0.6640625,-0.2470703125,1.40478515625
27937550606,-0.27099609375,-0.4912109375,1.0263671875
27937581783,-0.296875,-0.1875,0.4345703125
27937587912,-0.01806640625,-0.03564453125,0.59912109375
27937610573,0.28173828125,-0.26171875,0.95703125
27937633019,0.17041015625,-0.2236328125,0.92431640625
27937648070,0.1865234375,-0.22802734375,0.92626953125
27937670572,0.20556640625,-0.2119140625,0.904296875
27937693050,0.2001953125,-0.20361328125,0.90966796875
27937708072,0.18212890625,-0.20654296875,0.91845703125
27937730460,0.1787109375,-0.2109375,0.9306640625
27937753059,0.181640625,-0.21533203125,0.919921875
27937769403,0.17529296875,-0.21728515625,0.91064453125
27937790435,0.15234375,-0.22412109375,0.892578125
27937812899,0.162109375,-0.25830078125,0.9091796875
27937829387,0.16015625,-0.275390625,0.91259765625
27937850411,0.13134765625,-0.2939453125,0.9130859375
27937884614,0.14501953125,-0.3154296875,0.91748046875
27937889388,0.171875,-0.35791015625,0.9501953125
27937910609,0.1474609375,-0.36181640625,0.9306640625
27937934365,0.0771484375,-0.349609375,0.9052734375
27937949405,0.08837890625,-0.375,0.90966796875
27937978072,0.14697265625,-0.3818359375,0.94677734375
27937993055,0.08544921875,-0.38916015625,0.904296875
27938010898,0.03271484375,-0.37841796875,0.87060546875
27938030593,0.04248046875,-0.38134765625,0.87744140625
27938052905,0.02392578125,-0.40673828125,0.8828125
27938069424,0.01953125,-0.46337890625,0.8916015625
27938090410,0.00732421875,-0.443359375,0.8779296875
27938113063,-0.00537109375,-0.43798828125,0.8359375
27938137106,-0.01953125,-0.513671875,0.89404296875
27938150456,-0.0390625,-0.4736328125,0.92333984375
27938172996,-0.0380859375,-0.49755859375,0.89794921875
27938190932,-0.07373046875,-0.5322265625,0.90625
27938210390,-0.1171875,-0.58642578125,0.9384765625
27938233073,-0.1572265625,-0.5732421875,0.91455078125
27938250934,-0.1875,-0.5634765625,0.9189453125
27938277905,-0.1982421875,-0.55078125,0.94189453125
27938292977,-0.203125,-0.529296875,0.9619140625
27938318323,-0.2509765625,-0.4775390625,0.92529296875
27938330455,-0.2939453125,-0.4248046875,0.90625
27938353765,-0.298828125,-0.40966796875,0.91748046875
27938370471,-0.3466796875,-0.43505859375,0.9111328125
27938392571,-0.39453125,-0.427734375,0.896484375
27938413534,-0.451171875,-0.37890625,0.845703125
27938430031,-0.4794921875,-0.3349609375,0.86962890625
27938452578,-0.50048828125,-0.30615234375,0.8359375
27938473699,-0.55517578125,-0.26220703125,0.837890625
27938490018,-0.59521484375,-0.208984375,0.79638671875
27938512537,-0.61767578125,-0.154296875,0.78857421875
27938533565,-0.5791015625,-0.2080078125,0.84375
27938549372,-0.58349609375,-0.20947265625,0.7880859375
27938574008,-0.6474609375,-0.1083984375,0.73681640625
27938593531,-0.74609375,0.10107421875,0.6064453125
27938609314,-0.697265625,0.052734375,0.71533203125
27938632495,-0.62548828125,-0.111328125,0.7236328125
27938653678,-0.6611328125,-0.052734375,0.70166015625
27938669423,-0.74169921875,0.08740234375,0.619140625
27938692636,-0.78515625,0.26708984375,0.48486328125
27938715039,-0.71435546875,0.21728515625,0.58984375
27938729380,-0.693359375,0.03466796875,0.63232421875
27938752514,-0.68798828125,-0.02294921875,0.634765625
27938775054,-0.736328125,0.16015625,0.60009765625
27938789350,-0.74267578125,0.3232421875,0.53515625
27938812584,-0.73681640625,0.31689453125,0.56005859375
27938835489,-0.75146484375,0.22216796875,0.57470703125
27938849380,-0.7490234375,0.2275390625,0.57373046875
27938872502,-0.7548828125,0.32958984375,0.52685546875
27938895527,-0.7626953125,0.3173828125,0.546875
27938916141,-0.74267578125,0.2294921875,0.587890625
27938932523,-0.76220703125,0.27490234375,0.54833984375
27938955041,-0.77197265625,0.306640625,0.52294921875
27938976193,-0.7421875,0.2646484375,0.513671875
27938992604,-0.75830078125,0.2568359375,0.5244140625
27939014994,-0.7646484375,0.25537109375,0.46728515625
27939036222,-0.72119140625,0.25048828125,0.50634765625
27939052523,-0.7119140625,0.259765625,0.544921875
27939074996,-0.73681640625,0.30908203125,0.56884765625
27939096038,-0.71337890625,0.33056640625,0.5400390625
27939112452,-0.67626953125,0.32470703125,0.548828125
27939135013,-0.66796875,0.333984375,0.53955078125
27939156180,-0.68115234375,0.33251953125,0.560546875
27939173000,-0.65283203125,0.34521484375,0.58056640625
27939195029,-0.630859375,0.3701171875,0.59375
27939217484,-0.58447265625,0.37939453125,0.59814453125
27939232493,-0.58154296875,0.384765625,0.60546875
27939255020,-0.578125,0.3056640625,0.59912109375
27939276172,-0.59423828125,0.3388671875,0.642578125
27939292507,-0.58349609375,0.3974609375,0.6318359375
27939315045,-0.53759765625,0.40771484375,0.61083984375
27939336092,-0.4990234375,0.39599609375,0.63134765625
27939360063,-0.47314453125,0.37060546875,0.64306640625
27939375472,-0.48583984375,0.37646484375,0.67041015625
27939396176,-0.45068359375,0.41845703125,0.681640625
27939418751,-0.42724609375,0.44775390625,0.68798828125
27939442492,-0.37255859375,0.44775390625,0.7021484375
27939456220,-0.37060546875,0.4267578125,0.703125
27939471949,-0.40283203125,0.4228515625,0.7353515625
27939494995,-0.4111328125,0.42529296875,0.74072265625
27939541393,-0.36865234375,0.42919921875,0.72607421875
27939546165,-0.40576171875,0.42333984375,0.75048828125
27939555052,-0.41796875,0.396484375,0.76318359375
27939576207,-0.41162109375,0.38427734375,0.767578125
27939592510,-0.39111328125,0.38671875,0.76025390625
27939614965,-0.39794921875,0.4052734375,0.76904296875
27939637522,-0.42138671875,0.4150390625,0.779296875
27939652520,-0.41748046875,0.41455078125,0.77783203125
27939675030,-0.41748046875,0.42431640625,0.75146484375
27939704993,-0.4404296875,0.4228515625,0.7919921875
27939727502,-0.43212890625,0.390625,0.8017578125
27939735009,-0.40087890625,0.3935546875,0.81787109375
27939757494,-0.404296875,0.3828125,0.8134765625
27939771945,-0.39404296875,0.36279296875,0.79296875
27939794986,-0.41259765625,0.3935546875,0.79443359375
27939817522,-0.427734375,0.43359375,0.787109375
27939831924,-0.39794921875,0.41259765625,0.78466796875
27939855020,-0.40869140625,0.3779296875,0.78125
27939891633,-0.4189453125,0.3623046875,0.7919921875
27939901467,-0.41943359375,0.36474609375,0.7861328125
27939915030,-0.419921875,0.4033203125,0.78759765625
27939937546,-0.4072265625,0.404296875,0.7939453125
27939951917,-0.4091796875,0.36865234375,0.79052734375
27939975012,-0.404296875,0.35693359375,0.79638671875
27939997489,-0.4013671875,0.37255859375,0.80126953125
27940011851,-0.404296875,0.396484375,0.8037109375
27940035145,-0.39892578125,0.396484375,0.7958984375
27940073779,-0.39599609375,0.38818359375,0.79345703125
27940078628,-0.3935546875,0.3701171875,0.806640625
27940095025,-0.38720703125,0.37060546875,0.8017578125
27940118147,-0.4033203125,0.376953125,0.79833984375
27940138652,-0.40576171875,0.3759765625,0.810546875
27940155045,-0.390625,0.373046875,0.810546875
27940177528,-0.37890625,0.3603515625,0.80419921875
27940199782,-0.392578125,0.373046875,0.79345703125
27940214960,-0.4140625,0.3896484375,0.79833984375
27940237531,-0.40869140625,0.390625,0.7978515625
27940258674,-0.3857421875,0.37109375,0.78271484375
27940274993,-0.39794921875,0.3681640625,0.787109375
27940297520,-0.41162109375,0.3720703125,0.79296875
27940326061,-0.4013671875,0.37255859375,0.78857421875
27940335024,-0.39306640625,0.373046875,0.79248046875
27940357960,-0.3828125,0.3876953125,0.8017578125
27940378565,-0.3798828125,0.36865234375,0.80322265625
27940395033,-0.40087890625,0.3564453125,0.79931640625
27940417494,-0.392578125,0.365234375,0.80859375
27940438534,-0.37646484375,0.34814453125,0.79736328125
27940454992,-0.388671875,0.34521484375,0.79833984375
27940491734,-0.4228515625,0.365234375,0.80517578125
27940506145,-0.416015625,0.38916015625,0.798828125
27940515006,-0.396484375,0.37548828125,0.78955078125
27940537498,-0.3994140625,0.34423828125,0.78857421875
27940559969,-0.41259765625,0.33642578125,0.7998046875
27940574969,-0.3876953125,0.35205078125,0.7978515625
27940604989,-0.37451171875,0.3583984375,0.79736328125
27940619945,-0.396484375,0.32861328125,0.81396484375
27940634986,-0.40380859375,0.33837890625,0.80078125
27940657497,-0.34814453125,0.3583984375,0.78173828125
27940680023,-0.36962890625,0.3779296875,0.765625
27940694343,-0.38818359375,0.38525390625,0.771484375
27940717490,-0.40625,0.365234375,0.7626953125
27940739969,-0.44482421875,0.34912109375,0.794921875
27940754353,-0.4736328125,0.34228515625,0.81201171875
27940777566,-0.478515625,0.32763671875,0.7822265625
27940816146,-0.47802734375,0.3193359375,0.78564453125
27940828571,-0.50732421875,0.29296875,0.76953125
27940838897,-0.51123046875,0.28466796875,0.7431640625
27940860041,-0.5107421875,0.28564453125,0.71923828125
27940881212,-0.515625,0.2939453125,0.7236328125
27940897547,-0.55517578125,0.27587890625,0.70654296875
27940919985,-0.544921875,0.25048828125,0.71044921875
27940941136,-0.52880859375,0.2275390625,0.68798828125
27940988838,-0.57080078125,0.18896484375,0.66845703125
27940994320,-0.59130859375,0.16552734375,0.64501953125
27941001007,-0.59423828125,0.13818359375,0.623046875
27941017519,-0.625,0.119140625,0.6162109375
27941039997,-0.65478515625,0.087890625,0.62646484375
27941062541,-0.66455078125,0.04736328125,0.62548828125
27941077549,-0.6748046875,0.041015625,0.619140625
27941100441,-0.6796875,0.06884765625,0.62744140625
27941121027,-0.6796875,0.0849609375,0.61328125
27941137497,-0.65673828125,0.0849609375,0.6220703125
27941160055,-0.6376953125,0.05517578125,0.63671875
27941188499,-0.6669921875,0.044921875,0.6396484375
27941197461,-0.69970703125,0.02392578125,0.6474609375
27941221069,-0.7119140625,0.0,0.65185546875
27941241275,-0.72021484375,-0.04541015625,0.67626953125
27941281803,-0.712890625,-0.06884765625,0.69482421875
27941286128,-0.70068359375,-0.0517578125,0.69677734375
27941300994,-0.6953125,-0.05029296875,0.716796875
27941325020,-0.68505859375,-0.06787109375,0.73388671875
27941339994,-0.6494140625,-0.0751953125,0.7373046875
27941361215,-0.6298828125,-0.05419921875,0.7822265625
27941376837,-0.64990234375,-0.044921875,0.80419921875
27941399974,-0.6484375,-0.04150390625,0.8076171875
27941420988,-0.62646484375,-0.0595703125,0.8046875
27941427908,-0.60888671875,-0.05859375,0.80712890625
27941445740,-0.58349609375,-0.04638671875,0.81884765625
27941465302,-0.564453125,-0.05517578125,0.87060546875
27941488065,-0.537109375,-0.06640625,0.85986328125
27941504339,-0.5009765625,-0.0693359375,0.8408203125
27941525412,-0.4775390625,-0.0791015625,0.859375
27941548009,-0.46728515625,-0.1357421875,0.87109375
27941564341,-0.45068359375,-0.1806640625,0.8623046875
27941585530,-0.451171875,-0.17236328125,0.8359375
27941608132,-0.45703125,-0.17529296875,0.8623046875
27941623003,-0.44970703125,-0.19677734375,0.841796875
27941645346,-0.3974609375,-0.22509765625,0.87255859375
27941670760,-0.35986328125,-0.2451171875,0.876953125
27941684320,-0.38623046875,-0.23583984375,0.86376953125
27941705398,-0.36328125,-0.23779296875,0.9267578125
27941728046,-0.32470703125,-0.22705078125,0.9072265625
27941745833,-0.31982421875,-0.21533203125,0.93603515625
27941765379,-0.3115234375,-0.22021484375,0.9345703125
27941787950,-0.29345703125,-0.2177734375,0.94140625
27941803051,-0.28173828125,-0.2080078125,0.95654296875
27941825478,-0.24267578125,-0.220703125,0.94873046875
27941848004,-0.21630859375,-0.251953125,0.96240234375
27941863012,-0.1982421875,-0.2900390625,0.95068359375
27941885466,-0.171875,-0.291015625,0.96533203125
27941908010,-0.1552734375,-0.26123046875,0.95361328125
27941922878,-0.1591796875,-0.2646484375,0.94921875
27941948282,-0.1318359375,-0.30224609375,0.943359375
