30215400700,0,-5,-3,-2,-2,0,0,1
30215400700,1,6,-5,-2,0,-1,1,2
30215402062,-4,-15,-3,1,1,0,-1,0
30215402062,2,15,16,-2,-1,0,1,1
30215404244,3,-4,-13,-1,-1,-3,0,0
30215404244,-1,-1,0,2,-2,0,-2,-2
30215405511,0,3,-6,-4,0,-1,-2,-1
30215405511,-3,-1,7,0,0,0,-2,0
30215406321,-1,-1,2,-1,0,3,-2,-1
30215406321,1,2,8,-3,-3,-1,-1,0
30215420745,0,0,-10,-3,0,1,0,-2
30215420745,-2,-1,-4,-5,-2,-2,-3,-3
30215430093,0,3,4,-1,-1,0,-1,-1
30215430093,0,2,-4,1,-1,2,1,0
30215435698,0,-10,-1,1,-2,-1,0,-1
30215435698,-1,6,4,0,-3,-2,0,0
30215451303,-3,-3,6,4,0,-2,-1,-2
30215451303,-1,-6,4,0,0,-2,-3,-2
30215466490,-2,1,5,2,0,0,0,-1
30215466490,0,4,-3,-1,0,-1,-1,0
30215467091,-1,-6,2,0,-3,-2,-2,-1
30215467091,-1,-1,0,-1,0,-1,-1,-2
30215513184,2,0,-16,-1,1,-1,2,1
30215513184,-2,-2,-3,0,-1,0,-1,0
30215513814,0,-5,-7,-2,0,0,-1,0
30215513814,-1,0,4,0,0,-1,-2,-1
30215515440,-2,6,8,-1,-1,0,-1,-1
30215515440,-1,-5,-4,1,-1,-1,-1,0
30215518083,-1,5,3,-2,-3,-2,0,-3
30215518083,-5,-14,-1,1,0,0,1,0
30215525563,-3,-1,-3,0,-1,-2,-4,-2
30215525563,1,8,6,-3,-3,-3,-2,-1
30215534358,2,6,-2,-1,-1,0,1,-1
30215534358,0,0,-6,-3,-3,-2,-1,-3
30215540550,-2,-2,-1,-3,-2,-2,0,-1
30215540550,0,-2,-5,0,-2,-2,0,-2
30215555471,-1,0,4,0,-1,-3,-1,0
30215555471,-2,1,-3,-2,-3,-3,-1,1
30215562965,-3,-6,-1,0,-3,0,-1,1
30215562965,1,4,-5,-2,3,3,-1,1
30215586843,1,3,2,0,2,3,1,0
30215586843,0,-9,-8,-1,0,3,0,0
30215587547,2,0,3,-1,-1,-1,-4,-2
30215587547,0,0,-4,-2,-1,1,2,2
30215601212,-1,-1,-2,0,0,0,-1,-2
30215601212,-1,0,2,-3,0,-1,-2,0
30215601907,0,-1,1,-1,0,0,-1,-1
30215601907,-2,-8,-1,0,1,0,-1,-4
30215623676,-3,-2,4,0,0,-2,-1,-1
30215623676,2,15,-3,-3,-2,-1,1,1
30215624351,-1,-7,-4,1,1,0,0,-1
30215624351,-3,0,1,-2,-2,-3,-1,-1
30215646883,0,-1,0,-1,-3,-2,-3,1
30215646883,1,4,-2,0,-1,-1,0,-3
30215647570,-1,3,4,-1,-1,0,0,0
30215647570,-2,-3,0,-1,0,-1,-2,-2
30215661140,-1,-3,-4,-1,-1,-1,1,2
30215661140,3,12,8,-1,0,-4,-2,-1
30215661814,-2,-10,-3,-2,0,1,1,0
30215661814,1,0,-5,0,-1,-2,1,0
30215683518,-2,-7,-1,-2,-1,0,0,-3
30215683518,-2,-1,4,0,-1,1,-2,0
30215684292,2,5,-4,-3,-1,-2,-2,-2
30215684292,-3,-7,0,-1,1,1,-1,1
30215706816,0,1,7,1,0,-2,0,1
30215706816,-2,-8,-3,-1,-1,0,-1,-2
30215707615,0,4,-2,1,-2,-2,-1,-1
30215707615,-1,4,0,0,-2,0,1,-1
30215721168,-2,-4,-7,-2,-1,-2,-2,-1
30215721168,-3,-5,0,1,-1,-1,-1,-1
30215721948,-1,1,-1,1,-2,-3,0,1
30215721948,1,-1,-7,-2,-1,-1,0,-2
30215743664,2,2,7,0,-1,0,-2,-1
30215743664,0,4,4,0,-1,-3,-1,-1
30215744360,-2,-5,14,0,-2,-1,-3,-2
30215744360,0,-5,-12,-3,-2,-1,-1,0
30215766888,0,-3,-12,0,-2,-1,-1,-2
30215766888,0,-9,-7,-1,-2,0,-1,-2
30215767517,0,6,9,-1,1,0,1,-1
30215767517,-1,1,2,0,-1,1,-2,0
30215781198,-3,-3,4,0,0,1,0,0
30215781198,-2,-6,-20,-9,-1,-3,0,-2
30215781913,0,0,15,-5,-5,-4,-1,-3
30215781913,0,2,10,0,-1,-2,-3,-2
30215803635,-1,1,-5,4,10,1,-1,1
30215803635,1,6,9,5,0,2,1,0
30215804334,-1,-6,-17,-2,0,1,0,1
30215804334,3,16,12,6,-1,-1,-2,-1
30215826990,-3,-11,-9,-7,-9,-4,-3,-3
30215826990,-3,-12,0,-2,-5,-2,-1,-1
30215827549,0,0,-17,-6,2,2,-3,-2
30215827549,1,-2,15,8,8,5,1,1
30215841123,4,12,-4,5,1,1,-2,0
30215841123,-3,1,11,0,-2,-3,-4,-3
30215841821,-3,-8,-17,-11,-6,-3,0,0
30215841821,-2,-4,-3,-5,-4,-6,-2,-1
30215863662,-1,-5,-12,-6,2,3,1,0
30215863662,1,4,3,2,1,1,-2,-1
30215864364,3,15,2,2,-1,0,0,2
30215864364,-4,-19,1,-3,-3,-2,1,-2
30215886172,-2,-5,-14,-8,-5,-3,1,-1
30215886172,1,7,10,4,1,0,0,0
30215886916,-6,-19,0,-1,-1,0,-1,-3
30215886916,0,-1,-14,0,-3,-3,-1,-1
30215901013,-5,-8,4,0,-3,-4,-3,-2
30215901013,-1,2,-4,-4,-4,-4,-2,1
30215901890,-3,-9,12,-9,-11,-8,-2,-4
30215901890,2,5,5,3,6,6,5,1
30215923677,-8,-30,5,13,17,8,0,-4
30215923677,-1,1,5,11,8,6,2,-1
30215924344,-1,-14,-29,-6,1,-1,-2,1
30215924344,-2,17,5,-12,-16,-9,-8,-4
30215946203,0,-6,8,-2,-8,-5,-3,-1
30215946203,3,4,-16,-5,-2,-2,1,0
30215946920,-2,4,7,6,7,3,2,0
30215946920,1,0,-13,0,0,2,1,1
30215961166,2,11,-4,-5,-5,-4,1,-1
30215961166,-5,-19,-5,-9,-8,-6,-5,-2
30215961916,0,6,-2,3,0,-1,-3,-3
30215961916,-1,3,0,-4,1,0,0,0
30215983644,1,14,23,0,-1,-1,-1,-3
30215983644,-6,-32,-18,-2,-3,0,-1,-3
30215984364,0,5,7,-1,-2,0,-2,0
30215984364,-4,-8,1,-2,-1,-2,-3,0
30216006869,-2,-8,-25,-9,-7,-5,-2,-1
30216006869,4,17,-17,-4,-3,0,1,1
30216007544,-6,-17,21,7,4,0,0,0
30216007544,-1,2,-13,-1,-2,-2,-3,-1
30216021158,-4,-12,-21,-3,-2,2,0,0
30216021158,2,2,-9,3,9,7,3,3
30216021807,1,8,-3,-1,-2,2,2,0
30216021807,-2,-2,-1,-5,-8,-5,-3,-2
30216043591,-2,5,11,7,4,-1,1,1
30216043591,-1,17,17,-4,-9,-6,-3,-2
30216044348,-1,-6,-22,-3,-2,-3,-3,-3
30216044348,-2,-10,-6,3,7,1,1,-1
30216066945,1,12,19,2,1,3,0,1
30216066945,-3,-1,7,-3,-5,3,1,-2
30216067500,1,7,8,2,-4,-2,1,0
30216067500,1,2,-2,3,7,5,0,1
30216089299,-2,-5,-9,-6,-2,-4,-2,0
30216089299,-4,-1,2,1,0,-3,-3,-4
30216089983,-1,2,2,-7,-8,-4,-2,-1
30216089983,-3,-4,6,3,-3,-4,-4,-3
30216103696,0,7,5,0,-1,-2,0,-1
30216103696,-4,-4,-3,-3,-4,-6,-3,-1
30216104313,-2,-2,-2,1,2,2,-1,0
30216104313,-2,-4,-5,-1,0,-5,-4,-2
30216126818,2,0,-8,-3,-4,-1,-2,-1
30216126818,2,3,23,5,12,11,5,1
30216127546,3,7,7,6,9,12,6,2
30216127546,-1,3,4,-2,-5,-2,0,1
30216140473,-1,3,6,-5,-9,-6,0,-2
30216140473,-3,-10,-15,-7,-12,-13,-5,-4
30216148678,-1,-2,-8,5,5,-2,-3,-1
30216148678,-2,2,10,0,-2,-2,-3,-3
30216163344,1,2,-8,3,-1,-2,1,1
30216163344,1,0,4,-1,-1,-1,0,1
30216171287,0,-1,1,-3,1,1,0,-1
30216171287,-1,-4,-14,-6,-3,3,2,-1
30216186688,-1,1,-4,2,5,6,-1,0
30216186688,-1,5,18,7,3,-1,1,0
30216187504,2,6,3,2,-7,-9,-4,-3
30216187504,-5,-15,4,-8,-6,-5,-4,-5
30216200473,2,0,-16,-4,-2,8,2,0
30216200473,-1,-5,0,1,4,1,1,0
30216208640,-2,0,5,-1,1,-1,1,-1
30216208640,1,7,-3,1,0,-1,-2,0
30216223639,-4,-5,10,-1,-1,-7,-1,-1
30216223639,-2,-5,-29,-6,-6,0,-3,0
30216224385,-2,8,19,0,-5,-7,-7,-3
30216224385,-2,1,1,-5,-3,1,0,-1
30216247018,0,-1,3,0,3,1,-2,-2
30216247018,-1,2,-1,1,4,3,1,0
30216247544,-1,-8,-24,-5,-1,1,0,-1
30216247544,-1,-5,-9,-1,-4,-2,-1,0
30216260481,-3,0,11,-3,-7,-2,-1,-2
30216260481,0,-5,2,1,5,1,-1,-1
30216268685,1,3,0,-2,1,1,0,2
30216268685,0,2,-10,-4,-5,-9,-3,-1
30216283613,-1,-2,16,1,1,-3,-4,-1
30216283613,2,4,-13,-5,-1,3,2,0
30216284284,-4,-9,-11,-1,-1,-2,0,-1
30216284284,5,7,0,0,1,-1,1,1
30216306932,0,-1,21,-1,-5,-5,-2,-1
30216306932,0,0,-4,-6,-5,-4,-3,-3
30216307523,-2,-5,-16,5,4,1,0,-3
30216307523,2,-4,2,2,7,10,4,4
30216320526,3,9,2,1,-4,0,1,-1
30216320526,-2,1,-3,-1,-7,-6,-4,-1
30216328748,-2,0,-2,-11,-2,-1,-1,-2
30216328748,-5,-8,10,7,-7,-8,-5,-2
30216343625,-3,-2,-1,-2,0,-2,-2,-1
30216343625,2,7,14,3,-3,-1,1,0
30216344375,-2,-5,-10,-4,-1,3,0,-2
30216344375,0,-3,-3,4,8,6,2,-1
30216366965,0,-5,-9,-3,0,-1,-1,-1
30216366965,0,1,-1,-3,-5,-7,-4,-2
30216367543,-3,-8,-1,0,-4,-5,-3,0
30216367543,-1,-1,3,-4,-1,3,1,0
30216380469,-2,-8,-13,1,4,1,1,-1
30216380469,-1,-3,0,4,5,3,-1,0
30216388684,3,3,4,4,1,1,1,1
30216388684,-1,6,8,-4,-9,-5,-3,-2
30216403611,-1,-2,-13,-9,5,1,-3,-1
30216403611,-1,-6,5,4,5,2,2,0
30216404317,2,5,7,1,-2,3,2,0
30216404317,-2,-7,2,-6,-9,-6,-3,-2
30216426825,-7,-16,-21,-4,-9,-8,-5,-2
30216426825,-2,2,-2,-1,3,2,-2,-2
30216427530,0,1,-2,0,-1,-1,-1,-1
30216427530,0,-3,5,1,1,1,1,-3
30216440543,1,15,-8,-3,-1,0,0,0
30216440543,-3,-10,-5,-7,-5,-5,-3,-3
30216448677,-2,2,1,1,-5,-5,-2,-2
30216448677,-1,0,0,3,10,5,-1,0
30216463645,3,5,6,4,0,2,1,1
30216463645,-2,-4,-2,3,1,0,3,1
30216464367,0,2,-11,-8,-8,-3,-2,-2
30216464367,0,8,8,-3,1,1,1,0
30216485474,-3,-7,0,-4,-7,-4,-2,-2
30216485474,-3,-2,-7,4,6,-2,0,-1
30216494381,-3,-4,7,1,3,3,-1,-3
30216494381,0,-4,-9,1,4,4,3,5
30216509345,-3,-13,-17,-7,-7,-4,-4,-2
30216509345,1,1,3,-8,-10,-4,-1,1
30216510912,-2,-6,-5,-4,-1,-4,-2,-2
30216510912,-4,-3,-10,-4,-6,-7,-5,-4
30216531994,-4,1,-3,10,7,6,3,0
30216531994,-1,-1,9,0,2,1,-1,-4
30216533327,3,15,22,7,-3,-6,-2,0
30216533327,-5,-15,-13,-2,3,2,2,-3
30216545515,3,5,10,0,2,-1,1,0
30216545515,-5,-12,-9,2,-3,-2,-3,-2
30216554358,3,3,18,0,-3,0,-1,2
30216554358,0,-2,-12,-9,-12,-9,-6,-5
30216569318,-4,6,7,1,0,-6,-4,-2
30216569318,-7,-27,-8,2,5,5,0,-2
30216570814,2,8,1,-9,-6,1,0,2
30216570814,0,-4,-7,-1,-3,-3,-1,0
30216591850,7,13,26,4,1,2,1,1
30216591850,1,14,5,6,5,3,2,0
30216593363,0,6,3,3,4,2,0,-1
30216593363,-4,-1,-12,-4,1,1,-2,-3
30216605489,-3,-6,-5,10,-1,0,0,-2
30216605489,5,7,3,-10,-9,-5,-4,2
30216614357,-4,-13,-24,-4,-7,-6,-5,-2
30216614357,-3,-5,32,6,3,-1,0,1
30216629352,0,-9,-20,-17,-9,-5,-4,-3
30216629352,0,-4,-11,2,-1,-2,1,-1
30216630818,4,-3,-13,1,9,4,0,2
30216630818,-5,6,8,-2,-4,-4,0,-1
30216651875,-4,-2,3,-1,-4,-1,-2,-4
30216651875,0,16,4,-7,-8,-7,-4,-1
30216653354,-4,-6,-10,7,10,7,0,-3
30216653354,1,-7,1,-4,-5,-4,-7,-2
30216665472,1,-3,7,4,4,1,-1,3
30216665472,-1,12,-15,-10,-8,-4,-3,-1
30216674380,-6,-12,11,-5,-9,-7,-4,-3
30216674380,1,8,18,6,6,-1,1,-1
30216689217,3,4,-5,-6,0,4,0,1
30216689217,-1,3,-1,2,6,3,1,1
30216690907,0,6,8,-5,0,-2,2,1
30216690907,-1,3,-22,4,3,0,-3,-6
30216711946,-3,-2,36,7,1,-4,1,3
30216711946,1,1,0,-3,-2,-1,1,-1
30216713320,-3,3,5,6,1,-3,-1,3
30216713320,-3,-7,-14,-12,-7,-4,0,1
30216725369,7,13,3,-2,2,0,0,-1
30216725369,-3,-22,-19,-3,-1,-1,-3,-4
30216734384,-4,-8,-10,-5,3,0,1,-3
30216734384,9,17,15,3,5,2,1,0
30216749344,-10,-17,-28,-4,-1,-1,-2,-2
30216749344,3,2,-13,-9,-9,-3,-1,-4
30216750896,1,9,4,-3,-13,-5,3,8
30216750896,7,10,0,14,11,9,5,3
30216771818,1,14,4,18,9,2,-2,-4
30216771818,-5,-14,6,0,0,0,0,-5
30216773313,-5,-13,-3,-10,-10,-7,-4,0
30216773313,-4,-3,11,-12,-12,-6,-2,-2
30216785509,-7,-7,-5,-3,-4,-2,3,1
30216785509,-1,5,9,5,9,3,0,-3
30216794330,10,19,20,8,9,6,-6,-12
30216794330,-10,-33,-29,-8,-6,-6,-4,0
30216809348,0,-3,-5,-4,-6,-5,-9,-5
30216809348,-6,10,11,0,-8,-4,8,14
30216810917,-4,-22,-42,-8,2,4,6,3
30216810917,15,29,19,9,6,2,2,3
30216831829,-1,-2,-10,-12,-5,1,-6,-8
30216831829,-2,6,32,18,7,-1,-6,-8
30216833331,-1,-18,-28,-13,-4,0,1,2
30216833331,1,8,-3,-3,-6,-3,-3,-4
30216845494,-5,-8,9,-4,-5,-5,2,0
30216845494,3,0,-12,-4,1,3,0,1
30216854349,-5,-10,1,18,15,6,-3,-5
30216854349,0,4,-11,1,3,3,4,-1
30216869395,4,18,16,6,-5,-3,-2,-6
30216869395,-6,-19,-16,-11,-15,-10,1,16
30216870796,-4,13,19,-6,-5,-7,-2,-4
30216870796,-1,-20,-11,6,5,4,1,4
30216891863,-2,4,-14,7,16,9,1,-6
30216891863,1,-2,-17,-4,-3,-2,-5,-12
30216893346,-4,8,9,-3,-8,-6,-5,-5
30216893346,3,5,18,0,-4,-3,7,18
30216905453,-7,-18,-16,-17,-14,-6,0,8
30216905453,6,-6,12,2,3,2,-1,-1
30216914355,-1,18,-12,7,-3,-2,-2,-10
30216914355,-6,8,36,4,2,-2,-7,-9
30216928626,-1,1,-9,2,-2,-2,-14,-24
30216928626,1,1,7,-1,-2,-2,10,24
30216935462,2,-5,18,-12,-15,-10,2,16
30216935462,5,9,-15,-3,1,2,3,6
30216951957,-7,-5,-3,4,11,6,9,6
30216951957,-3,5,0,17,10,3,-15,-31
30216953306,-1,-8,10,-12,-5,-1,-11,-17
30216953306,-19,-31,-62,-29,-18,-9,-2,0
30216965479,19,-4,4,-11,-7,-2,11,21
30216965479,-3,19,-4,-12,-9,-6,-1,7
30216974332,-8,-15,-19,18,20,9,-1,-13
30216974332,-5,-21,-30,-3,-1,-1,-2,-3
30216988624,1,4,-3,-2,-4,-4,-8,-10
30216988624,-2,-1,-2,10,9,4,2,-3
30217002898,5,8,54,7,-4,2,10,10
30217002898,2,-21,-44,-13,-5,2,13,12
30217012041,2,18,-1,1,1,-7,-25,-23
30217012041,0,-18,-7,-12,-10,-2,5,15
30217013318,-5,-8,-11,11,7,-1,-4,-9
30217013318,0,13,52,6,3,3,-2,-2
30217034359,-25,-17,71,1,-10,-6,4,-4
30217034359,15,48,-8,4,19,9,-3,-11
30217035814,4,1,2,-1,-9,-5,-1,3
30217035814,12,20,-4,-1,3,1,-6,1
30217048625,-39,-61,-47,-6,-3,-2,-8,-24
30217048625,-2,5,4,-5,-7,-1,-8,-6
30217055401,-1,-14,28,-8,-8,-6,11,30
30217055401,-18,-10,-7,9,-1,-5,-4,-16
30217071954,27,3,-5,11,10,10,10,23
30217071954,-5,13,35,-1,-4,-3,-2,2
30217073366,4,-17,-26,-7,-13,-12,-15,-15
30217073366,-9,-5,-1,-15,-9,-2,8,10
30217094365,21,27,-44,1,2,3,8,12
30217094365,-12,9,10,3,2,-2,1,-2
30217095808,13,32,11,5,2,3,0,1
30217095808,-16,-38,3,-6,-1,-2,-14,-23
30217108618,6,-17,11,-24,-24,-15,-2,-3
30217108618,3,-22,22,24,27,12,11,21
30217115483,-2,20,7,37,24,13,4,-8
30217115483,11,11,-24,0,6,5,2,4
30217131692,0,2,13,-11,-14,-3,-1,10
30217131692,4,-11,-12,-30,-23,-14,2,6
30217133308,0,7,-12,-24,-17,-7,-3,-4
30217133308,-11,13,17,31,14,5,3,-9
30217154341,-13,-19,-2,8,8,-1,-6,-14
30217154341,-8,-25,-52,-17,-10,-4,-9,-19
30217155893,16,6,-22,-12,-12,-7,13,36
30217155893,-12,-37,38,1,-11,-9,-8,-13
30217169328,2,12,-5,8,8,4,-6,-15
30217169328,0,13,-2,-2,-7,-4,-1,-5
30217176981,0,2,-20,1,3,1,6,5
30217176981,3,7,-22,-3,9,2,-6,-3
30217191708,5,13,48,18,9,3,-9,-31
30217191708,2,-29,-7,-17,-14,-3,16,33
30217193322,-23,-7,-14,-11,-12,-5,-2,4
30217193322,8,-13,-27,-16,-1,0,8,13
30217214318,14,9,-3,1,8,-2,0,10
30217214318,2,1,-5,15,25,21,-2,-16
30217215928,-6,-4,18,19,24,11,0,-9
30217215928,-9,-9,-1,-21,-23,-13,-6,-5
30217228716,5,29,-22,-35,-23,-8,8,12
30217228716,1,-31,-11,29,31,10,-2,-3
30217235469,-10,7,14,31,27,17,-1,-15
30217235469,15,24,25,17,6,1,-4,3
30217251913,-8,13,-15,-14,-9,-4,7,12
30217251913,7,-8,10,-4,-1,-1,3,0
30217253334,-23,-18,-9,-38,-33,-19,-11,-3
30217253334,6,-21,-19,-9,2,7,0,-6
30217281988,3,45,16,53,32,11,0,6
30217281988,-4,1,-2,1,-15,-8,-1,-4
30217283330,14,7,7,-13,-9,-7,4,20
30217283330,-8,-11,-10,-5,-1,1,0,-1
30217287947,4,-21,8,7,4,2,11,17
30217287947,-5,3,-3,-23,-34,-17,-19,-22
30217296910,6,2,3,32,46,20,-1,-16
30217296910,2,42,30,2,-8,-7,-3,5
30217311814,-13,-56,-27,-27,-5,7,1,-14
30217311814,9,21,10,12,-14,-12,-3,7
30217313321,-8,-12,-18,-16,-26,-14,-4,-2
30217313321,1,14,16,12,-7,-9,-3,-6
30217334437,-4,0,-13,21,30,18,9,8
30217334437,-1,-11,12,-21,-10,-4,-5,-4
30217335809,-9,-7,-11,-10,-5,0,-6,-10
30217335809,15,14,-1,23,2,2,5,7
30217347983,8,18,0,-23,-12,-8,-5,1
30217347983,-5,0,-9,2,-4,-4,-2,-2
30217356903,10,7,-5,-11,0,-2,-1,-1
30217356903,-7,-3,12,3,0,-3,-4,-9
30217371785,-2,-9,-30,-35,-22,-14,-5,1
30217371785,9,17,9,38,26,13,7,10
30217373276,9,6,14,27,26,9,0,-14
30217373276,-27,-6,-14,-34,-15,-9,-4,-2
30217394319,-4,6,-7,-5,-6,-6,-4,1
30217394319,-33,1,4,12,-1,0,-3,-5
30217395825,7,3,-13,-26,-27,-11,-7,-7
30217395825,-3,10,1,7,11,10,5,8
30217408016,20,32,13,8,4,0,-12,-35
30217408016,-13,-34,-27,6,0,-2,18,25
30217416899,-8,-19,5,-16,-2,-3,-1,0
30217416899,8,-20,-7,-4,-1,1,0,5
30217431816,2,-10,16,15,-1,-6,-9,-19
30217431816,3,-17,-13,-14,-2,-2,-5,2
30217433298,11,17,3,1,-8,4,-1,-4
30217433298,-11,-68,-6,28,22,9,-1,-30
30217454343,-4,17,-14,-5,-18,-12,14,51
30217454343,-19,-7,-9,-26,-8,-5,-7,-20
30217455927,10,-40,10,31,0,-1,4,13
30217455927,-8,46,-1,-24,-16,-7,-8,-13
30217468655,-8,-11,-3,20,3,3,4,0
30217468655,1,13,2,-38,-23,-11,-10,-10
30217475463,-1,-7,3,-8,-4,-7,-16,-27
30217475463,-6,1,11,29,13,2,3,9
30217491909,-2,9,11,21,27,16,19,21
30217491909,6,4,-16,-27,-24,-14,-20,-7
30217493303,-11,-15,-18,-31,-28,-14,-9,-1
30217493303,18,20,13,-4,9,8,-2,-5
30217514314,-20,-18,-17,-12,-7,-8,-8,-8
30217514314,26,18,10,3,-3,-3,4,-1
30217515900,-30,-4,-20,2,-25,-4,10,20
30217515900,-12,-23,4,30,24,8,0,0
30217528000,22,43,17,17,20,15,-7,-22
30217528000,0,-18,30,47,42,25,22,32
30217536902,-11,2,-29,-43,-38,-31,-19,-3
30217536902,20,30,-10,-40,-22,-1,13,18
30217551855,-15,-39,15,9,-4,-3,-12,-15
30217551855,-2,13,19,1,2,-3,-37,-55
30217553363,36,38,2,8,27,14,35,53
30217553363,-15,-14,-1,-2,-6,-4,-5,-9
30217574308,18,0,-5,-11,0,-6,6,15
30217574308,-12,3,-12,-17,-17,-12,-19,-21
30217575780,-7,-10,25,33,31,14,13,19
30217575780,17,25,-5,21,18,10,1,0
30217588017,-15,-29,-26,-5,-7,-3,3,-2
30217588017,8,19,-4,2,7,6,6,8
30217596907,-23,-29,-16,-27,-11,-7,-19,-36
30217596907,9,-3,13,6,9,7,18,20
30217611765,-3,15,10,-13,-15,-8,-12,-12
30217611765,-12,-27,-10,5,-3,-7,3,14
30217613339,7,8,5,-20,1,5,2,-2
30217613339,-6,-23,-8,47,17,8,-3,-9
30217634324,6,-8,16,-6,-16,-1,3,5
30217634324,-5,11,-24,7,12,3,-12,-24
30217635826,2,9,14,12,-3,-1,3,7
30217635826,7,23,-1,-40,-32,-13,0,12
30217648003,-30,-47,-40,0,-18,-22,-14,-10
30217648003,15,-6,9,13,13,13,17,0
30217656909,16,7,17,-6,0,-1,-16,-23
30217656909,-17,29,-2,-6,-15,-6,14,29
30217671808,-2,12,14,7,13,7,-4,-8
30217671808,2,-9,8,-14,-6,-1,-1,2
30217673277,-20,-1,-25,-14,-7,-9,-1,-6
30217673277,8,-8,-2,8,12,-2,-16,-24
30217694192,-1,-16,-3,-13,-10,-10,-18,-11
30217694192,0,0,-3,0,3,7,31,28
30217695793,1,-32,12,37,27,16,-12,-15
30217695793,-3,1,-9,-27,-18,-15,-2,2
30217708013,-16,-17,-14,-14,-4,2,6,11
30217708013,0,19,10,-4,1,1,-6,-9
30217716895,5,3,8,11,1,3,13,3
30217716895,-10,-4,-3,-3,-8,-10,-23,-19
30217731785,23,-11,13,-8,3,5,26,35
30217731785,-22,-10,1,-4,-7,-5,-9,-12
30217733309,-13,0,-12,-8,-2,5,5,-5
30217733309,9,-15,13,15,7,-3,-16,-19
30217754338,6,-11,-5,-26,-11,-1,5,10
30217754338,-13,14,-12,21,22,16,15,7
30217755904,4,9,-4,1,-12,-17,-22,-21
30217755904,-10,-6,-37,-21,-11,-5,0,-3
30217767952,-10,-22,32,12,12,7,8,9
30217767952,8,10,6,-12,-11,-9,-13,-10
30217776899,-2,-3,-19,-3,-2,1,31,35
30217776899,-18,-44,-1,27,22,9,0,-15
30217791829,1,33,-21,-14,-12,-6,-17,-21
30217791829,-13,-4,-2,3,-1,-11,-39,-40
30217793307,11,-5,21,8,3,-4,-23,-3
30217793307,7,-11,-8,-24,-13,3,69,59
30217814282,6,30,3,17,11,12,39,48
30217814282,36,2,0,-9,-2,1,-3,9
30217815777,-46,-8,-4,-2,2,-1,-11,-13
30217815777,1,-13,15,-19,-12,-5,-35,-51
30217827953,8,34,-5,8,7,2,19,13
30217827953,2,-11,8,16,6,8,26,31
30217836905,-7,-35,-1,19,19,6,-20,-27
30217836905,1,50,28,2,-7,-11,-8,4
30217851813,10,-12,21,6,4,-3,-19,-19
30217851813,-43,9,4,-1,-12,-14,-32,-38
30217853317,16,10,-18,-28,-19,-6,22,35
30217853317,10,12,16,9,1,1,-17,-19
30217874291,-21,-29,-41,-17,-9,-14,-13,-13
30217874291,40,23,18,3,-7,2,17,32
30217875784,1,15,-28,-11,-5,-4,8,4
30217875784,-11,-6,24,18,13,0,13,3
30217888045,-14,-53,2,-5,-2,3,-14,-18
30217888045,33,14,-37,-19,-11,-2,13,4
30217896811,4,18,4,-23,-23,-7,3,14
30217896811,14,5,14,49,50,20,-10,-6
30217911192,-12,10,24,12,10,5,-9,-15
30217911192,-9,-46,3,11,1,-3,-18,-35
30217918089,23,-5,-15,-33,-27,-8,23,40
30217918089,-19,-19,-10,14,11,-2,-9,-7
30217934327,-16,-20,-19,-3,-4,2,-9,-15
30217934327,-15,8,5,7,3,-3,-20,-25
30217935906,8,7,9,13,1,-6,1,-15
30217935906,1,7,-18,-43,-36,-12,6,28
30217956826,12,9,0,-8,0,11,48,31
30217956826,-7,-18,-7,-1,-11,-5,1,6
30217958308,20,26,-11,13,26,11,-23,-21
30217958308,-16,-18,20,-7,-12,-8,-4,10
30217971030,21,60,-18,-8,0,-5,-28,-23
30217971030,-32,-58,-12,-23,-16,-6,24,23
30217978053,-2,-6,26,14,-3,-3,-9,-14
30217978053,6,22,-28,13,19,10,0,-10
30217994310,-6,3,3,-13,-9,-9,-16,-12
30217994310,9,14,14,13,3,3,15,19
30217995779,-14,29,-20,6,22,6,4,-11
30217995779,7,-3,5,-13,-19,-12,-5,14
30218016861,-5,-24,-5,5,-14,-9,5,13
30218016861,27,14,15,22,39,20,5,7
30218018298,-21,-3,16,0,-15,-12,-9,-19
30218018298,-11,-18,0,-11,-4,-4,-4,-13
30218031166,0,12,17,7,0,2,5,11
30218031166,-14,-3,-36,-14,-17,-13,-28,-40
30218038029,3,-5,-4,-10,0,-4,-9,-11
30218038029,7,-20,-10,-8,-9,2,43,44
30218054265,-16,-25,-23,-13,-6,-8,-10,-4
30218054265,12,26,-3,44,23,10,0,-1
30218055800,-3,-20,-2,9,13,9,1,-5
30218055800,-1,-28,31,12,2,-2,-13,-7
30218076826,-5,25,-1,4,10,5,-2,-10
30218076826,-10,-28,-23,-24,-17,-11,-12,-26
30218078329,-7,27,2,3,7,2,8,28
30218078329,2,-48,7,-16,-13,-1,-9,-15
30218091155,14,33,10,34,24,12,-9,-26
30218091155,-6,14,11,-13,-7,3,13,33
30218097982,6,0,-5,-13,-6,0,25,25
30218097982,9,21,-6,-2,-7,-4,-2,8
30218114363,-18,-19,-58,-41,-18,-7,-24,-27
30218114363,-8,-4,11,23,27,15,24,19
30218115812,-2,-10,24,1,-3,-3,-9,-16
30218115812,15,43,-10,-19,-8,-1,0,0
30218136748,5,-8,4,39,14,5,5,9
30218136748,-9,-12,2,3,14,2,-23,-25
30218138299,6,2,-3,6,3,5,18,23
30218138299,-3,0,-22,-26,-10,-6,6,9
30218151185,-7,3,0,-12,-21,-22,-11,-6
30218151185,-18,-51,23,-17,-12,-9,-7,-11
30218158003,17,22,2,8,10,7,16,13
30218158003,-4,7,-20,-1,-2,-4,-25,-51
30218174325,-4,-4,14,-15,-10,1,16,30
30218174325,28,28,-7,0,-6,-4,6,13
30218175819,-18,-38,20,19,11,6,-34,-47
30218175819,-1,23,-19,-22,-23,-13,3,11
30218196655,0,-27,6,2,7,4,2,2
30218196655,3,-1,-2,-12,-9,-5,4,9
30218198251,-14,-29,-18,13,9,1,-29,-42
30218198251,10,32,0,-26,-25,-9,9,23
30218211135,-1,7,4,15,18,11,-1,-5
30218211135,-20,19,19,-2,-14,-8,-1,20
30218217958,6,2,-1,4,4,10,-2,-29
30218217958,-5,-27,-9,-3,2,1,12,26
30218234210,7,-2,21,-3,-2,-5,-13,-27
30218234210,27,41,-13,-28,-14,-2,22,41
30218236055,-18,-29,0,29,18,4,-6,-8
30218236055,-5,6,3,20,14,9,-12,-19
30218256905,-12,-42,-30,-15,-6,1,16,14
30218256905,-5,3,9,12,3,-4,-18,-41
30218258298,17,5,-15,-32,-23,-7,33,69
30218258298,-3,-3,-8,4,4,3,-9,-20
30218270468,13,30,24,20,17,9,7,18
30218270468,-6,-7,9,7,-2,-5,-16,-22
30218279332,-21,-1,-11,7,-3,-3,-11,-22
30218279332,11,-18,-10,-11,6,7,5,5
30218294325,-5,29,-3,27,22,1,-15,-15
30218294325,7,24,-36,-57,-33,-11,12,12
30218295774,-13,10,25,22,2,-4,-1,13
30218295774,3,4,33,16,8,0,-15,-24
30218316826,-11,-17,9,12,5,3,-4,-3
30218316826,-10,-30,-14,-18,-10,-1,26,32
30218318306,15,11,15,12,15,8,14,16
30218318306,1,-7,-15,-9,-7,0,-10,-19
30218330410,0,20,-2,10,11,6,-7,-3
30218330410,-19,-46,6,3,-2,-4,-14,-23
30218339337,7,-16,6,-10,-13,-7,3,-14
30218339337,0,30,-23,3,6,1,-7,24
30218354331,6,-10,21,-26,-26,-5,13,7
30218354331,19,22,-24,19,17,4,1,22
30218355784,-22,-11,7,-12,-4,-5,-25,-27
30218355784,-7,9,8,19,4,2,-2,-28
30218376823,7,16,-11,-47,-41,-30,-36,-31
30218376823,9,2,17,37,34,25,41,43
30218378330,-16,-28,-2,-18,-11,-1,23,34
30218378330,-9,-13,-23,-13,-20,-14,1,8
30218390462,6,21,16,-18,-15,-2,4,1
30218390462,-11,-29,-12,3,5,-5,-27,-44
30218399362,17,-25,10,-10,0,3,-3,-8
30218399362,-3,31,22,12,10,7,39,55
30218414266,-1,4,12,11,5,-6,-7,-10
30218414266,-14,-14,-29,-21,-26,-14,-13,-5
30218415811,9,18,18,23,16,8,0,0
30218415811,6,-25,-17,-13,-11,-10,-14,-15
30218436682,0,-7,-19,2,2,-1,8,14
30218436682,7,35,27,-4,-2,1,-3,-4
30218438313,4,12,-22,4,2,-3,-12,-7
30218438313,-7,-14,14,2,-4,2,4,-11
30218450450,4,-5,-9,2,-1,1,5,15
30218450450,-14,-10,-9,-6,-1,-1,-1,-3
30218459356,-5,-1,0,-14,-14,-8,-4,-6
30218459356,6,3,-11,9,10,4,-10,-5
30218474341,-9,-17,9,7,1,1,7,8
30218474341,1,-5,26,3,0,2,0,0
30218475806,2,0,-37,-2,-2,-1,-2,-4
30218475806,0,0,11,5,6,0,-6,-9
30218496913,-4,-2,-12,-8,-7,-2,4,-3
30218496913,15,18,-2,2,4,0,-5,5
30218498277,-3,3,3,-4,-3,-3,-9,-6
30218498277,-14,-6,-5,-8,-3,-3,1,-10
30218510443,-3,-19,3,2,0,-1,3,0
30218510443,-3,-1,-2,9,8,4,-1,-10
30218519311,-6,1,-17,-7,-9,-6,-7,0
30218519311,2,-2,2,0,0,-1,1,11
30218534237,-1,-4,10,1,-2,2,1,-9
30218534237,-5,1,-9,-1,1,1,2,-3
30218535767,0,7,-8,-5,-5,-4,0,0
30218535767,-4,-4,3,10,3,-3,-12,-9
30218556801,4,8,-5,-8,-1,-2,-2,9
30218556801,1,2,-4,-7,-5,0,8,3
30218558307,3,9,20,-1,-2,-1,2,0
30218558307,-2,-4,1,2,1,-2,-3,-8
30218570484,-3,-9,3,7,3,-1,-2,-1
30218570484,9,22,3,1,-1,-5,-10,-4
30218579332,-7,-14,-3,0,-3,0,7,-1
30218579332,-4,-4,2,7,5,3,-3,-2
30218594261,2,-4,-27,-20,-11,1,2,2
30218594261,-3,-4,7,-11,-7,0,-3,-2
30218595800,9,13,7,5,-1,-1,-1,1
30218595800,-4,0,-4,6,6,2,0,0
30218616834,-4,-6,11,10,3,0,-4,-17
30218616834,-6,-12,-25,-8,-6,-8,-2,7
30218618303,4,20,19,-2,-3,1,10,7
30218618303,-1,-20,-18,-10,-5,0,2,5
30218630399,-2,8,9,8,5,-3,-1,8
30218630399,-4,-4,-7,0,-2,-4,-10,-11
30218639340,-4,6,11,31,15,1,-12,-13
30218639340,-9,-20,-15,-37,-22,-4,3,-1
30218654303,24,13,8,0,-1,4,13,16
30218654303,-7,-3,9,7,1,1,0,-2
30218655797,8,1,-23,-13,-4,-3,0,5
30218655797,-2,3,10,6,5,0,-4,-9
30218676826,-19,-10,-10,-3,-3,-3,-3,-11
30218676826,15,0,-10,1,2,1,1,17
30218678364,2,2,24,4,-2,-2,0,-4
30218678364,-2,6,-3,4,4,1,-3,-9
30218690364,-2,-3,-1,-15,-12,-6,-7,1
30218690364,-12,-3,13,19,10,4,-1,-4
30218699298,-5,-15,-23,-22,-8,-4,1,-2
30218699298,7,1,2,3,0,0,1,6
30218714228,-1,5,-2,-2,2,1,2,5
30218714228,-6,-2,-2,-4,-8,-5,-5,-16
30218715809,-7,-19,-28,-9,-3,-4,-4,3
30218715809,2,10,7,4,4,1,2,-3
30218738144,3,-5,-2,4,3,1,-1,8
30218738144,-5,2,31,2,0,-1,2,-4
30218739734,3,8,2,8,1,1,-1,0
30218739734,7,4,-21,-17,-7,-3,-4,1
30218750327,-5,-1,6,14,9,1,-2,-4
30218750327,-5,-9,-15,-9,-6,-3,-5,1
30218759328,19,-1,1,-2,-3,-1,2,4
30218759328,-4,14,2,11,3,3,0,-4
30218774183,-1,-21,-24,1,1,-2,0,3
30218774183,-5,-4,1,-9,-6,-1,4,-3
30218775781,-18,15,2,3,3,-2,-7,-9
30218775781,-2,-12,-5,-5,-1,2,5,1
30218796809,-4,2,5,-1,-1,2,0,-1
30218796809,-1,-7,-3,-2,3,-1,-2,1
30218798284,2,3,10,-1,-1,1,0,-3
30218798284,2,-1,9,-1,-3,-3,-2,2
30218810502,1,2,-3,-6,-6,-6,-2,-2
30218810502,4,-1,0,5,3,0,1,-1
30218819310,-4,1,-8,-7,-4,-1,-1,-2
30218819310,-1,6,6,2,-1,-5,-4,0
30218833619,-4,0,7,-1,1,2,3,-1
30218833619,2,0,-3,-4,1,0,0,1
30218840607,-3,-1,-7,-2,-1,-2,0,0
30218840607,-9,-12,-16,-8,-6,-4,-5,-9
30218856769,10,9,19,1,-3,-5,0,8
30218856769,-8,5,7,-1,-1,1,-1,-12
30218858248,14,-2,-11,-10,-3,0,3,15
30218858248,-9,-10,16,15,5,1,-3,-4
30218879260,-6,-1,-11,-3,-2,-3,-3,-8
30218879260,3,2,-4,-3,-5,-3,-1,0
30218880814,-2,1,14,2,-1,0,-5,0
30218880814,4,3,-19,-3,-2,-1,3,-4
30218893628,1,-8,-3,7,2,2,0,2
30218893628,-7,-2,2,-8,-3,-1,0,-3
30218900496,-9,-11,-6,-1,0,-2,-3,-5
30218900496,15,10,17,3,3,0,0,6
30218916774,-8,-7,-20,-12,-4,0,-2,-6
30218916774,6,3,9,10,1,0,-3,1
30218918299,-5,-3,-20,-5,-4,0,0,-6
30218918299,-7,-13,-9,-5,-3,-2,-2,-3
30218939336,3,3,5,8,4,3,4,10
30218939336,5,5,5,3,2,1,-1,-7
30218940806,-7,-10,6,-3,-1,-2,-2,-6
30218940806,-5,1,1,1,0,-3,-1,-3
30218953631,-3,-2,-2,-6,-3,-2,-1,-8
30218953631,-2,-5,5,1,0,0,0,8
30218960423,1,5,7,5,2,3,-1,2
30218960423,0,-2,-12,-5,-6,-3,-4,-1
30218976800,-5,4,12,4,2,0,-1,-2
30218976800,0,-3,-18,-7,-2,-1,2,4
30218978279,0,-2,6,7,-2,-1,1,-6
30218978279,0,1,-2,2,0,-1,-3,-1
30218999275,2,4,3,0,-1,-2,1,1
30218999275,-8,-5,-13,2,1,-2,0,-5
30219000818,-1,0,-11,-12,-2,0,0,1
30219000818,-1,-4,11,-2,-4,-3,0,0
30219013653,-6,-2,-1,0,-3,-3,-3,-5
30219013653,11,-3,6,2,-1,-1,-1,4
30219020429,-8,-6,-11,-8,-3,-2,-3,-5
30219020429,8,-3,-4,-6,0,1,0,3
30219036792,-12,3,10,7,3,1,1,-4
30219036792,-3,-5,-5,-6,-4,-2,-2,1
30219038308,3,0,-5,7,2,0,0,0
30219038308,2,-2,3,-8,-6,-4,0,-2
30219059193,3,-2,-11,-5,-1,-2,-2,-5
30219059193,0,6,12,2,2,-2,-1,-1
30219060804,-3,-2,1,-1,-2,-2,-1,0
30219060804,-3,2,2,5,3,0,0,3
30219073674,2,-1,0,3,1,1,0,-1
30219073674,-4,-2,-12,-2,-2,-1,-1,-3
30219080480,0,1,10,-3,-6,-2,-3,2
30219080480,-1,6,21,14,7,2,-2,-1
30219096859,6,1,0,-3,-2,-1,-1,-1
30219096859,-7,-13,-16,-11,-5,-2,-2,-5
30219098293,1,-3,-7,0,1,-1,0,1
30219098293,2,3,7,-4,-9,-4,-2,0
30219119405,3,0,-4,3,1,1,-2,4
30219119405,4,3,11,12,10,8,4,4
30219120774,-6,-1,0,-2,-3,-4,-3,-9
30219120774,-4,0,-3,-1,1,-1,1,2
30219132938,5,-4,-5,-11,-6,-5,-1,-1
30219132938,-10,-7,-5,-5,-9,-7,-3,-7
30219148000,0,-1,-3,1,4,4,4,2
30219148000,0,6,14,3,1,-1,-3,0
30219156835,-3,1,-10,-6,-4,-3,-2,0
30219156835,-2,2,1,3,-1,-1,-1,-2
30219158276,-1,-1,-6,-10,-7,-4,-2,0
30219158276,-5,-1,1,2,1,2,0,-2
30219179245,-2,-6,-1,-3,-2,-2,0,0
30219179245,1,3,1,0,1,-2,-2,-2
30219180822,0,-2,4,3,0,-1,-4,-1
30219180822,1,-4,-11,-4,0,1,-2,-2
30219192820,8,-2,-6,-1,-1,1,2,6
30219192820,-7,1,-8,3,4,1,0,-6
30219201913,-3,0,9,0,-2,-3,-1,-2
30219201913,-1,-3,18,-3,-2,-1,2,-2
30219216757,1,-1,-1,5,-2,-2,-4,-2
30219216757,2,3,-10,-8,-4,-3,-1,-2
30219218325,6,2,-3,2,1,2,2,7
30219218325,-5,-4,-2,-5,-7,-5,-2,-3
30219239270,-5,-2,1,1,-1,-2,-1,-6
30219239270,0,-1,1,-4,-3,-4,-3,2
30219240773,-3,-1,-1,-3,3,2,0,-4
30219240773,2,-2,-2,4,-1,1,-2,-1
30219252849,-2,-2,1,-2,1,2,-1,-3
30219252849,0,-1,-1,-4,-4,-4,-4,-1
30219261915,1,-3,1,3,5,0,-1,0
30219261915,-1,3,-10,0,1,-1,1,1
30219276792,-7,-5,-4,-2,-2,-1,-4,-4
30219276792,-1,-6,-2,-5,-3,-4,-2,0
30219278295,4,9,-2,2,4,5,2,1
30219278295,-3,4,0,-3,-4,-4,-1,-4
30219299334,-2,-6,0,6,3,1,1,5
30219299334,-3,-1,5,2,-2,0,-1,0
30219300779,3,-7,-16,-4,-3,-1,1,-4
30219300779,-5,-8,10,2,1,-1,-2,-5
30219312899,3,0,0,-2,-1,-3,-1,0
30219312899,-1,-4,5,3,0,0,2,0
30219321784,-2,-3,-10,-4,-1,-2,-1,9
30219321784,2,1,-4,3,2,3,-2,-11
30219336779,-3,4,9,2,-1,-2,-2,-6
30219336779,6,1,-2,-2,0,0,1,3
30219338257,-3,5,4,3,-2,-3,-2,-3
30219338257,-1,-3,-13,-7,-3,-2,1,4
30219358574,-3,3,2,1,1,0,0,-3
30219358574,5,0,-7,-5,-3,-1,-2,-2
30219359293,6,-4,7,-3,-2,1,0,-1
30219359293,1,8,-4,-2,-4,-2,0,1
30219381197,-4,-4,-10,-2,0,1,-1,-4
30219381197,-1,2,-3,-1,1,1,-2,0
30219381763,-1,2,12,3,-1,-5,-4,-2
30219381763,-1,-9,-18,-11,-2,-2,-2,2
30219396143,-3,1,0,-2,-2,-1,1,-2
30219396143,3,3,10,6,2,3,1,2
30219396790,-6,-5,-2,-6,-2,-2,-1,-2
30219396790,-1,0,-7,1,2,1,1,0
30219418592,2,2,-1,-5,-2,-1,-1,3
30219418592,-2,-5,-6,-2,-2,-4,-3,-3
30219419294,-4,2,2,1,0,1,-2,-2
30219419294,-2,-3,-2,1,0,1,2,0
30219441093,-2,-2,-1,0,-2,-2,0,2
30219441093,-1,0,6,0,0,1,0,0
30219441776,-6,-3,-7,0,-3,-1,-1,-3
30219441776,0,-5,0,2,-2,-2,-3,-1
30219456064,1,0,-3,-4,-1,-2,-2,0
30219456064,-3,2,6,1,0,0,1,-1
30219456776,-4,-1,0,-1,-4,-3,-3,-3
30219456776,1,1,-11,-7,-4,-5,-3,1
30219478679,-3,-4,-6,-7,-6,-4,-3,-4
30219478679,0,3,4,4,9,7,2,1
30219479272,3,0,4,2,2,0,1,1
30219479272,4,9,18,8,2,1,1,-1
30219500987,-5,-16,-20,-9,-4,-3,-2,-2
30219500987,-5,-6,6,0,-5,-1,-3,-5
30219501756,1,-5,-7,-3,-2,-3,0,0
30219501756,-1,-4,-2,-6,-2,-1,2,-1
30219516092,3,2,0,-1,-4,-2,0,2
30219516092,2,6,0,4,1,-1,-1,0
30219516772,0,-1,11,9,6,4,1,-3
30219516772,-3,-2,-4,-2,-1,-1,-1,0
30219538661,1,1,-2,-2,0,1,1,-1
30219538661,0,-1,-4,-8,-4,-6,-4,0
30219539264,-1,-8,-4,-4,-5,-4,-5,-2
30219539264,-2,-6,-6,-1,2,1,-2,-2
30219561803,-3,-4,13,9,-2,0,1,1
30219561803,-6,-4,0,2,4,2,0,-2
30219562477,-3,11,-6,-3,0,-3,0,0
30219562477,-7,-9,-10,-11,-7,-6,-4,-5
30219576036,2,12,9,5,4,3,-1,-1
30219576036,0,-2,-14,-14,-7,-3,0,0
30219576744,2,1,-5,-6,-8,-2,-4,-1
30219576744,-4,-10,21,29,16,7,2,-1
30219598651,-2,0,-2,-8,1,1,-1,-1
30219598651,1,0,-9,-6,-1,-1,0,-1
30219599283,-8,-6,3,2,2,3,0,-3
30219599283,1,10,0,-9,-6,-3,-4,-1
30219621764,-6,-4,-4,5,3,1,2,0
30219621764,-3,0,4,2,-3,-2,-3,1
30219622448,-3,-7,1,0,-1,-1,0,0
30219622448,-1,4,-1,-2,-3,-2,-1,0
30219636093,-2,3,-2,-4,-1,-2,-1,0
30219636093,-1,0,-9,-7,-2,-2,-1,-1
30219636790,-3,-9,-1,-1,-2,-3,0,-1
30219636790,4,5,10,10,3,1,0,1
30219658627,2,1,10,0,-3,-4,-3,-2
30219658627,-3,-8,-7,1,-2,1,3,-2
30219659270,3,4,-1,-1,1,3,2,0
30219659270,-2,-5,-14,-14,-2,0,-1,-1
30219681937,7,2,5,3,-2,-1,1,-2
30219681937,1,0,5,6,0,-3,-4,-2
30219682469,-2,-4,-3,-6,-4,-2,-3,-1
30219682469,2,1,6,0,0,1,1,0
30219695977,0,0,-11,-4,-2,0,-1,0
30219695977,-4,-7,-10,-5,-3,-3,-4,-1
30219696716,1,5,5,1,0,-1,-1,-1
30219696716,-3,-1,4,10,3,1,-1,0
30219718664,-2,0,-6,-1,-3,-1,-1,-1
30219718664,1,4,3,2,-1,-1,-2,-2
30219719226,-4,2,3,0,-3,-1,0,-1
30219719226,-6,-11,-19,-6,-1,-1,-1,-2
30219741775,-2,1,8,1,3,0,-1,0
30219741775,-1,1,3,1,-2,3,4,1
30219742438,0,-2,-3,9,4,3,1,2
30219742438,-1,2,-11,-15,-8,-4,-2,-2
30219756179,-3,0,20,3,-2,-4,-3,-5
30219756179,3,12,-11,-11,-3,-1,-5,-1
30219756761,-7,-15,-1,-4,-3,-2,-2,-3
30219756761,2,1,7,3,0,1,-3,-2
30219778628,-3,-4,-16,-2,-1,-2,-1,-2
30219778628,2,0,8,-2,-2,-2,-3,1
30219779263,0,-3,-16,-5,2,0,-2,-1
30219779263,2,4,12,1,-6,-8,-8,-3
30219801103,-1,4,-11,-5,-3,3,5,2
30219801103,7,3,16,8,5,5,16,1
30219801766,3,-8,-17,-4,-2,0,2,4
30219801766,-6,-11,3,3,5,3,1,-2
30219816121,6,3,7,0,1,-2,-4,1
30219816121,-7,-12,-24,-2,-3,-2,-4,-3
30219816772,7,3,15,-2,-2,-1,-1,3
30219816772,-1,13,9,0,-2,-8,-16,-13
30219838569,-2,7,6,-5,-2,-1,1,15
30219838569,0,-17,-7,3,3,4,12,2
30219839269,1,11,10,-6,-5,-6,-7,-4
30219839269,21,-4,-17,-1,0,2,4,16
30219861888,-5,-2,-2,3,-1,-3,-5,-8
30219861888,-14,-16,-10,-4,-4,-7,-19,-10
30219862442,3,4,-1,7,-2,0,7,11
30219862442,-14,-3,22,3,1,0,1,-7
30219876088,-2,-12,-10,-5,-2,-1,-2,-7
30219876088,-5,3,4,-1,-2,-3,-6,1
30219876747,14,-1,-2,-1,0,3,7,6
30219876747,-3,1,-5,-2,-3,1,7,1
30219899239,-6,-19,-19,-7,-1,0,5,1
30219899239,-2,17,25,-1,-3,-1,-3,-5
30219899945,-13,-1,18,7,4,-1,-3,-8
30219899945,-1,1,-22,-4,-1,0,-3,-4
30219921876,5,2,-6,-2,-3,-2,1,1
30219921876,3,-13,-8,-3,-2,-3,-3,9
30219922429,-7,0,-3,-5,-2,-1,-4,-15
30219922429,16,1,-9,0,-2,2,3,3
30219936063,-4,-2,19,4,2,-2,-9,-14
30219936063,-4,6,3,2,-3,-2,-2,-3
30219936759,17,5,-2,-5,-2,0,3,6
30219936759,-6,-2,-10,-6,-3,-5,-4,-3
30219958602,-3,5,1,1,2,-1,4,-2
30219958602,1,-6,-1,3,2,-2,4,0
30219959269,-8,3,0,0,1,-1,-1,-6
30219959269,-2,0,3,-3,-1,0,-1,-1
30219982182,8,1,-8,-2,-2,1,0,2
30219982182,3,7,4,0,0,0,1,-6
30219982939,-6,-5,-9,-3,-2,-2,-5,1
30219982939,-1,-4,-9,-5,-2,0,0,3
