30017214125,-0.270629882812,-0.0333862304688,-0.197570800781,0.941589355469
30017228917,-0.270629882812,-0.0333862304688,-0.197570800781,0.941589355469
30017252766,-0.2705078125,-0.0309448242188,-0.197448730469,0.941711425781
30017273974,-0.27197265625,-0.0230712890625,-0.195251464844,0.941955566406
30017289025,-0.272277832031,-0.0218505859375,-0.194885253906,0.942016601562
30017312775,-0.272888183594,-0.02001953125,-0.1943359375,0.941955566406
30017334066,-0.274597167969,-0.0188598632812,-0.193786621094,0.941650390625
30017349083,-0.272766113281,-0.0259399414062,-0.195861816406,0.941589355469
30017403065,-0.270874023438,-0.0296020507812,-0.196899414062,0.941772460938
30017411648,-0.272705078125,-0.0237426757812,-0.195068359375,0.941833496094
30017418968,-0.273376464844,-0.0223999023438,-0.194641113281,0.941711425781
30017435486,-0.272888183594,-0.026611328125,-0.195861816406,0.941528320312
30017455393,-0.273193359375,-0.0225219726562,-0.195190429688,0.941650390625
30017484795,-0.272521972656,-0.0222778320312,-0.195007324219,0.94189453125
30017528946,-0.272216796875,-0.0225219726562,-0.194885253906,0.942016601562
30017539052,-0.272216796875,-0.0225219726562,-0.194946289062,0.942016601562
30017539714,-0.272216796875,-0.0226440429688,-0.194946289062,0.942016601562
30017552718,-0.272277832031,-0.022705078125,-0.194946289062,0.941955566406
30017573871,-0.273071289062,-0.0166625976562,-0.193603515625,0.942138671875
30017590170,-0.270202636719,-0.0231323242188,-0.195739746094,0.9423828125
30017614132,-0.267700195312,-0.0260620117188,-0.196899414062,0.942810058594
30017633817,-0.268310546875,-0.0206298828125,-0.195617675781,0.943054199219
30017651657,-0.2705078125,-0.0144653320312,-0.19384765625,0.94287109375
30017674217,-0.269836425781,-0.017822265625,-0.194885253906,0.942810058594
30017693874,-0.2666015625,-0.0248413085938,-0.197204589844,0.943054199219
30017711621,-0.265869140625,-0.0225830078125,-0.19677734375,0.943420410156
30017734144,-0.268005371094,-0.0151977539062,-0.194763183594,0.943420410156
30017753861,-0.268493652344,-0.0112915039062,-0.193725585938,0.943542480469
30017771644,-0.268798828125,-0.0114135742188,-0.194030761719,0.943359375
30017794155,-0.268310546875,-0.011474609375,-0.194091796875,0.943481445312
30017813863,-0.268127441406,-0.011474609375,-0.194091796875,0.943542480469
30017831639,-0.268005371094,-0.01123046875,-0.194091796875,0.943603515625
30017854159,-0.267944335938,-0.0108032226562,-0.194152832031,0.943603515625
30017873817,-0.267883300781,-0.00994873046875,-0.194152832031,0.943603515625
30017891650,-0.267578125,-0.00885009765625,-0.193969726562,0.943786621094
30017914171,-0.267395019531,-0.0074462890625,-0.193542480469,0.943908691406
30017934522,-0.267944335938,-0.0054931640625,-0.192687988281,0.943908691406
30017950962,-0.269775390625,-0.00323486328125,-0.191772460938,0.943603515625
30017973392,-0.272827148438,-0.000732421875,-0.190795898438,0.942932128906
30017994432,-0.276123046875,0.001708984375,-0.189880371094,0.942138671875
30018010918,-0.279418945312,0.0045166015625,-0.189086914062,0.941345214844
30018033384,-0.282470703125,0.00750732421875,-0.188659667969,0.940490722656
30018054507,-0.285583496094,0.010498046875,-0.18798828125,0.939697265625
30018070969,-0.288513183594,0.0134887695312,-0.186950683594,0.93896484375
30018093344,-0.291564941406,0.0164794921875,-0.185913085938,0.938171386719
30018114492,-0.294799804688,0.0197143554688,-0.185119628906,0.937255859375
30018130829,-0.298522949219,0.0237426757812,-0.184204101562,0.936157226562
30018153334,-0.302978515625,0.0286254882812,-0.182800292969,0.934875488281
30018174548,-0.307983398438,0.0343627929688,-0.180969238281,0.933410644531
30018190924,-0.313110351562,0.0409545898438,-0.178771972656,0.931823730469
30018213369,-0.318237304688,0.0482788085938,-0.176147460938,0.930236816406
30018234553,-0.323425292969,0.0559692382812,-0.173217773438,0.928588867188
30018250919,-0.327819824219,0.0640258789062,-0.170104980469,0.927062988281
30018273313,-0.330627441406,0.0718383789062,-0.166748046875,0.926086425781
30018294541,-0.333190917969,0.0802612304688,-0.162170410156,0.92529296875
30018310920,-0.3349609375,0.0889282226562,-0.157653808594,0.924682617188
30018333348,-0.336242675781,0.0974731445312,-0.153930664062,0.923950195312
30018354527,-0.336242675781,0.106140136719,-0.149597167969,0.923706054688
30018370226,-0.335632324219,0.114807128906,-0.144775390625,0.923645019531
30018393372,-0.334777832031,0.12353515625,-0.140991210938,0.923461914062
30018415972,-0.335144042969,0.132629394531,-0.136291503906,0.922729492188
30018430171,-0.337097167969,0.141052246094,-0.131042480469,0.921569824219
30018453334,-0.339904785156,0.149230957031,-0.124938964844,0.920104980469
30018475929,-0.34228515625,0.156860351562,-0.118591308594,0.918762207031
30018490164,-0.344177246094,0.1640625,-0.112487792969,0.917602539062
30018519499,-0.34521484375,0.171020507812,-0.106323242188,0.916625976562
30018535862,-0.345336914062,0.177612304688,-0.100280761719,0.916015625
30018558344,-0.345336914062,0.18408203125,-0.094482421875,0.915344238281
30018579542,-0.346496582031,0.190551757812,-0.088623046875,0.914184570312
30018595828,-0.348388671875,0.196899414062,-0.08251953125,0.912719726562
30018618330,-0.351135253906,0.203002929688,-0.0765991210938,0.910827636719
30018639619,-0.35498046875,0.209045410156,-0.0709228515625,0.908447265625
30018655923,-0.358581542969,0.214721679688,-0.0654907226562,0.906066894531
30018678320,-0.361511230469,0.220153808594,-0.0599975585938,0.903991699219
30018699515,-0.362426757812,0.225219726562,-0.054443359375,0.902709960938
30018715930,-0.361572265625,0.229614257812,-0.0491333007812,0.902282714844
30018738322,-0.361267089844,0.234069824219,-0.0433959960938,0.901550292969
30018759489,-0.360107421875,0.23779296875,-0.0370483398438,0.901306152344
30018775944,-0.358581542969,0.240905761719,-0.0311279296875,0.901306152344
30018798342,-0.359191894531,0.243286132812,-0.0250244140625,0.900634765625
30018819478,-0.358947753906,0.245056152344,-0.0186767578125,0.900390625
30018835167,-0.357543945312,0.246520996094,-0.0130615234375,0.900634765625
30018858326,-0.356506347656,0.247802734375,-0.0078125,0.900756835938
30018879599,-0.355285644531,0.248413085938,-0.002685546875,0.901123046875
30018895261,-0.353393554688,0.249145507812,0.00250244140625,0.901672363281
30018918347,-0.352600097656,0.250122070312,0.00775146484375,0.901672363281
30018940786,-0.352172851562,0.251098632812,0.0128173828125,0.901489257812
30018955142,-0.35205078125,0.252258300781,0.0177612304688,0.901123046875
30018978336,-0.352355957031,0.253356933594,0.022705078125,0.900573730469
30019000807,-0.352783203125,0.254821777344,0.0281982421875,0.89990234375
30019022098,-0.353271484375,0.256774902344,0.0337524414062,0.89892578125
30019038326,-0.353881835938,0.258911132812,0.0391235351562,0.897827148438
30019060964,-0.354675292969,0.260681152344,0.0443725585938,0.896789550781
30019075168,-0.356140136719,0.26220703125,0.0496215820312,0.8955078125
30019098313,-0.357666015625,0.263610839844,0.0549926757812,0.894165039062
30019120879,-0.358276367188,0.264770507812,0.0594482421875,0.893249511719
30019135167,-0.358154296875,0.265502929688,0.0635986328125,0.892822265625
30019158297,-0.3583984375,0.266357421875,0.0682373046875,0.89208984375
30019180922,-0.358764648438,0.267456054688,0.072998046875,0.891296386719
30019201978,-0.359069824219,0.268676757812,0.0771484375,0.890441894531
30019218344,-0.359252929688,0.269836425781,0.0806884765625,0.889709472656
30019240818,-0.359497070312,0.271118164062,0.083984375,0.888916015625
30019262050,-0.360290527344,0.272705078125,0.0872192382812,0.887756347656
30019278333,-0.360717773438,0.273986816406,0.090087890625,0.886901855469
30019300819,-0.360534667969,0.274963378906,0.0925903320312,0.886474609375
30019322072,-0.360778808594,0.27587890625,0.0951538085938,0.885803222656
30019338319,-0.361145019531,0.2763671875,0.0977783203125,0.885192871094
30019360982,-0.361328125,0.276611328125,0.0996704101562,0.884826660156
30019375174,-0.361572265625,0.276977539062,0.100952148438,0.884460449219
30019398357,-0.361755371094,0.27734375,0.10205078125,0.884155273438
30019427077,-0.361755371094,0.277709960938,0.103088378906,0.883911132812
30019441947,-0.361755371094,0.277954101562,0.104187011719,0.883728027344
30019458338,-0.361206054688,0.278198242188,0.105102539062,0.883728027344
30019480820,-0.361206054688,0.278686523438,0.105651855469,0.883544921875
30019501850,-0.362182617188,0.278991699219,0.106323242188,0.882995605469
30019518304,-0.362915039062,0.279418945312,0.106811523438,0.882446289062
30019540805,-0.362854003906,0.280212402344,0.107177734375,0.882202148438
30019561995,-0.3623046875,0.281372070312,0.107238769531,0.882019042969
30019578336,-0.362548828125,0.282165527344,0.107299804688,0.881652832031
30019600922,-0.362915039062,0.283142089844,0.106811523438,0.881286621094
30019621913,-0.362976074219,0.284423828125,0.105895996094,0.880981445312
30019638330,-0.363708496094,0.285034179688,0.10546875,0.880493164062
30019660798,-0.365478515625,0.28515625,0.106201171875,0.879638671875
30019682145,-0.3671875,0.284912109375,0.107604980469,0.878845214844
30019698377,-0.368469238281,0.284851074219,0.108642578125,0.878173828125
30019720842,-0.369018554688,0.284973144531,0.109375,0.877868652344
30019742010,-0.369140625,0.284790039062,0.110290527344,0.877746582031
30019758296,-0.369995117188,0.284057617188,0.111511230469,0.87744140625
30019780837,-0.370422363281,0.283081054688,0.112548828125,0.87744140625
30019801875,-0.370727539062,0.282531738281,0.112976074219,0.87744140625
30019818300,-0.371154785156,0.281982421875,0.113159179688,0.87744140625
30019840927,-0.371520996094,0.281311035156,0.11328125,0.87744140625
30019863287,-0.372009277344,0.280578613281,0.113891601562,0.877380371094
30019878295,-0.373046875,0.279907226562,0.114379882812,0.877136230469
30019900841,-0.37353515625,0.279357910156,0.114685058594,0.877014160156
30019923324,-0.373291015625,0.278930664062,0.114868164062,0.877258300781
30019938294,-0.373840332031,0.278137207031,0.115356445312,0.877197265625
30019960834,-0.375366210938,0.27734375,0.11572265625,0.876770019531
30019983349,-0.376098632812,0.276611328125,0.115844726562,0.876647949219
30019998370,-0.376098632812,0.276245117188,0.11572265625,0.876831054688
30020020829,-0.376342773438,0.27587890625,0.115356445312,0.876892089844
30020043345,-0.377197265625,0.275451660156,0.115234375,0.876647949219
30020057677,-0.378540039062,0.275085449219,0.115234375,0.876159667969
30020080825,-0.379272460938,0.274963378906,0.114929199219,0.8759765625
30020103283,-0.379455566406,0.274841308594,0.114440917969,0.8759765625
30020117685,-0.379516601562,0.274597167969,0.113952636719,0.876098632812
30020140923,-0.380126953125,0.274169921875,0.113708496094,0.8759765625
30020163313,-0.380493164062,0.273498535156,0.113220214844,0.876098632812
30020177648,-0.380859375,0.27294921875,0.112670898438,0.876159667969
30020200783,-0.381408691406,0.272583007812,0.111938476562,0.876159667969
30020223314,-0.381774902344,0.272216796875,0.111389160156,0.876159667969
30020237649,-0.382202148438,0.271911621094,0.110961914062,0.876159667969
30020261292,-0.382385253906,0.271789550781,0.110412597656,0.876159667969
30020283315,-0.382934570312,0.271850585938,0.109741210938,0.8759765625
30020297744,-0.3837890625,0.27197265625,0.109191894531,0.875671386719
30020320850,-0.384033203125,0.272216796875,0.108764648438,0.87548828125
30020343375,-0.38427734375,0.2724609375,0.108337402344,0.875366210938
30020357680,-0.384643554688,0.272521972656,0.10791015625,0.875244140625
30020380820,-0.385009765625,0.272399902344,0.107604980469,0.875183105469
30020403348,-0.385314941406,0.272216796875,0.107177734375,0.875122070312
30020408801,-0.385437011719,0.272033691406,0.106506347656,0.875244140625
30020426662,-0.385070800781,0.271728515625,0.106018066406,0.875549316406
30020446324,-0.385070800781,0.271423339844,0.105529785156,0.875671386719
30020468963,-0.385620117188,0.271179199219,0.104736328125,0.875610351562
30020486622,-0.386169433594,0.271057128906,0.103698730469,0.875549316406
30020506273,-0.386657714844,0.27099609375,0.1025390625,0.87548828125
30020536263,-0.387451171875,0.270446777344,0.101928710938,0.875366210938
30020546638,-0.388671875,0.269592285156,0.101989746094,0.875122070312
30020566432,-0.3896484375,0.268615722656,0.102233886719,0.874938964844
30020588771,-0.389099121094,0.267700195312,0.101501464844,0.875549316406
30020605147,-0.388305664062,0.266418457031,0.10009765625,0.87646484375
30020626273,-0.388488769531,0.264465332031,0.0986938476562,0.877136230469
30020648865,-0.389221191406,0.262145996094,0.09716796875,0.877685546875
30020671261,-0.389892578125,0.259826660156,0.0947875976562,0.878295898438
30020686300,-0.390380859375,0.257629394531,0.0916137695312,0.879089355469
30020708899,-0.390319824219,0.255737304688,0.087890625,0.880065917969
30020731252,-0.390075683594,0.253845214844,0.0834350585938,0.881103515625
30020746242,-0.389526367188,0.252014160156,0.078125,0.882385253906
30020768869,-0.389221191406,0.250305175781,0.072998046875,0.883483886719
30020786635,-0.389892578125,0.248291015625,0.0679321289062,0.884155273438
30020806345,-0.391418457031,0.246154785156,0.0625,0.884460449219
30020828829,-0.392211914062,0.244201660156,0.0565795898438,0.885070800781
30020846626,-0.392517089844,0.242248535156,0.0502319335938,0.885803222656
30020866303,-0.392822265625,0.240234375,0.0439453125,0.886596679688
30020888750,-0.393798828125,0.238159179688,0.0379638671875,0.886962890625
30020906583,-0.393310546875,0.23583984375,0.0315551757812,0.888061523438
30020926320,-0.39111328125,0.2333984375,0.02490234375,0.889892578125
30020948897,-0.389709472656,0.230590820312,0.0189819335938,0.891357421875
30020966601,-0.390075683594,0.227600097656,0.0133666992188,0.89208984375
30020986272,-0.391540527344,0.224548339844,0.00714111328125,0.892272949219
30021008934,-0.391906738281,0.221008300781,-0.00018310546875,0.89306640625
30021026601,-0.391296386719,0.217224121094,-0.0076904296875,0.894165039062
30021046369,-0.391174316406,0.213439941406,-0.0147094726562,0.895080566406
30021068820,-0.392150878906,0.209594726562,-0.0215454101562,0.895446777344
30021094104,-0.392883300781,0.205505371094,-0.0293579101562,0.895812988281
30021106316,-0.391723632812,0.200744628906,-0.0380859375,0.897094726562
30021128805,-0.39013671875,0.195678710938,-0.0465087890625,0.898498535156
30021146587,-0.389587402344,0.190612792969,-0.0545043945312,0.899353027344
30021166314,-0.389099121094,0.185180664062,-0.0626831054688,0.900207519531
30021188822,-0.388061523438,0.179260253906,-0.0709838867188,0.901184082031
30021206610,-0.386962890625,0.173095703125,-0.0787963867188,0.902282714844
30021226328,-0.38720703125,0.166809082031,-0.0859375,0.902648925781
30021248829,-0.388122558594,0.160827636719,-0.0927124023438,0.902709960938
30021266578,-0.38720703125,0.154235839844,-0.099853515625,0.903503417969
30021286301,-0.383544921875,0.147094726562,-0.107177734375,0.905395507812
30021308828,-0.378479003906,0.139770507812,-0.114135742188,0.907836914062
30021326659,-0.373107910156,0.132202148438,-0.121032714844,0.910278320312
30021346296,-0.368835449219,0.124572753906,-0.127624511719,0.912231445312
30021370142,-0.365051269531,0.116943359375,-0.133056640625,0.913940429688
30021386565,-0.361755371094,0.109497070312,-0.13720703125,0.915588378906
30021407625,-0.357788085938,0.102111816406,-0.14111328125,0.917419433594
30021428739,-0.352172851562,0.0945434570312,-0.145263671875,0.919738769531
30021446590,-0.345581054688,0.0869750976562,-0.149597167969,0.922302246094
30021467667,-0.338195800781,0.0795288085938,-0.153930664062,0.924987792969
30021488867,-0.329956054688,0.0718994140625,-0.158081054688,0.927856445312
30021506625,-0.323181152344,0.0643920898438,-0.162109375,0.930114746094
30021527617,-0.317687988281,0.056640625,-0.165710449219,0.931884765625
30021548799,-0.312683105469,0.0488891601562,-0.168823242188,0.933471679688
30021566560,-0.310241699219,0.0419311523438,-0.171875,0.934020996094
30021587666,-0.31005859375,0.03564453125,-0.174926757812,0.933776855469
30021608845,-0.311340332031,0.03076171875,-0.176940917969,0.933166503906
30021626632,-0.304931640625,0.0238647460938,-0.18017578125,0.934875488281
30021647647,-0.297729492188,0.0181884765625,-0.182434082031,0.936889648438
30021668892,-0.293090820312,0.013427734375,-0.18408203125,0.938110351562
30021686567,-0.291259765625,0.00994873046875,-0.184753417969,0.938537597656
30021707667,-0.291259765625,0.00701904296875,-0.185241699219,0.9384765625
30021728807,-0.292419433594,0.0042724609375,-0.186218261719,0.93798828125
30021746617,-0.292541503906,0.0009765625,-0.187622070312,0.937622070312
30021769098,-0.292053222656,-0.0018310546875,-0.189147949219,0.9375
30021788888,-0.291320800781,-0.0042724609375,-0.190673828125,0.937438964844
30021806643,-0.291015625,-0.00634765625,-0.191650390625,0.937316894531
30021829101,-0.290649414062,-0.00811767578125,-0.1923828125,0.937255859375
30021848805,-0.289306640625,-0.00994873046875,-0.192687988281,0.937561035156
30021866557,-0.286987304688,-0.0120239257812,-0.193054199219,0.938171386719
30021889087,-0.284240722656,-0.0142211914062,-0.193908691406,0.938842773438
30021908907,-0.282287597656,-0.0162353515625,-0.194946289062,0.939147949219
30021926579,-0.280944824219,-0.0180053710938,-0.195434570312,0.939453125
30021949141,-0.279724121094,-0.0192260742188,-0.195434570312,0.939758300781
30021968922,-0.278930664062,-0.0195922851562,-0.195129394531,0.940063476562
30021986583,-0.278442382812,-0.0194702148438,-0.19482421875,0.940246582031
30022008267,-0.277160644531,-0.019287109375,-0.194885253906,0.940612792969
30022029446,-0.275817871094,-0.0191650390625,-0.195373535156,0.94091796875
30022045814,-0.275390625,-0.0191040039062,-0.195922851562,0.940979003906
30022068266,-0.275634765625,-0.0189819335938,-0.196411132812,0.940795898438
30022089428,-0.275390625,-0.0189819335938,-0.197082519531,0.940734863281
30022105806,-0.274353027344,-0.0192260742188,-0.19775390625,0.940856933594
30022128284,-0.272888183594,-0.01953125,-0.198303222656,0.941162109375
30022142632,-0.271606445312,-0.0198364257812,-0.198669433594,0.941467285156
