27744119077,-3,-11,-5,-1,-2,-1,-1,-2
27744119077,5,11,6,2,0,-2,-1,-1
27744123843,-1,-3,-4,-1,-1,-2,-2,-1
27744123843,-2,-6,-5,-3,0,0,-1,0
27744124528,-1,-9,-6,-1,-1,-1,0,0
27744124528,0,1,1,0,-2,-2,-2,-3
27744125307,-2,-11,-4,-4,-5,-6,-2,-3
27744125307,3,11,9,3,-1,-1,-2,1
27744126990,-2,-1,-2,-3,-2,-1,-1,0
27744126990,-3,-5,-1,-3,-3,-1,-1,-2
27744130375,0,4,1,-1,-2,-2,-1,-3
27744130375,-4,-18,-11,-1,-1,-1,0,-4
27744145927,0,8,5,0,-3,-4,-3,-3
27744145927,0,0,1,-1,0,-1,-1,-1
27744151480,0,3,-1,-1,1,1,-1,0
27744151480,-4,-15,-8,-2,-3,-3,-4,-1
27744168372,2,25,12,2,2,1,1,1
27744168372,-3,-8,-8,-2,0,-1,-1,-1
27744191480,-2,-4,0,0,-1,0,-2,-2
27744191480,1,-3,-15,-2,-1,-1,-1,-2
27744193616,0,5,12,4,0,0,-1,-2
27744193616,-3,-6,-3,1,1,-1,0,1
27744206510,-1,2,2,-2,-1,-1,-2,-1
27744206510,-2,-1,0,0,0,0,0,-1
27744208619,-4,-20,-7,-4,-1,-1,-4,0
27744208619,0,7,1,1,0,0,-3,-1
27744220092,-3,-5,-6,0,0,0,-2,-1
27744220092,0,11,5,-2,0,-2,0,-1
27744260503,0,1,1,-1,-1,0,1,-1
27744260503,0,-4,-6,-2,-2,0,-1,-2
27744261325,-4,-3,2,1,0,-2,1,0
27744261325,-2,1,-6,-1,-1,-2,-1,-2
27744265131,-1,7,6,0,-1,0,-2,-3
27744265131,2,7,0,-2,-1,-3,-2,-1
27744265896,0,-4,-2,-2,-5,-3,-5,-3
27744265896,-5,-20,-6,-4,-5,-4,-3,-3
27744271284,4,19,6,0,0,-3,-2,0
27744271284,-3,-7,-5,-1,-2,-2,-2,-2
27744278914,-1,-9,-5,-1,0,0,-2,-1
27744278914,-1,0,-4,-1,-1,-1,-2,-2
27744293793,-4,-14,-7,-3,-4,-3,-2,-1
27744293793,-2,0,4,-1,-2,-3,-2,-1
27744301308,-1,-3,-6,-3,-2,-1,-1,-3
27744301308,-1,-9,1,-1,-2,-1,-3,-1
27744310209,0,4,-4,0,-1,-1,-1,-1
27744310209,-3,1,1,1,0,-1,-2,-1
27744332567,-7,-19,-21,-3,-2,0,-1,-2
27744332567,4,18,19,3,1,1,1,-1
27744334169,-1,-5,1,-1,-1,-2,-2,-2
27744334169,-4,-8,1,-1,-2,-3,-2,-1
27744355140,-3,-8,-5,1,3,0,1,0
27744355140,2,4,-8,-6,-3,-3,-1,-2
27744356709,-4,3,0,-7,-6,-3,-3,-2
27744356709,0,-2,5,8,2,-1,0,-1
27744370319,6,32,9,5,5,2,0,1
27744370319,2,10,7,4,1,1,0,-1
27744371655,0,-7,-2,-1,0,0,-1,1
27744371655,-3,-7,-8,-7,-6,-1,-1,-1
27744392550,-5,-7,-2,-5,-5,-3,-2,-2
27744392550,0,-5,-14,-10,-2,-2,0,-1
27744394150,-3,-4,-3,1,-2,-3,-4,-4
27744394150,2,4,4,1,-1,1,-1,1
27744415187,-1,-7,6,5,2,0,2,1
27744415187,-2,4,0,4,3,2,2,3
27744416661,-4,-19,-6,-1,1,3,3,2
27744416661,-2,-10,-11,-15,-6,-5,-3,-2
27744430181,2,8,-2,-15,-11,-7,-4,-1
27744430181,-3,6,19,24,17,7,2,0
27744431657,3,4,14,12,7,4,2,2
27744431657,-2,5,4,12,5,1,1,0
27744452638,1,-4,-3,-2,3,2,0,1
27744452638,-6,-18,-17,-12,-11,-8,-5,-2
27744454120,0,5,-12,-8,-2,0,1,-1
27744454120,-4,4,3,2,0,-3,-2,-3
27744475268,1,8,22,-4,-9,-4,-1,-1
27744475268,1,0,-20,-8,-1,-2,-2,-2
27744476652,0,-3,13,8,3,3,1,0
27744476652,-3,-20,-13,-2,1,1,-1,-3
27744489507,-2,20,-1,-5,1,0,-1,-1
27744489507,9,30,14,-7,-13,-6,-3,1
27744496311,4,7,-2,17,11,5,1,4
27744496311,-6,-20,-19,3,7,7,2,1
27744512646,-4,-12,-3,3,3,0,-2,-2
27744512646,-9,-27,-8,-5,-5,-2,-1,-2
27744514121,1,7,-4,-14,-9,-6,-2,-1
27744514121,1,14,3,-7,-10,-6,-2,-3
27744535140,-4,-35,-14,2,1,-2,-3,-2
27744535140,7,26,11,0,5,3,2,3
27744536663,4,11,20,20,8,1,-2,0
27744536663,-2,-3,7,4,3,1,1,0
27744548775,-8,-19,-11,-14,-9,-5,-4,-6
27744548775,-3,-7,2,-5,-2,-1,-2,-2
27744557710,-7,-15,-19,-16,-10,-5,-2,-3
27744557710,9,15,-6,-4,-1,-1,1,3
27744572699,9,11,17,11,5,3,2,3
27744572699,-3,7,5,5,-4,-3,-1,-3
27744574164,0,5,4,0,5,3,-1,0
27744574164,-2,-12,-9,5,5,2,0,0
27744595174,-1,0,-6,-4,-2,-3,-2,-2
27744595174,-8,-20,-26,-28,-11,-6,-2,-3
27744596731,-2,-22,-14,-2,-10,-5,-3,-3
27744596731,5,32,31,19,10,4,2,1
27744608765,2,6,10,4,5,3,1,-1
27744608765,-5,-1,-6,-5,-10,-5,-1,0
27744617725,-2,12,-8,-10,-2,-4,-1,-1
27744617725,-3,-9,-9,-10,-8,-4,-4,-2
27744632641,-1,-6,-10,2,0,1,0,1
27744632641,5,8,4,-4,-3,-2,-3,-1
27744634159,-9,-33,-32,-18,-7,-2,-2,-4
27744634159,4,-3,17,11,-3,-3,0,0
27744655156,15,59,34,4,1,3,3,4
27744655156,-4,-20,-16,-7,-3,-3,-4,-2
27744656579,-6,-19,-15,-3,-3,-1,-1,-2
27744656579,4,16,15,-11,-5,-3,-2,-1
27744669274,-4,-6,-6,-2,-3,-2,-1,-3
27744669274,4,2,16,20,11,3,0,2
27744677717,-4,-11,5,8,12,5,3,-1
27744677717,0,20,8,-11,-6,-3,0,2
27744692677,-5,-9,-10,-7,-7,-6,-4,-3
27744692677,4,25,14,9,2,0,0,3
27744694170,-11,-43,-16,-3,-6,-5,-5,-9
27744694170,-2,26,-2,-2,0,1,-4,-3
27744722677,0,-1,-3,-4,-2,-2,-1,0
27744722677,7,1,9,-2,3,1,0,0
27744724204,-3,-3,-21,-10,-8,-5,-2,1
27744724204,2,-6,3,5,3,0,2,2
27744728817,-5,-7,-1,-7,-11,-9,-3,-2
27744728817,-6,-18,-1,14,8,6,2,-1
27744737729,10,36,22,-3,-4,-2,2,8
27744737729,-4,-27,-18,-6,1,2,0,-5
27744752654,-13,-32,-15,4,5,3,1,-4
27744752654,-4,-11,2,-7,-5,-3,-3,-5
27744754119,3,1,12,16,7,3,1,0
27744754119,0,15,-12,-12,-7,-3,-3,0
27744775217,3,9,10,-1,-3,-3,-1,0
27744775217,-12,-21,-27,-14,-11,-7,-5,-8
27744776605,4,28,30,26,22,15,5,0
27744776605,-4,-27,-31,-11,0,1,1,-1
27744788853,11,37,32,14,8,4,-4,-1
27744788853,-11,-2,3,-8,-8,-4,4,4
27744797668,4,9,6,7,5,1,1,3
27744797668,-8,-38,-13,-4,2,-1,0,-3
27744812620,-6,-22,-18,3,2,-1,0,-4
27744812620,12,37,45,18,8,6,4,3
27744814124,6,24,36,9,2,5,3,3
27744814124,-8,-13,-32,-15,-7,-3,-3,-1
27744835173,-3,-5,1,11,6,4,5,3
27744835173,7,2,-20,-9,-1,-1,-4,3
27744836663,-14,-32,-39,-25,-16,-10,-2,-7
27744836663,-2,-7,0,-2,-3,-2,-2,-9
27744848642,8,14,-11,-7,-3,-3,-4,-1
27744848642,5,37,74,45,25,10,1,2
27744857701,-24,-70,-65,-39,-23,-13,-7,-3
27744857701,7,21,24,17,9,3,1,4
27744872594,-2,10,10,-12,-11,-9,0,3
27744872594,-5,-17,-26,-9,-6,-3,-3,-16
27744874154,3,1,4,12,13,4,-3,-1
27744874154,-10,-16,-2,-2,-4,-4,-2,0
27744895158,-4,-5,-12,-5,-3,-1,2,-4
27744895158,-2,-7,5,-4,-4,-6,-8,2
27744896649,-3,-34,-40,-19,-10,-7,-4,-6
27744896649,5,32,32,25,11,8,3,2
27744908768,-2,6,26,13,5,-2,-4,-2
27744908768,-9,-29,-38,-14,-3,0,4,5
27744917694,14,32,25,11,0,-2,-2,-3
27744917694,-1,4,2,-11,-10,-6,-7,-11
27744932605,3,-7,-16,-9,-4,1,1,7
27744932605,5,14,15,10,6,0,4,8
27744934169,-6,19,31,-3,-9,-5,-5,-13
27744934169,-7,-19,-25,3,13,10,3,3
27744955120,4,-7,10,1,-4,-5,-6,-2
27744955120,-7,-19,-51,-34,-25,-13,-8,-5
27744956579,16,36,48,36,32,16,9,12
27744956579,-10,-29,-30,-18,-12,-8,3,-1
27744968842,-1,16,43,24,12,2,-6,-9
27744968842,-18,-19,-13,-4,0,1,2,-8
27744977709,3,-1,-14,-15,-12,-8,-7,2
27744977709,16,30,45,21,10,5,10,9
27744992680,-5,-20,-29,-7,0,2,1,1
27744992680,-5,-22,-34,-11,-4,-1,-3,-7
27744994176,-3,8,-12,-25,-20,-10,-2,-6
27744994176,2,12,31,44,30,14,1,4
27745015910,-1,-18,-13,-17,-11,-7,-3,2
27745015910,14,9,8,12,7,2,-4,0
27745016586,-4,-17,-19,1,10,2,4,0
27745016586,-8,-10,-20,-56,-52,-28,-11,-6
27745036968,1,4,-2,25,28,14,7,1
27745036968,-3,-7,11,20,15,8,5,5
27745037613,9,23,28,7,-5,-7,-1,-3
27745037613,-2,-2,-10,-13,-8,-3,-4,-4
27745051946,-7,-17,-16,16,18,9,-9,-5
27745051946,-10,-11,-22,-25,-17,-13,-9,-7
27745052611,0,1,-12,-9,-4,1,13,9
27745052611,0,1,4,-5,-1,0,-9,-12
27745074411,-5,-2,4,-8,-11,-8,4,4
27745074411,6,12,11,8,7,5,1,2
27745075192,1,-6,-26,-21,-11,-3,-3,-5
27745075192,3,-6,-10,23,23,12,11,10
27745096972,7,24,35,24,6,4,-7,-4
27745096972,-8,-6,-8,-23,-20,-16,-12,-11
27745097656,3,17,23,20,11,3,-4,-1
27745097656,-11,-33,-71,-53,-23,-14,0,2
27745111888,1,8,26,13,2,3,-3,-6
27745111888,16,20,27,65,47,20,15,15
27745112614,-9,-18,-24,-16,-7,-1,-11,-12
27745112614,6,13,19,12,4,-10,-30,-1
27745135765,-19,-21,-33,-50,-29,-16,-11,-33
27745135765,6,-10,-7,-13,-8,11,61,37
27745136678,10,11,10,21,12,9,37,25
27745136678,2,4,8,0,-6,-2,8,2
27745156967,7,13,3,10,4,-15,-58,-6
27745156967,1,5,11,6,5,8,6,-22
27745157665,2,12,16,-9,-10,0,11,8
27745157665,-9,-7,6,-15,-17,-13,-21,-8
27745171959,-5,-25,-63,-24,-10,5,39,22
27745171959,8,20,18,34,25,2,-36,-24
27745172616,-9,-7,-4,-13,-12,-9,-10,-8
27745172616,5,13,17,2,1,0,0,-4
27745202698,-13,-11,13,0,2,-3,-7,-4
27745202698,-12,-19,-39,-10,-9,-10,-7,-2
27745203344,-3,7,6,-1,-5,-7,-21,-21
27745203344,-6,-5,0,0,4,3,0,-5
27745216858,0,3,-5,-11,-6,1,13,2
27745216858,9,11,6,-5,-10,0,13,8
27745217603,-18,-14,5,15,11,-5,-28,-13
27745217603,10,6,-2,-7,2,15,59,18
27745239438,2,-2,-2,8,-3,-8,-19,-3
27745239438,11,19,19,1,-4,-7,-9,11
27745240114,-17,-20,-19,-13,-7,-3,-19,-26
27745240114,9,8,14,30,19,12,3,7
27745253813,2,-2,-18,-43,-19,1,22,6
27745253813,3,8,14,20,20,8,-7,-7
27745262049,-6,-9,-2,28,4,-11,-26,-1
27745262049,0,0,-7,-13,-11,-6,-9,-8
27745276979,-1,5,36,55,20,3,5,-4
27745276979,-13,-13,-2,5,7,-4,-31,-18
27745277621,-1,-7,-19,-44,-15,4,18,6
27745277621,-9,-11,6,14,3,-8,-5,-9
27745299334,2,-7,-26,-56,-14,6,5,16
27745299334,-13,-16,-1,-11,-24,-14,-1,-9
27745300114,0,-12,-27,-19,5,13,33,12
27745300114,0,21,15,23,9,-1,1,-4
27745322673,-1,5,-10,-19,-4,-5,-20,-15
27745322673,2,6,-1,8,2,4,7,13
27745323318,1,-15,-12,-10,-8,-3,-10,-6
27745323318,1,12,7,5,4,2,-1,2
27745336970,-7,-55,-28,12,3,-1,9,-3
27745336970,-11,20,-10,-38,-23,-13,-13,-11
27745337645,20,45,51,43,15,8,4,10
27745337645,1,15,11,-5,-7,-2,-16,-3
27745359303,-4,8,23,22,4,-4,-3,-1
27745359303,-5,-33,-5,15,10,6,6,0
27745360111,-4,-36,-20,-16,-2,0,-6,0
27745360111,1,21,-3,-12,-10,-2,10,-2
27745373782,4,-2,2,11,13,10,18,2
27745373782,-9,-13,-2,-16,-18,-11,-13,2
27745381948,6,21,14,11,0,-1,13,9
27745381948,-4,-26,-16,-6,2,0,-30,-12
27745396970,3,21,-3,3,-2,2,22,3
27745396970,3,-2,-8,-28,-12,-2,6,0
27745397651,-21,-58,-30,-9,-8,-6,-5,-7
27745397651,15,43,22,2,-1,-2,-6,5
27745419323,12,48,38,24,8,0,-7,1
27745419323,5,19,22,9,6,4,6,1
27745420108,0,-4,-18,-17,-8,-7,-14,-2
27745420108,-7,-40,-15,11,9,3,1,-3
27745433717,3,12,-7,-17,-6,3,18,9
27745433717,2,-9,-4,2,1,-1,-2,-2
27745441922,3,9,13,8,14,8,2,4
27745441922,0,14,19,13,1,-2,-3,-2
27745456949,-10,-12,-17,-20,-12,-7,-14,-6
27745456949,-4,-7,-7,-1,-1,-8,-18,-12
27745457627,18,36,22,16,2,2,20,20
27745457627,-2,-10,15,-4,-10,-6,1,-2
27745479398,-11,-26,-29,-20,-10,1,6,5
27745479398,8,7,-2,-10,-9,-5,-8,4
27745480106,12,13,21,20,7,4,0,4
27745480106,1,-10,-49,-37,-8,2,2,4
27745503043,6,-2,13,21,5,-2,-8,-1
27745503043,-20,-74,-54,-53,-23,-7,-5,-10
27745503717,20,112,73,57,26,9,-11,-6
27745503717,-6,-19,-3,4,7,9,21,18
27745518306,3,-19,-24,-27,-21,-20,-34,-4
27745518306,-4,24,23,12,10,10,8,1
27745519121,-9,-27,5,-7,-13,-12,-16,-3
27745519121,3,3,31,1,-13,-15,-26,-20
27745539393,-22,-21,-23,-10,-1,1,-18,0
27745539393,-6,-17,-19,-19,-10,-7,-9,7
27745540141,-1,1,21,-12,-22,-12,3,-6
27745540141,-46,-52,-74,-26,14,16,15,-25
27745555179,8,8,-9,-5,1,6,13,9
27745555179,25,38,-8,0,-2,-4,-9,-1
27745561951,-10,-15,-37,-1,22,21,22,-1
27745561951,-2,-22,0,4,-9,-15,-26,1
27745576946,12,9,-24,-5,7,11,18,-2
27745576946,-30,-25,-20,-11,-4,-5,7,-6
27745577621,32,73,18,-1,-4,-7,-12,2
27745577621,-20,-18,-25,10,18,18,15,-7
27745599462,-7,-6,-36,-21,-3,-2,10,-8
27745599462,22,24,29,21,1,-1,12,9
27745600110,-28,-60,-36,-31,-18,-7,4,-10
27745600110,0,6,16,7,-7,-8,-16,-4
27745613780,8,19,66,51,20,14,29,8
27745613780,1,4,-17,-11,5,9,8,5
27745621989,14,13,-6,-9,-7,-6,4,-9
27745621989,4,3,-32,-6,8,9,18,12
27745636980,1,0,-21,-27,-9,-5,-7,19
27745636980,4,7,12,9,1,2,23,-5
27745637641,-16,-25,-25,-4,3,6,9,2
27745637641,27,33,17,-11,-25,-19,-5,5
27745659524,6,5,7,4,-1,-4,-8,-10
27745659524,-1,-4,-7,7,12,12,14,5
27745660100,16,20,5,-4,0,-2,0,14
27745660100,5,12,-32,-55,-38,-28,-11,-11
27745673780,-3,8,58,1,-29,-27,-19,-12
27745673780,-5,-3,7,18,17,9,-23,-10
27745682060,-19,-27,-7,-6,-8,-12,-3,-11
27745682060,1,2,21,4,-3,-3,13,19
27745696921,-9,-15,-18,-10,-1,0,-6,-7
27745696921,-9,-1,4,-1,-9,-10,-14,-9
27745697614,-31,-34,-8,6,11,11,22,3
27745697614,-1,-20,52,70,46,25,7,2
27745719872,-8,-11,9,9,3,-1,-16,-8
27745719872,10,5,-7,-12,-10,-2,9,1
27745726887,15,2,-17,-12,3,7,5,3
27745726887,4,13,3,-23,-28,-22,-13,8
27745742651,-7,0,39,73,44,27,19,0
27745742651,10,4,-2,5,7,3,-2,-6
27745743315,-35,-18,3,14,4,-5,-20,-21
27745743315,-41,-22,3,-5,-11,-15,-30,-52
27745757029,15,16,-12,-35,-35,-26,-10,-11
27745757029,-12,-6,-17,0,12,18,14,25
27745757645,1,9,-5,-2,2,2,-23,-16
27745757645,14,-2,15,17,8,11,45,69
27745779391,-17,3,-23,-10,0,4,7,-23
27745779391,46,44,56,15,-3,-5,1,25
27745780140,-13,-35,-11,9,6,1,-17,-14
27745780140,7,11,-2,18,19,17,11,-9
27745802632,-1,-18,-21,-20,-4,-4,-11,2
27745802632,-1,11,47,46,21,17,29,14
27745803293,-19,-20,-24,-12,-11,-8,-3,-8
27745803293,11,5,-17,-9,-2,-5,-27,-17
27745816862,10,13,-13,-27,-23,-15,2,11
27745816862,-3,-4,13,-9,-9,-3,-1,2
27745817617,-5,-2,-11,-12,-6,-6,-13,-20
27745817617,5,3,-6,-2,-2,1,0,20
27745839420,-1,-4,-6,-10,-5,-5,-14,2
27745839420,-18,0,20,-2,-9,-11,-13,-37
27745840185,18,19,63,36,13,6,10,24
27745840185,23,18,0,-9,0,3,9,10
27745862511,-6,-11,21,13,9,3,-7,-1
27745862511,-15,-7,-9,0,-3,-10,-16,-22
27745863276,31,24,7,-2,-7,-6,5,12
27745863276,-20,-23,-19,-22,-7,-1,6,-4
27745876904,10,9,-4,13,12,8,-8,-5
27745876904,-20,-40,-27,11,15,10,16,8
27745877601,23,10,-6,-18,-15,-14,-25,12
27745877601,-22,-13,9,15,10,12,20,-23
27745899465,23,18,13,1,6,14,36,45
27745899465,-8,-36,-75,-48,-13,0,6,3
27745900141,-12,22,-3,-10,-10,-8,-4,-9
27745900141,14,17,6,1,1,-5,-16,-6
27745922562,-10,0,23,37,21,7,-4,-13
27745922562,-11,-32,-11,-12,-15,-14,-15,-13
27745923326,5,7,10,-18,-23,-19,-3,11
27745923326,-20,-25,-31,-22,-5,0,-15,-37
27745936916,4,-1,-17,0,3,-3,7,23
27745936916,0,4,-10,-24,-11,-5,-7,8
27745937621,15,0,-5,10,12,18,32,18
27745937621,-11,-11,6,20,11,2,-6,-21
27745959387,-2,-7,-11,-9,-8,-6,-12,-3
27745959387,20,34,13,-9,-13,-12,-15,13
27745960126,-5,11,-16,-16,-7,0,19,-4
27745960126,17,8,15,28,20,10,1,6
27745982664,0,0,-16,-7,7,6,-1,-1
27745982664,0,9,-7,-15,-10,-1,18,5
27745983318,-6,-22,1,13,9,6,1,-3
27745983318,1,-11,11,10,1,-3,-3,9
27745996959,6,19,-3,7,6,8,7,-6
27745996959,-3,2,20,19,10,-3,-16,1
27745997593,-5,-13,-23,-22,-3,5,12,-5
27745997593,12,19,4,-8,-8,-3,4,7
27746019371,-21,-21,6,-11,-15,-14,-16,-11
27746019371,-3,-22,-16,12,16,14,13,6
27746020142,5,16,15,9,-6,-14,-27,0
27746020142,-14,-2,-8,-8,0,5,14,1
27746042619,-15,-15,-12,-22,-19,-15,-1,-16
27746042619,3,14,-7,2,0,-5,-10,-15
27746043294,1,-13,3,-5,-7,-2,-2,2
27746043294,2,3,2,-1,-1,-2,-5,-2
27746056954,5,9,19,8,-2,-7,-21,-13
27746056954,21,30,36,9,-1,0,15,18
27746057635,-9,-22,-26,10,22,19,11,0
27746057635,-12,-1,-18,-19,-16,-13,-20,3
27746080207,-2,-2,6,4,7,9,-3,-8
27746080207,-29,-33,-16,-11,-18,-22,-33,-35
27746080926,7,3,5,1,3,8,21,27
27746080926,5,-1,8,8,0,-4,-6,4
27746102625,7,9,6,7,10,8,12,7
27746102625,-8,-1,-7,-1,-4,-6,-19,-31
27746103326,-15,-14,23,-3,-11,-17,-13,-1
27746103326,2,-4,17,25,15,8,13,12
27746116858,-2,-3,-7,-13,-14,-11,-6,-8
27746116858,0,-3,5,11,12,6,3,5
27746117703,-8,-10,-21,-41,-25,-13,-5,-6
27746117703,17,21,21,45,24,10,1,12
27746140086,-30,-37,0,16,7,-1,-7,-18
27746140086,-3,-4,-11,-15,-11,-6,-8,-11
27746140818,13,14,1,-1,1,3,1,5
27746140818,-14,-6,2,-17,-13,-7,3,-3
27746162680,11,11,8,9,8,6,5,2
27746162680,-6,-2,-11,1,2,2,-1,15
27746163344,5,10,-13,-13,-10,-8,0,-14
27746163344,-14,-10,-19,-23,-13,-5,-2,-13
27746176889,0,-13,4,-2,-2,4,21,29
27746176889,-13,-5,-2,3,5,1,-1,-20
27746177605,-1,0,-12,2,0,-2,-11,3
27746177605,15,12,-5,-33,-22,-10,0,2
27746200037,16,20,8,21,13,7,4,5
27746200037,-7,-8,-1,2,3,-2,-11,-3
27746200792,-3,2,-1,-5,-3,-2,-4,-9
27746200792,1,-2,4,4,0,0,0,-1
27746222648,8,14,-7,-3,1,0,6,12
27746222648,6,-1,5,5,5,7,10,1
27746223318,-7,4,4,4,-2,-15,-26,-15
27746223318,-5,-16,-1,-1,3,5,8,4
27746236919,4,8,3,-2,-5,-4,-4,3
27746236919,10,14,-1,-5,-8,-6,-1,2
27746237596,-9,-14,-9,-8,-5,-3,-2,-2
27746237596,9,-1,-3,-4,-3,-1,8,-5
27746260101,-14,-11,-9,-7,-3,-2,-6,-1
27746260101,4,5,-10,-13,-10,-5,6,10
27746260853,-3,-13,-5,11,11,9,-1,-7
27746260853,2,3,14,22,9,-4,-10,-9
27746282588,-14,-12,-18,-10,-7,-4,-8,-8
27746282588,14,6,11,0,-1,6,19,20
27746283295,-2,-5,-4,3,6,5,2,0
27746283295,-9,-1,-1,-10,-10,-8,-6,-8
27746304214,-5,-1,1,0,-3,-7,-14,-18
27746304214,0,-2,3,11,12,7,-1,1
27746312068,-3,5,7,3,-3,-6,-15,-11
27746312068,1,1,2,5,5,7,18,18
27746320156,-12,-15,-5,-5,-4,-4,4,-4
27746320156,6,7,0,-6,-5,-6,-12,-8
27746320813,0,3,-6,-8,-6,-5,-8,-7
27746320813,-1,-2,-4,-1,3,3,-4,-1
27746342589,14,14,7,-5,-8,-2,3,4
27746342589,-14,-19,-10,12,8,-1,-7,-11
27746343291,-4,-4,4,2,0,-4,-8,5
27746343291,-4,2,-11,-17,-11,-5,2,0
27746356192,2,0,-4,-10,-8,-3,7,1
27746356192,2,10,4,-2,-7,-4,-8,-5
27746364367,2,-5,-3,-2,4,5,18,11
27746364367,-3,1,-6,-8,-6,-8,-13,-5
27746380128,14,19,15,9,7,2,3,2
27746380128,-18,-15,-14,-16,-11,-12,-15,-13
27746380918,-4,-8,-5,6,4,4,5,2
27746380918,9,7,10,4,3,6,5,11
27746402633,-1,0,-3,-1,1,-1,-5,-7
27746402633,5,6,-4,-7,-6,-5,-1,7
27746403337,-4,-5,3,4,-2,-2,1,-5
27746403337,-2,-6,-15,-9,0,0,-2,-3
27746416233,0,-5,0,2,2,2,-9,-3
27746416233,1,1,2,-2,-5,-4,5,3
27746424411,-18,-21,-3,-9,-9,-8,-11,-13
27746424411,-1,0,-8,-4,-4,-2,3,4
27746440044,-4,-8,-9,-3,1,0,0,-5
27746440044,2,0,1,-3,0,3,7,4
27746440842,4,5,4,2,0,-2,2,2
27746440842,5,3,5,3,0,-2,-6,4
27746462661,-1,3,-10,-7,-11,-5,-8,-14
27746462661,6,3,4,-4,-5,0,13,12
27746463314,-5,-8,0,5,5,5,8,7
27746463314,1,-1,0,1,0,-3,-6,-4
27746476262,5,2,9,0,0,0,5,8
27746476262,-11,-12,-10,0,1,0,-8,-10
27746484378,1,5,4,-1,0,0,-3,-7
27746484378,-2,-2,-12,-13,-8,-6,-4,-4
27746500163,-2,-3,2,4,2,-2,0,3
27746500163,3,5,10,10,5,3,-2,-3
27746500787,4,1,-1,3,1,1,3,4
27746500787,-9,-11,0,3,0,-1,-4,-5
27746522599,10,10,1,-3,-1,0,0,2
27746522599,-11,-12,-11,6,9,7,2,-4
27746523386,2,5,-2,-1,-3,-2,-2,9
27746523386,0,-1,2,1,1,-2,-7,-6
27746536270,-6,-9,-8,-4,-2,1,8,5
27746536270,2,5,5,-3,-5,-4,-1,1
27746544497,1,2,-1,-4,-5,-5,-10,-7
27746544497,0,-1,-6,-5,-2,0,2,-2
27746559484,-3,-6,-4,1,3,2,0,2
27746559484,2,1,2,-2,-1,0,-3,1
27746566267,-6,-6,0,0,1,1,2,-5
27746566267,-1,1,4,2,0,0,-3,-1
27746582627,-1,-3,-2,-4,-1,1,2,2
27746582627,5,7,12,9,3,0,3,2
27746583290,1,1,-5,-6,-2,2,0,-3
27746583290,-1,-1,2,9,3,1,0,2
27746596380,-6,-7,-2,4,1,-1,-2,-2
27746596380,2,3,2,-2,-3,-3,-2,-4
27746605134,-1,-1,2,4,0,-4,-2,0
27746605134,2,3,-3,-3,-1,-3,-3,-2
27746620109,-5,-4,-5,-5,-5,-3,-3,-2
27746620109,1,1,-2,-2,-2,-1,-2,0
27746621605,0,0,3,6,5,3,3,2
27746621605,-2,-3,-3,-7,-5,-1,-2,-2
27746642551,-2,-1,-1,0,-2,-3,-2,-3
27746642551,-1,-1,-2,-6,-5,-1,-3,-1
27746644144,1,4,2,1,1,0,0,1
27746644144,-2,0,4,2,2,2,-1,-1
27746665582,0,0,1,0,1,1,0,-1
27746665582,0,-4,-3,-5,-2,-3,-2,-1
27746667098,2,1,-2,1,1,1,2,-2
27746667098,0,-4,-2,-1,-1,-3,-3,-1
27746680144,-3,-1,-2,-5,-4,-1,-2,-1
27746680144,-1,-2,2,-6,-6,-2,0,1
27746687741,-2,-4,-1,-1,-2,1,1,-3
27746687741,3,2,4,8,2,0,2,0
27746702629,2,0,-8,-1,2,-1,-1,0
27746702629,1,7,9,3,1,-2,-2,-3
27746704145,-3,-6,1,-1,-2,-1,-1,-1
27746704145,-1,-1,-10,-5,-5,-2,-3,-1
27746725161,-2,10,14,3,0,-1,-2,-1
27746725161,2,5,5,2,1,2,0,3
27746726602,1,1,0,-1,1,0,0,-3
27746726602,0,-6,-7,-3,-1,2,0,-1
27746739451,-2,-8,-6,-5,-2,-1,-1,1
27746739451,-2,2,-11,-9,-3,-3,-1,-3
27746746183,-1,-9,-3,0,0,0,-1,-1
27746746183,-5,-7,4,-2,-3,-2,-2,1
27746762610,1,-13,-4,-3,-2,-1,-2,1
27746762610,-1,6,-2,-2,-1,-4,-2,-3
27746764125,9,26,10,3,0,0,2,5
27746764125,-3,2,1,0,0,2,1,-2
27746785026,-4,-19,-4,1,-2,-2,-1,2
27746785026,-5,-13,-15,-2,-1,1,0,-3
27746786672,-3,-4,-3,-1,-1,-2,-3,-3
27746786672,-3,-3,-3,-2,1,0,1,1
27746799481,1,9,4,-3,-4,-1,-2,0
27746799481,4,-4,-1,3,4,2,2,-2
27746806247,-6,-1,2,2,2,0,-1,0
27746806247,2,4,-4,-5,-2,-1,-1,-1
27746822613,-3,0,2,0,1,-1,0,-6
27746822613,-4,-17,1,1,-1,-1,-2,0
27746824100,4,14,-1,-1,0,-1,1,2
27746824100,0,0,9,2,0,0,0,0
27746845125,6,21,4,1,-1,1,-1,4
27746845125,-4,5,5,1,1,0,-2,-2
27746846581,2,-11,-3,2,-2,0,2,9
27746846581,-19,-15,-20,-11,-6,-5,-4,-13
27746859368,0,-4,-8,-2,2,1,1,-4
27746859368,0,-3,-5,-3,-1,-2,1,3
27746866148,-3,-7,-2,-2,0,1,0,-3
27746866148,8,11,6,-2,-2,-4,-3,2
27746882556,-6,-2,1,-2,-2,-1,-1,-2
27746882556,-4,-3,-6,-2,-1,-1,-1,-2
27746884110,1,-8,-9,-2,-2,0,-1,4
27746884110,-5,-3,0,1,-1,-1,-2,-14
27746905028,6,19,-8,-3,-4,-4,-3,-2
27746905028,-1,7,16,4,0,-1,0,6
27746906589,-4,-7,-3,-4,-2,-2,-2,-5
27746906589,4,-3,2,3,0,-1,0,6
27746918820,-7,-8,-6,-2,-2,-2,-1,-5
27746918820,-1,-3,-5,-3,-1,-2,-2,-1
27746927660,2,9,1,-1,0,-1,-3,0
27746927660,-1,-4,-2,-1,0,1,-1,1
27746943098,-3,-8,-9,-3,0,-1,0,-1
27746943098,0,3,-3,-2,0,0,0,0
27746944600,-4,-5,5,2,-1,-1,-1,-2
27746944600,4,3,-2,0,-2,0,-1,0
27746965100,-6,-4,-3,-2,0,1,1,-2
27746965100,3,0,-6,-5,-2,-3,-2,1
27746966696,-4,-5,-5,1,-1,2,-2,-5
27746966696,3,8,4,1,1,0,2,5
27746978804,-3,-7,-4,-2,-1,0,0,-1
27746978804,-11,-28,-9,-2,-1,0,2,-5
27746987600,15,36,10,0,-1,-4,-3,1
27746987600,-5,-10,-2,-3,-2,-1,-1,-9
27747002506,-1,11,14,6,-1,-2,-2,4
27747002506,3,-6,-2,1,0,0,-1,-3
27747004164,-8,-17,-7,-1,-1,0,0,-3
27747004164,-1,-1,0,1,1,-1,-1,3
27747025159,-2,-16,-8,-4,0,0,-2,-3
27747025159,0,13,-4,-2,-3,-1,-1,-2
27747026586,1,8,5,-1,0,0,0,3
27747026586,-4,2,5,1,0,-1,-1,-6
27747038749,-1,-7,1,-1,-1,0,0,1
27747038749,1,3,-5,-4,-3,-1,-1,1
27747047659,0,1,-1,0,1,-3,1,-5
27747047659,-1,0,-6,-1,0,-1,1,4
27747062547,-2,-4,0,-1,-2,-1,-4,-7
27747062547,-1,7,6,1,-1,0,0,1
27747064112,-6,-20,-9,-1,-3,-3,-3,-5
27747064112,2,4,0,-2,-1,0,-1,4
27747085028,1,5,-7,-3,-1,0,0,2
27747085028,-2,4,2,-1,-1,0,-2,-2
27747086584,-1,-12,7,2,0,-1,-1,-5
27747086584,1,12,1,0,0,0,0,0
27747098768,0,-2,2,0,-1,-2,-2,-5
27747098768,6,-1,-3,1,0,0,-1,5
27747107669,-1,11,-1,-1,0,1,1,0
27747107669,1,-15,-3,-1,-2,-1,-4,3
27747122669,-3,-4,-6,-3,-2,0,0,-4
27747122669,2,-5,-7,-3,0,-2,-2,0
27747124136,-1,-12,3,1,-2,-3,0,1
27747124136,0,-1,1,0,0,-3,-1,-1
27747145576,2,-1,-8,-2,-1,0,-1,5
27747145576,0,31,24,2,1,-1,0,-5
27747147085,-4,-37,-28,-8,-2,-2,-4,-5
27747147085,-3,29,25,10,2,2,0,3
27747158744,-2,-14,-21,-6,-2,-2,-2,-2
27747158744,-6,-24,-15,-2,-1,0,1,1
27747167607,4,25,13,1,-1,0,0,-2
27747167607,-8,-31,-14,-7,-1,-1,-2,-3
27747182638,2,14,10,-1,-4,-2,-2,1
27747182638,-1,7,-4,2,0,-1,-2,-4
27747184136,-1,5,6,0,0,-1,1,0
27747184136,1,-4,-2,-1,-1,-1,-2,1
27747205114,-5,-10,-4,-1,-1,0,-1,-2
27747205114,2,-18,-10,-4,-3,-3,-2,-3
27747206618,-3,28,11,4,-3,-1,0,-5
27747206618,4,1,-11,-2,1,0,3,13
27747218808,-2,2,14,4,4,1,-2,-8
27747218808,-5,-24,-13,-4,-3,0,0,-1
27747227637,2,21,10,2,1,1,-1,1
27747227637,3,11,24,5,0,-2,-1,-5
27747242594,-4,-16,-39,-9,-2,-2,1,0
27747242594,-7,-13,11,-1,-3,-2,-1,1
27747244088,1,3,-15,-7,-2,-2,-1,-1
27747244088,-1,2,-7,-5,-4,-3,-3,-6
27747265154,-2,-2,-2,-3,-1,-2,-2,2
27747265154,-1,2,17,5,0,0,-2,-4
27747266636,-6,-17,-29,-9,-2,-2,-1,0
27747266636,4,-15,4,-1,-2,-3,0,-1
27747295260,3,28,20,1,-4,-3,-3,1
27747295260,-3,4,-10,-3,-1,-2,-1,-6
27747296799,3,-13,2,-1,-2,-2,-2,2
27747296799,-1,7,-5,-2,-2,-1,-2,-9
27747302657,1,-13,-6,0,0,0,3,9
27747302657,2,25,16,4,0,-2,-1,-2
27747304131,2,-2,2,-1,-1,-1,0,3
27747304131,-5,-16,-17,-4,-1,0,-1,-4
27747325105,4,1,7,1,2,2,1,0
27747325105,5,16,20,5,3,0,-1,1
27747326606,-7,-9,-12,1,0,-1,-2,-3
27747326606,-4,-5,-5,-5,-4,-1,0,2
27747347602,0,-6,-6,0,-1,-2,-2,-2
27747347602,-1,-9,-13,-2,0,0,1,2
27747349100,-3,-1,15,2,-1,0,-1,-2
27747349100,-1,7,-5,-4,-2,-3,-1,0
27747362555,-4,-12,12,6,0,0,0,-1
27747362555,-4,-7,-3,-2,-2,-3,-4,-4
27747364116,8,8,6,0,-1,1,-1,5
27747364116,-3,-2,-4,-1,-2,-2,1,-4
27747385047,-1,-7,-3,-6,0,0,0,0
27747385047,-7,-12,-15,-1,-1,-3,-2,0
27747386606,0,6,16,4,1,0,2,4
27747386606,6,4,-7,-2,0,0,-3,1
27747398769,-4,-9,-6,-3,-3,-5,-1,0
27747398769,2,-17,-12,-4,0,2,0,-3
27747423105,-8,14,15,4,2,1,1,-9
27747423105,2,-12,-2,3,2,-2,-1,4
27747423891,1,14,-2,0,-2,-1,-2,-1
27747423891,2,10,18,0,-1,0,1,3
27747425525,-5,-15,-22,-7,-3,-3,-2,-6
27747425525,-6,-8,-12,-5,-3,1,-1,-2
27747445124,-4,-9,10,5,2,-1,-1,-4
27747445124,3,17,-7,-5,-4,-2,0,0
27747446605,-4,-22,9,6,0,0,-1,2
27747446605,-2,14,6,-2,-3,-2,-1,0
27747458662,7,0,-12,-4,-1,0,0,5
27747458662,-7,32,11,1,-2,-4,-2,-10
27747467953,-3,-11,-17,-7,-2,-3,-2,5
27747467953,7,5,7,2,2,2,1,0
27747482393,-7,4,8,1,0,1,1,-8
27747482393,-1,-23,-14,-4,-3,-2,0,2
27747488718,-2,3,0,-2,-2,-3,0,-2
27747488718,1,13,8,3,2,0,-1,1
27747504993,1,9,16,7,0,-1,-2,0
27747504993,-7,-12,-9,0,0,-2,-3,-4
27747506577,0,-3,-11,-5,-2,-3,-1,-2
27747506577,-7,-22,-19,-9,-3,-1,-2,-3
27747518750,5,10,7,2,1,1,-2,-1
27747518750,0,-1,-6,2,2,2,1,1
27747527664,-2,-20,4,4,-1,0,1,2
27747527664,7,20,6,0,-3,-2,1,0
27747541981,-8,1,-1,-3,-2,0,-2,-5
27747541981,7,-7,-8,-4,-1,-2,-4,-8
27747548791,-6,4,3,-3,0,1,3,4
27747548791,6,9,7,3,0,-2,-2,0
27747565233,3,-1,-8,-7,-4,-3,-3,0
27747565233,-5,-14,-14,-7,-4,-2,-1,-3
27747566598,4,13,3,0,1,0,-2,0
27747566598,-12,-10,6,11,8,2,1,-8
27747578772,1,-2,8,2,-2,-2,1,2
27747578772,3,-5,-16,-6,-1,2,0,4
27747587638,8,11,2,0,-1,-1,-3,-1
27747587638,1,6,13,4,-3,-4,-4,2
27747601851,-5,-11,-31,-6,-2,1,-1,0
27747601851,2,-5,19,4,-1,0,-2,-1
27747608832,-6,20,23,1,-1,2,-2,-6
27747608832,-8,-10,-20,-7,-4,-3,-2,2
27747625125,7,-4,6,-2,-3,-7,-6,2
27747625125,0,-4,-6,0,1,5,8,6
27747626625,8,-8,-19,-6,-6,-1,-3,4
27747626625,-14,-4,-2,-3,-3,-3,-2,-11
27747647635,1,-6,8,0,-2,-2,0,3
27747647635,1,11,5,0,0,-2,-6,-2
27747649141,-9,-26,-17,-3,2,-1,-1,-7
27747649141,11,28,17,3,2,1,2,1
27747661925,-3,-3,-21,-13,-5,-2,0,-1
27747661925,-6,8,42,19,5,0,-1,-3
27747668662,-9,-19,-38,-11,-2,-2,1,-3
27747668662,3,2,9,-1,-1,-1,-4,-1
27747685129,4,7,6,4,3,2,1,-1
27747685129,-10,-2,-9,-6,-3,-1,-1,-1
27747686626,6,7,4,2,0,-3,-1,2
27747686626,-7,-29,-11,1,0,-1,2,1
27747707586,0,6,0,1,-2,1,0,0
27747707586,3,20,19,-4,-2,0,-1,-1
27747709086,-6,-13,-8,0,1,-2,-4,2
27747709086,-3,2,-1,-1,-3,-3,-2,1
27747722624,2,-2,-10,-7,-2,-1,0,-11
27747722624,-1,-6,-2,1,0,0,3,1
27747724133,6,5,-8,-3,-2,-1,0,1
27747724133,1,15,29,-3,-2,-1,-2,-1
27747745105,-3,1,9,12,2,-2,-1,1
27747745105,3,-12,-25,-10,-6,-6,-4,-1
27747746604,-3,6,18,4,-1,-1,-1,-6
27747746604,-3,-20,-36,-13,-4,-1,2,-1
27747767536,-1,1,11,6,2,-1,0,2
27747767536,-5,-24,-29,-8,-4,-2,-1,-3
27747769118,-2,10,15,5,1,-1,-1,1
27747769118,0,6,5,3,-1,-1,-2,-4
27747781958,-3,0,2,-2,0,2,2,0
27747781958,-7,-16,-18,-4,1,1,0,1
27747788762,1,13,9,2,-2,0,1,-1
27747788762,5,3,6,1,-2,-2,-3,-3
27747805101,-4,-7,-13,-3,-3,-3,-3,1
27747805101,0,4,-1,-1,-1,0,-1,-3
27747806612,-3,-5,7,-1,-3,0,0,-2
27747806612,-2,-5,-3,0,-4,-3,-5,1
27747827604,5,-9,-21,-8,-2,1,2,1
27747827604,-8,11,19,7,2,-1,-2,-5
27747829078,-1,-8,-17,-6,-1,-1,0,-2
27747829078,0,-4,9,6,2,2,0,-6
27747841258,-7,22,16,-2,-2,-3,-1,3
27747841258,10,6,4,2,1,-2,-3,5
27747850160,-5,-1,-13,-6,-4,-2,-1,-8
27747850160,-2,-31,-34,-9,-1,-2,-1,0
27747865069,-4,3,8,1,-1,0,-3,-8
27747865069,3,16,11,2,-2,-2,-2,2
27747866660,2,-3,10,2,0,-1,0,-4
27747866660,1,-10,-17,-8,-5,-2,1,6
27747887595,0,16,8,2,0,-1,-1,-4
27747887595,1,-4,-10,2,1,0,1,1
27747889076,-2,-13,-2,0,0,-2,-3,-2
27747889076,-2,6,0,-4,-3,-1,0,-1
27747901178,-1,-10,-6,-2,-2,0,-1,-1
27747901178,-1,6,0,-4,1,0,1,-1
27747910107,-3,-3,0,4,0,-1,-2,1
27747910107,-1,0,3,4,2,2,2,1
27747925071,2,-3,7,0,1,-1,-1,-2
27747925071,2,-3,-9,-3,-1,-1,-2,0
27747926578,3,5,-2,-4,-3,-2,1,1
27747926578,-5,-2,4,-2,-1,0,-1,-1
27747947622,5,-2,-3,2,0,-1,-3,-10
27747947622,-2,4,6,-2,-3,-3,-2,-3
27747949103,1,-11,-30,-12,-3,1,1,2
27747949103,-4,11,39,12,1,-1,-2,-4
27747961293,-4,-15,5,2,-1,-3,-1,5
27747961293,4,19,2,-1,0,-1,-3,-1
27747970132,-3,-4,2,3,0,-2,-1,-7
27747970132,0,-3,-23,-8,-4,-1,1,4
27747985135,-3,-6,5,3,-1,0,1,1
27747985135,-5,-8,-2,-2,-2,-4,-2,-3
27747986575,6,8,7,1,-5,-4,-4,1
27747986575,1,5,-1,-2,0,0,-1,-2
27748007648,-6,-3,-1,0,-1,-1,-1,1
27748007648,-6,-7,-6,-5,-1,-1,-1,-1
27748009106,7,8,2,-2,-1,-3,-4,-2
27748009106,-10,-2,-5,-1,-1,1,1,-5
27748021228,-3,-29,-13,1,1,2,2,8
27748021228,-2,32,28,3,-3,-2,-1,-9
27748030139,-4,-9,-7,2,4,3,3,3
27748030139,-2,-3,-4,3,-2,-2,-3,-4
27748044849,3,6,-3,-4,-1,-1,-4,-4
27748044849,-7,-21,-14,-3,-2,1,1,2
27748051193,-7,1,10,2,1,2,-1,-3
27748051193,-4,-3,-7,-3,-1,-1,3,2
27748067601,1,6,2,0,0,-1,0,-4
27748067601,1,-6,0,0,0,-1,0,1
27748069079,2,4,4,-1,-2,-4,-2,-4
27748069079,-3,-8,-7,0,1,0,-1,1
27748081216,0,0,-3,-3,-2,-2,1,4
27748081216,-4,-22,-17,-1,-3,-2,-1,-2
27748090110,-6,-2,11,4,0,0,0,9
27748090110,-10,7,7,0,-1,1,0,-4
27748105023,-6,6,1,2,-1,-1,-2,-7
27748105023,0,-7,-3,-1,1,1,0,0
27748106569,-2,-9,-12,-5,-2,0,-1,-3
27748106569,3,-1,1,0,-1,-1,0,3
27748127634,3,3,-1,-3,-3,-1,-3,-5
27748127634,-4,-3,0,-2,-3,-2,-1,-1
27748129106,-10,-8,-5,-2,-2,-3,-1,0
27748129106,6,-3,1,-1,-2,-1,0,0
27748141173,-1,4,4,0,1,0,0,0
27748141173,4,-5,-5,-1,-1,-3,-3,-1
27748150111,9,11,9,-1,0,-1,-1,1
27748150111,-6,-1,-3,-2,0,-2,-4,-10
27748165074,-8,-3,-5,-2,-3,-2,2,-1
27748165074,-7,-7,-4,-1,-2,0,-1,1
27748166591,15,5,3,2,1,0,-3,-1
27748166591,5,-2,-4,-3,-4,-2,-2,-2
27748187609,2,7,2,-2,-1,-3,-2,-4
27748187609,-1,1,-1,0,-2,0,0,-2
27748189107,-10,-3,-6,-2,-2,-1,0,-3
27748189107,-2,-9,-9,-4,-1,1,0,2
27748201135,-6,6,7,0,-1,-1,-4,-4
27748201135,8,8,2,-1,0,0,3,-1
27748210157,-9,-10,-5,-1,-2,-1,-1,-2
27748210157,6,9,4,0,-2,-3,-4,4
27748225097,-9,-18,-15,-5,-1,-1,-2,-2
27748225097,-1,0,5,1,0,-2,-1,1
27748226579,-7,1,5,1,-1,0,3,4
27748226579,2,-1,0,-1,-1,-2,-1,-4
27748247690,2,0,-5,-1,-2,-1,-1,0
27748247690,2,-2,2,0,-1,-2,-2,1
27748249179,-1,2,-4,-2,-2,-3,0,-1
27748249179,3,-5,-4,1,0,0,-3,-5
27748261248,2,2,2,0,-1,-1,-1,0
27748261248,5,8,1,0,1,0,1,4
27748270164,-12,-11,-4,-3,-2,0,0,-4
27748270164,3,16,-1,-2,-3,-2,0,1
27748285128,-1,2,0,0,-2,-2,-1,1
27748285128,-7,-3,-1,-1,-3,-1,-2,-3
27748286620,7,3,-11,-2,-1,-2,-3,4
27748286620,-1,-2,8,1,-2,-1,-2,-13
27748307580,-3,-7,-7,-4,-2,1,0,-1
27748307580,-1,0,-3,-2,-3,-3,-4,1
27748309092,5,-6,-1,0,0,0,-1,-10
27748309092,2,-4,-3,-2,1,-2,1,11
27748321255,7,4,0,-2,-1,-1,0,3
27748321255,2,-9,-5,0,0,-2,-1,0
27748330089,-8,12,7,2,0,1,0,-5
27748330089,4,-2,-3,0,-1,-1,0,3
27748344445,-12,2,1,-1,-3,-3,-3,-10
27748344445,-8,-4,-3,-1,0,-1,1,3
27748351252,3,0,3,0,0,-1,-2,1
27748351252,-3,-13,-7,-2,-2,-1,1,0
27748367589,-2,-12,-9,1,0,1,0,-2
27748367589,1,26,15,1,1,2,1,-1
27748369097,0,2,2,-2,-1,-1,-3,-8
27748369097,-4,-23,-16,-6,-1,1,-2,0
27748381132,0,9,11,1,-1,-2,-1,3
27748381132,3,0,3,1,1,0,-1,-3
