27727396780,-0.0963134765625,0.196533203125,-0.812622070312,0.540161132812
27727413148,-0.0963134765625,0.196533203125,-0.812622070312,0.540161132812
27727434232,-0.0963745117188,0.196472167969,-0.812622070312,0.540161132812
27727457987,-0.0939331054688,0.19921875,-0.811950683594,0.540588378906
27727472882,-0.0951538085938,0.19775390625,-0.812316894531,0.540344238281
27727494395,-0.0963745117188,0.196166992188,-0.812744140625,0.540100097656
27727517916,-0.0978393554688,0.194702148438,-0.813110351562,0.539794921875
27727533095,-0.0967407226562,0.196228027344,-0.812744140625,0.5400390625
27727554323,-0.0961303710938,0.196960449219,-0.812561035156,0.540161132812
27727610172,-0.100524902344,0.191711425781,-0.813781738281,0.539367675781
27727612145,-0.103149414062,0.188537597656,-0.814575195312,0.538818359375
27727612943,-0.102111816406,0.18994140625,-0.814208984375,0.539001464844
27727629325,-0.101379394531,0.190856933594,-0.814025878906,0.539123535156
27727653545,-0.0986328125,0.190856933594,-0.814208984375,0.539367675781
27727670808,-0.0987548828125,0.191223144531,-0.814208984375,0.539245605469
27727711621,-0.098876953125,0.191528320312,-0.814086914062,0.539245605469
27727721802,-0.0988159179688,0.191528320312,-0.814086914062,0.539245605469
27727727972,-0.0988159179688,0.191589355469,-0.814086914062,0.539245605469
27727749687,-0.0985107421875,0.191101074219,-0.814086914062,0.539489746094
27727772288,-0.103210449219,0.185241699219,-0.815368652344,0.538696289062
27727796618,-0.108154296875,0.179382324219,-0.816711425781,0.537719726562
27727810454,-0.110717773438,0.176574707031,-0.817321777344,0.537170410156
27727834069,-0.109802246094,0.177917480469,-0.817016601562,0.537353515625
27727856170,-0.108825683594,0.17919921875,-0.816772460938,0.537536621094
27727870463,-0.111938476562,0.175598144531,-0.817504882812,0.536926269531
27727893648,-0.115539550781,0.17138671875,-0.818481445312,0.5361328125
27727916606,-0.111877441406,0.17626953125,-0.817504882812,0.536804199219
27727930542,-0.107788085938,0.181518554688,-0.816345214844,0.53759765625
27727953647,-0.109802246094,0.182189941406,-0.816101074219,0.537414550781
27727976140,-0.110229492188,0.181884765625,-0.816101074219,0.537353515625
27727997332,-0.109436035156,0.181579589844,-0.816345214844,0.537231445312
27728013699,-0.109008789062,0.180969238281,-0.816589355469,0.537170410156
27728036107,-0.109130859375,0.180419921875,-0.816772460938,0.537109375
27728057188,-0.109680175781,0.180786132812,-0.816833496094,0.536743164062
27728074089,-0.109497070312,0.1806640625,-0.817199707031,0.536254882812
27728096150,-0.109130859375,0.179382324219,-0.818054199219,0.535522460938
27728117325,-0.108642578125,0.17822265625,-0.818969726562,0.534484863281
27728133649,-0.1083984375,0.177368164062,-0.819641113281,0.533874511719
27728156172,-0.107543945312,0.176696777344,-0.820068359375,0.533630371094
27728177371,-0.10546875,0.176086425781,-0.820251464844,0.533935546875
27728193678,-0.10302734375,0.176086425781,-0.820068359375,0.53466796875
27728216114,-0.0999145507812,0.176696777344,-0.819763183594,0.535522460938
27728237329,-0.0958251953125,0.176879882812,-0.819519042969,0.53662109375
27728253651,-0.0908813476562,0.176818847656,-0.819152832031,0.538024902344
27728276111,-0.0848999023438,0.176330566406,-0.818725585938,0.539855957031
27728297228,-0.0781860351562,0.175476074219,-0.818054199219,0.542114257812
27728312998,-0.0711059570312,0.174926757812,-0.817749023438,0.543701171875
27728343610,-0.0631103515625,0.173400878906,-0.817932128906,0.544921875
27728357269,-0.0538330078125,0.170043945312,-0.818298339844,0.546447753906
27728372928,-0.0443725585938,0.167724609375,-0.81884765625,0.547241210938
27728396128,-0.0354614257812,0.167236328125,-0.818725585938,0.548156738281
27728417299,-0.0275268554688,0.169006347656,-0.817993164062,0.549133300781
27728432967,-0.0180053710938,0.170715332031,-0.817199707031,0.550231933594
27728456179,-0.00665283203125,0.172180175781,-0.81640625,0.551147460938
27728478581,0.005126953125,0.174987792969,-0.815368652344,0.551818847656
27728492965,0.0173950195312,0.17822265625,-0.814025878906,0.552551269531
27728516103,0.0308227539062,0.181030273438,-0.812316894531,0.553588867188
27728538635,0.04443359375,0.184814453125,-0.809997558594,0.554748535156
27728552978,0.0572509765625,0.190795898438,-0.806823730469,0.556213378906
27728576109,0.06982421875,0.197204589844,-0.802917480469,0.558166503906
27728598612,0.0828857421875,0.202209472656,-0.798889160156,0.560363769531
27728612961,0.095947265625,0.20751953125,-0.794616699219,0.562438964844
27728636219,0.108581542969,0.213562011719,-0.789855957031,0.564575195312
27728658593,0.121032714844,0.219360351562,-0.78466796875,0.567016601562
27728679779,0.133972167969,0.225280761719,-0.778991699219,0.569580078125
27728702216,0.149353027344,0.226867675781,-0.772888183594,0.573486328125
27728719146,0.162902832031,0.228271484375,-0.767883300781,0.575927734375
27728741128,0.176574707031,0.230285644531,-0.761779785156,0.579223632812
27728762319,0.18994140625,0.232299804688,-0.755187988281,0.582763671875
27728778713,0.202331542969,0.235412597656,-0.748352050781,0.586120605469
27728801111,0.214294433594,0.2392578125,-0.740966796875,0.589721679688
27728829663,0.226196289062,0.242736816406,-0.733276367188,0.593444824219
27728837907,0.237487792969,0.246398925781,-0.725769042969,0.596801757812
27728861154,0.247619628906,0.250305175781,-0.71826171875,0.60009765625
27728883614,0.255920410156,0.254943847656,-0.71044921875,0.603942871094
27728906112,0.262390136719,0.261474609375,-0.701416015625,0.608947753906
27728928621,0.266052246094,0.269958496094,-0.690979003906,0.615478515625
27728943624,0.267517089844,0.279663085938,-0.68017578125,0.622497558594
27728957952,0.267517089844,0.289672851562,-0.669860839844,0.629089355469
27728981151,0.268493652344,0.29833984375,-0.659851074219,0.635192871094
27729003616,0.27099609375,0.30517578125,-0.650512695312,0.640441894531
27729017938,0.273559570312,0.3125,-0.641845703125,0.644592285156
27729040887,0.274841308594,0.320739746094,-0.633361816406,0.648376464844
27729063600,0.276611328125,0.328063964844,-0.624633789062,0.652465820312
27729078002,0.27880859375,0.335205078125,-0.615539550781,0.656494140625
27729085514,0.279663085938,0.343627929688,-0.606323242188,0.660339355469
27729106634,0.280456542969,0.350769042969,-0.597717285156,0.664123535156
27729129240,0.282104492188,0.355895996094,-0.590087890625,0.66748046875
27729152973,0.284118652344,0.361083984375,-0.583251953125,0.669860839844
27729166514,0.286193847656,0.365661621094,-0.576843261719,0.671997070312
27729189144,0.288330078125,0.368469238281,-0.571044921875,0.674560546875
27729211620,0.289184570312,0.37158203125,-0.565368652344,0.67724609375
27729226637,0.288452148438,0.376037597656,-0.559143066406,0.680236816406
27729249177,0.286743164062,0.380310058594,-0.552856445312,0.683715820312
27729265461,0.283203125,0.384704589844,-0.546081542969,0.688171386719
27729294095,0.277893066406,0.390075683594,-0.538269042969,0.693420410156
27729317256,0.269897460938,0.397216796875,-0.530151367188,0.69873046875
27729325475,0.261962890625,0.402893066406,-0.522094726562,0.704528808594
27729354137,0.2529296875,0.408386230469,-0.513610839844,0.710876464844
27729376939,0.23974609375,0.416625976562,-0.503479003906,0.717956542969
27729386914,0.224365234375,0.426147460938,-0.491516113281,0.7255859375
27729409383,0.210388183594,0.43505859375,-0.4794921875,0.732421875
27729429134,0.196960449219,0.444580078125,-0.469604492188,0.736877441406
27729445430,0.185913085938,0.451965332031,-0.463073730469,0.739379882812
27729466713,0.179565429688,0.457641601562,-0.458984375,0.739990234375
27729489180,0.176208496094,0.461547851562,-0.456176757812,0.740112304688
27729505484,0.172302246094,0.463989257812,-0.45556640625,0.739929199219
27729536913,0.166442871094,0.466064453125,-0.457275390625,0.738830566406
27729549097,0.162963867188,0.466918945312,-0.458679199219,0.738220214844
27729565481,0.160461425781,0.466491699219,-0.459594726562,0.738525390625
27729586627,0.156066894531,0.466064453125,-0.460876464844,0.738891601562
27729609090,0.151611328125,0.466125488281,-0.463195800781,0.738342285156
27729625520,0.149353027344,0.46630859375,-0.466186523438,0.736755371094
27729646597,0.148681640625,0.466125488281,-0.468872070312,0.7353515625
27729669147,0.146484375,0.466369628906,-0.470764160156,0.734436035156
27729685437,0.142883300781,0.467468261719,-0.472839355469,0.733093261719
27729706687,0.140502929688,0.468200683594,-0.476440429688,0.730712890625
27729737227,0.139831542969,0.468383789062,-0.480346679688,0.728149414062
27729745429,0.14013671875,0.467468261719,-0.484313964844,0.72607421875
27729766593,0.139221191406,0.467102050781,-0.487426757812,0.724426269531
27729789006,0.137817382812,0.46728515625,-0.490539550781,0.722473144531
27729805524,0.137084960938,0.466369628906,-0.494812011719,0.720275878906
27729826613,0.137023925781,0.464904785156,-0.499755859375,0.717834472656
27729849070,0.136596679688,0.463073730469,-0.504699707031,0.715637207031
27729867344,0.1357421875,0.461242675781,-0.50927734375,0.713745117188
27729889890,0.135009765625,0.459655761719,-0.513610839844,0.711791992188
27729911920,0.134765625,0.457885742188,-0.51806640625,0.709716796875
27729926926,0.135131835938,0.455505371094,-0.522827148438,0.707702636719
27729946537,0.135314941406,0.452331542969,-0.5283203125,0.705627441406
27729969197,0.134704589844,0.449523925781,-0.534484863281,0.702880859375
27729986917,0.135131835938,0.446655273438,-0.541259765625,0.699462890625
27730014145,0.135559082031,0.44384765625,-0.547973632812,0.695922851562
27730029070,0.13427734375,0.442321777344,-0.554077148438,0.692321777344
27730047065,0.133361816406,0.440246582031,-0.560241699219,0.688842773438
27730066595,0.133666992188,0.436340332031,-0.567749023438,0.685119628906
27730089044,0.134338378906,0.431030273438,-0.576904296875,0.6806640625
27730106897,0.134399414062,0.425720214844,-0.586303710938,0.675903320312
27730126625,0.1337890625,0.421020507812,-0.595031738281,0.67138671875
27730149070,0.13330078125,0.414794921875,-0.603698730469,0.667602539062
27730166917,0.131774902344,0.408752441406,-0.612182617188,0.663879394531
27730186597,0.127990722656,0.404052734375,-0.620422363281,0.659851074219
27730217971,0.123413085938,0.3994140625,-0.629089355469,0.655334472656
27730226931,0.11962890625,0.393005371094,-0.638916015625,0.650329589844
27730246627,0.116516113281,0.385437011719,-0.649841308594,0.644592285156
27730269126,0.113342285156,0.37744140625,-0.661560058594,0.638000488281
27730292921,0.110290527344,0.368225097656,-0.673889160156,0.630920410156
27730306611,0.106994628906,0.357421875,-0.686645507812,0.623962402344
27730329075,0.102111816406,0.3466796875,-0.698547363281,0.617553710938
27730346895,0.0952758789062,0.337524414062,-0.709045410156,0.611755371094
27730369371,0.0875244140625,0.328674316406,-0.719177246094,0.605834960938
27730388975,0.0787963867188,0.320373535156,-0.728881835938,0.599914550781
27730421748,0.0690307617188,0.313293457031,-0.737548828125,0.594177246094
27730434135,0.058837890625,0.307922363281,-0.744995117188,0.588806152344
27730449090,0.0496215820312,0.302734375,-0.752136230469,0.583251953125
27730466919,0.0418090820312,0.296875,-0.759094238281,0.577819824219
27730495444,0.0352172851562,0.289794921875,-0.765869140625,0.572875976562
27730516631,0.0291748046875,0.282592773438,-0.772094726562,0.568481445312
27730526956,0.023681640625,0.275207519531,-0.778137207031,0.564086914062
27730547912,0.0192260742188,0.266418457031,-0.784545898438,0.559631347656
27730569077,0.0162353515625,0.255615234375,-0.791076660156,0.555541992188
27730594419,0.0139770507812,0.244323730469,-0.797119140625,0.552062988281
27730615442,0.0116577148438,0.233032226562,-0.802673339844,0.548950195312
27730629132,0.0089111328125,0.221862792969,-0.808166503906,0.545471191406
27730647357,0.00701904296875,0.209899902344,-0.813842773438,0.541809082031
27730667237,0.00634765625,0.196655273438,-0.819580078125,0.538208007812
27730697334,0.00567626953125,0.183776855469,-0.825073242188,0.534240722656
27730721712,0.00396728515625,0.172729492188,-0.830261230469,0.529907226562
27730727248,0.00091552734375,0.1630859375,-0.835083007812,0.525390625
27730749748,-0.0040283203125,0.155700683594,-0.839172363281,0.521118164062
27730772187,-0.0106201171875,0.151000976562,-0.842346191406,0.517211914062
27730787272,-0.0181274414062,0.1484375,-0.844909667969,0.513610839844
27730802978,-0.025634765625,0.146667480469,-0.84716796875,0.510070800781
27730826123,-0.0321655273438,0.1455078125,-0.849060058594,0.5068359375
27730848551,-0.0374145507812,0.144409179688,-0.850524902344,0.504333496094
27730862939,-0.042236328125,0.143798828125,-0.851623535156,0.502258300781
27730886113,-0.04638671875,0.14306640625,-0.852844238281,0.500122070312
27730908595,-0.0498046875,0.141967773438,-0.85400390625,0.498046875
27730922917,-0.0528564453125,0.141235351562,-0.85498046875,0.496215820312
27730946078,-0.0555419921875,0.141479492188,-0.855895996094,0.494323730469
27730968352,-0.0579833984375,0.1435546875,-0.856506347656,0.492431640625
27730997249,-0.060302734375,0.146911621094,-0.856628417969,0.490905761719
27731006114,-0.062744140625,0.150024414062,-0.856628417969,0.489685058594
27731028589,-0.0650024414062,0.151794433594,-0.856750488281,0.488647460938
27731049784,-0.06640625,0.152099609375,-0.85693359375,0.488037109375
27731066126,-0.065673828125,0.15087890625,-0.857299804688,0.48779296875
27731088579,-0.0659790039062,0.149597167969,-0.857604980469,0.487609863281
27731102919,-0.0657958984375,0.148986816406,-0.857238769531,0.488464355469
27731126059,-0.0648803710938,0.148498535156,-0.85693359375,0.489318847656
27731148603,-0.0634155273438,0.1474609375,-0.856750488281,0.490173339844
27731162927,-0.0623779296875,0.147399902344,-0.856567382812,0.490600585938
27731201103,-0.0623779296875,0.148132324219,-0.856262207031,0.490905761719
27731208618,-0.0625610351562,0.148742675781,-0.85595703125,0.491271972656
27731222976,-0.0625,0.149047851562,-0.855773925781,0.491455078125
27731246143,-0.062744140625,0.150146484375,-0.855590820312,0.491455078125
27731276542,-0.0625,0.148193359375,-0.855895996094,0.491577148438
27731282945,-0.0623779296875,0.146118164062,-0.855834960938,0.492248535156
27731306117,-0.0634155273438,0.146057128906,-0.854858398438,0.493774414062
27731329072,-0.0652465820312,0.148376464844,-0.85302734375,0.496032714844
27731349780,-0.06787109375,0.152893066406,-0.850524902344,0.498657226562
27731366068,-0.071533203125,0.159118652344,-0.847534179688,0.501220703125
27731394538,-0.0755004882812,0.166381835938,-0.844299316406,0.503845214844
27731409677,-0.0795288085938,0.173767089844,-0.8408203125,0.506530761719
27731426107,-0.0836791992188,0.181030273438,-0.837219238281,0.509216308594
27731448561,-0.0881958007812,0.188171386719,-0.833618164062,0.51171875
27731469785,-0.0928955078125,0.194274902344,-0.830505371094,0.513732910156
27731486093,-0.0971069335938,0.198791503906,-0.828063964844,0.51513671875
27731508569,-0.100402832031,0.200927734375,-0.826599121094,0.516052246094
27731529720,-0.102416992188,0.199768066406,-0.826232910156,0.516662597656
27731553593,-0.103576660156,0.196899414062,-0.82666015625,0.516906738281
27731568602,-0.105102539062,0.194396972656,-0.826965332031,0.517028808594
27731589691,-0.106750488281,0.192138671875,-0.827026367188,0.517395019531
27731606534,-0.107788085938,0.190063476562,-0.827087402344,0.517822265625
27731628595,-0.108642578125,0.189331054688,-0.826904296875,0.518310546875
