27671547848,-7,-7,-4,0,-1,-3,-3,5
27671547848,-3,4,3,0,0,1,0,-8
27671548584,9,-1,-6,1,-1,-6,-8,-4
27671548584,6,8,10,2,-1,5,5,-2
27671549366,11,1,1,-3,0,-3,-5,5
27671549366,-3,4,6,-1,-2,-2,-4,-9
27671550164,-1,-7,-13,-5,-1,0,2,1
27671550164,1,-3,-6,-4,-3,-4,-5,4
27671554465,2,-1,-2,0,0,1,1,-1
27671554465,2,-3,4,-2,-2,-1,-1,4
27671556901,-2,5,7,0,-1,2,1,1
27671556901,-3,-5,-5,0,0,-1,0,3
27671560239,-8,-1,2,-1,-2,-3,-6,-9
27671560239,-1,-1,-1,3,1,3,5,2
27671575271,-10,-14,-11,-4,-3,-5,-4,-11
27671575271,-2,3,1,-1,0,0,-5,1
27671583913,8,8,5,2,1,-2,8,17
27671583913,1,2,-4,0,1,3,4,-4
27671606886,3,0,7,1,0,3,4,2
27671606886,-1,-5,-4,-1,-1,0,0,-7
27671613380,-2,-2,-3,-4,-3,-5,-7,-7
27671613380,-3,6,3,0,1,3,6,5
27671622126,-10,-4,2,2,1,1,3,6
27671622126,-1,-4,-4,-3,-2,-4,-3,-3
27671624200,-10,-4,1,0,0,3,2,-10
27671624200,5,0,-4,-1,-2,-1,-2,4
27671642398,-3,1,-1,0,-1,-1,-4,-1
27671642398,-6,-2,-1,-2,-2,-2,-3,-3
27671681250,-1,3,-2,1,-1,-2,-2,-1
27671681250,-1,0,2,0,-2,-2,-3,-6
27671681830,2,1,8,0,-1,-2,-3,6
27671681830,-2,-11,-15,-3,-1,1,2,1
27671688904,1,-4,-1,-3,-2,-1,0,2
27671688904,1,2,-1,-1,0,-1,0,4
27671689582,-1,-3,-4,0,2,2,1,-4
27671689582,0,7,7,-2,-4,-5,-9,-7
27671695104,2,3,5,3,3,6,6,5
27671695104,4,-2,-5,-3,-2,-7,-9,-4
27671711421,-5,1,7,2,1,6,8,0
27671711421,-2,-6,-7,-2,0,-2,-2,0
27671712932,1,5,0,-1,1,0,0,-2
27671712932,2,4,1,-2,-2,-1,-3,-4
27671725736,1,-1,-3,-3,-1,-4,-4,-3
27671725736,4,6,1,1,-2,-5,-2,0
27671740052,-3,1,0,-3,-1,0,-2,-4
27671740052,1,-6,-1,2,3,6,9,4
27671747544,-5,-5,-8,-3,-2,-1,-2,-5
27671747544,-3,-1,11,3,0,2,4,0
27671763913,-1,-3,2,0,0,-4,-5,1
27671763913,-4,0,1,4,0,3,1,-4
27671771400,1,-4,-18,-7,-5,-5,-4,-1
27671771400,4,2,2,0,0,1,-1,-5
27671772901,-6,-4,0,2,0,5,6,-3
27671772901,-8,-15,-5,-1,-1,1,5,3
27671793927,3,19,9,3,-1,0,0,2
27671793927,-2,2,-6,-5,0,0,0,-1
27671795429,1,-3,-5,-2,-3,-4,-5,0
27671795429,-3,3,4,-3,0,-5,-5,0
27671807544,-1,-10,1,2,2,6,6,0
27671807544,-3,-8,1,-4,0,1,1,2
27671816464,-1,4,5,3,1,-1,-1,-2
27671816464,-2,-12,-17,-3,-3,-4,-4,0
27671831290,0,3,-6,-7,-4,-5,-5,-1
27671831290,-1,5,8,2,-3,0,-1,1
27671832912,1,-9,-4,-2,-1,-1,1,0
27671832912,0,17,11,4,1,0,1,-2
27671854016,0,-8,-6,-1,-1,-2,-1,1
27671854016,-2,-5,-1,-3,-2,-1,2,1
27671855423,-3,0,-3,-3,-1,-4,-2,-2
27671855423,5,11,5,-4,-1,3,0,3
27671867557,-2,-8,0,5,0,-1,1,0
27671867557,3,13,12,6,3,1,0,3
27671876454,-3,-1,-6,-4,-3,-3,-4,-4
27671876454,1,2,0,-3,0,1,1,0
27671891551,2,10,18,7,-1,-2,-1,-1
27671891551,-3,-15,-23,-8,-3,-1,1,-1
27671892937,-2,-5,-21,-13,-5,-4,-1,1
27671892937,-5,-16,1,0,-6,-2,0,-2
27671913926,-1,12,-3,-2,0,-2,-3,-3
27671913926,-2,-4,6,3,-5,-3,0,-2
27671915408,5,9,5,9,15,10,5,3
27671915408,-5,-8,10,8,2,0,0,3
27671927570,-1,-8,-48,-6,1,-1,-2,-1
27671927570,3,9,11,-17,-6,-4,-3,-2
27671936410,-3,-5,59,34,5,0,-1,-2
27671936410,6,6,20,2,-5,-4,-4,-5
27671951370,1,0,6,-7,-2,0,3,7
27671951370,6,-7,-82,-34,-3,2,-1,-2
27671952905,-11,-3,55,31,2,-3,-7,-19
27671952905,0,7,7,0,3,4,7,2
27671973906,-6,-18,-33,-17,-3,-5,-5,-3
27671973906,8,6,3,-6,-8,0,4,-2
27671975407,9,9,7,1,-5,-2,-2,11
27671975407,-4,-1,-2,-1,-1,-1,-3,-8
27671987596,-2,-5,8,7,3,5,2,-4
27671987596,-2,0,6,2,0,-5,-7,5
27671996453,5,-3,-50,-23,-4,-2,1,-2
27671996453,2,8,12,3,3,4,6,-3
27672018954,7,0,22,13,-1,-1,1,11
27672018954,-11,1,35,26,7,-3,-6,-10
27672020429,-12,-29,-94,-49,-12,-6,-5,-3
27672020429,4,5,-59,-31,-5,-2,-3,0
27672033927,2,21,89,58,10,-3,-8,-8
27672033927,0,1,17,9,5,6,5,5
27672035404,-3,-9,-20,-17,-8,-4,0,-2
27672035404,0,-2,8,-15,1,-1,-2,2
27672047528,-5,-1,14,16,-3,-2,-4,-3
27672047528,-6,-5,4,10,-4,-9,-9,-4
27672056423,-11,-6,-22,-27,-11,-6,-2,-6
27672056423,1,-10,-45,-11,-4,1,1,-2
27672070717,-2,8,34,-3,-6,-5,-6,-7
27672070717,-3,-6,-27,-32,-6,-6,-8,7
27672077496,1,8,52,46,9,10,13,11
27672077496,-7,-17,-27,2,-8,-6,-4,-1
27672093899,1,-12,-35,-29,-3,-1,2,0
27672093899,6,4,11,10,4,5,5,11
27672095380,-12,8,-8,-9,-4,-6,-11,-23
27672095380,5,-8,-32,-20,-3,0,3,3
27672116394,4,-1,-10,14,2,0,1,4
27672116394,3,-1,17,-6,0,2,4,-8
27672117906,-4,0,4,15,0,-5,-4,2
27672117906,-4,17,50,33,8,3,-4,-12
27672138764,-4,-20,-64,-37,-22,-13,-11,-15
27672138764,-3,-9,-35,-22,-8,-7,-3,5
27672140352,10,8,-4,22,13,9,7,10
27672140352,-5,1,85,23,0,-7,-11,-3
27672153810,-18,-5,-35,-13,-1,-5,-12,-20
27672153810,9,-3,-20,-9,7,24,33,25
27672155371,4,13,26,6,4,2,8,-3
27672155371,-3,-5,-40,-29,-5,-7,-7,4
27672176289,-1,3,34,16,10,12,13,5
27672176289,-7,1,10,25,3,-5,-9,-12
27672177912,12,-13,-95,-49,-11,-4,-3,13
27672177912,0,18,52,43,17,10,0,-14
27672190725,5,30,40,-8,-6,-5,2,19
27672190725,-13,-8,-6,6,3,1,-6,-16
27672197556,4,5,32,-7,-5,-2,-3,4
27672197556,-1,-5,61,33,7,-1,0,1
27672213071,2,3,13,16,6,-13,-29,-7
27672213071,-9,-13,27,6,0,14,34,-7
27672221404,16,19,47,-2,-5,-6,-9,6
27672221404,-10,-9,-25,2,-2,0,15,5
27672236342,13,-10,-92,-45,-1,13,13,9
27672236342,2,28,124,74,13,-9,-17,-7
27672237922,-16,-33,-69,-26,-7,-10,-28,-13
27672237922,-4,-9,-25,-6,-4,-2,2,0
27672250720,1,-14,-77,-53,-7,7,30,13
27672250720,4,-1,-89,-37,-13,-7,-9,-2
27672257607,-8,3,57,13,2,8,14,2
27672257607,4,9,13,26,5,-6,-12,0
27672273817,-1,3,5,0,1,-4,-12,-6
27672273817,-4,-8,5,14,5,4,-1,-7
27672275467,-2,18,76,47,9,9,14,16
27672275467,0,-11,-94,-75,-18,-1,4,0
27672296862,0,20,127,114,33,15,13,-2
27672296862,-1,0,-50,-33,-12,-16,-33,-10
27672298356,6,24,57,45,-1,-9,1,-2
27672298356,-1,3,-38,-17,-5,-4,-4,3
27672319406,-7,8,34,7,-2,0,0,-10
27672319406,-1,-21,-39,-12,1,7,9,4
27672320909,-8,-13,-23,-28,-2,-1,4,-4
27672320909,6,6,9,0,-5,-6,-8,1
27672333803,-10,-17,-31,-35,-14,-14,-18,-11
27672333803,1,-1,24,-11,0,5,6,3
27672335414,2,11,43,50,14,-1,-6,-6
27672335414,-2,-7,0,12,-1,-8,-14,-5
27672357685,8,8,30,-14,-5,10,23,7
27672357685,2,-6,-95,-39,-9,-1,2,7
27672359389,6,-15,-55,-11,2,3,6,3
27672359389,-2,38,73,2,-1,-3,-4,-8
27672370047,-9,-9,46,34,-4,-18,-32,-1
27672370047,-4,-1,31,-2,-5,-4,-21,-6
27672378965,6,14,28,-19,-7,3,34,0
27672378965,-6,-16,-21,7,4,-1,-3,-6
27672393933,8,1,-41,-41,-8,8,8,20
27672393933,-7,4,16,10,-2,-9,-3,-9
27672395421,-3,-12,-37,-11,-3,-9,-26,-11
27672395421,-12,-5,57,22,4,-2,-5,-2
27672416409,7,-6,-65,-22,-7,-1,12,1
27672416409,3,-5,41,19,7,2,1,3
27672417935,3,-9,-57,-22,-6,4,4,4
27672417935,-3,-18,-128,-55,-14,-10,-10,-2
27672430045,-4,5,56,3,5,12,14,2
27672430045,-1,2,13,16,3,-2,-3,2
27672438908,-3,1,21,-18,-7,-3,-6,-7
27672438908,5,4,19,20,1,-2,-4,3
27672453810,-2,-24,-59,-10,-3,-3,-4,6
27672453810,-5,-9,-45,-32,-9,-10,-7,-11
27672455363,-12,-3,-32,-17,-8,-14,-54,-32
27672455363,-7,-15,-38,-6,-2,14,65,42
27672476393,0,20,71,25,4,-1,1,-7
27672476393,9,-1,-65,-40,-11,1,11,9
27672477910,-8,-18,-6,8,1,-10,-13,-10
27672477910,-2,-25,-31,-16,-1,0,-20,-9
27672490072,-1,18,5,1,1,-1,0,-8
27672490072,13,23,32,38,8,6,12,10
27672498913,-5,8,28,-18,-2,-1,-5,-2
27672498913,7,-2,-4,-24,4,7,-1,-3
27672521419,-3,-5,65,27,10,6,10,3
27672521419,-4,-8,11,8,2,-4,-17,-7
27672522903,4,6,35,9,-4,4,16,9
27672522903,3,-6,-23,-5,-1,4,3,0
27672536466,-2,-6,-38,-5,0,-13,-32,-10
27672536466,-2,-7,4,-31,-9,7,29,10
27672537916,-6,16,51,68,7,-19,-58,-21
27672537916,24,5,11,-11,-1,25,74,35
27672549949,-3,-1,-29,0,-3,3,8,5
27672549949,-6,6,47,24,5,1,3,-1
27672558915,6,-26,-89,-62,-14,-1,12,9
27672558915,-22,10,98,70,10,-24,-50,-37
27672573869,8,6,-10,8,-10,-9,-6,9
27672573869,-4,1,-19,5,3,4,6,-9
27672575399,5,15,-16,-1,-3,3,12,8
27672575399,-3,-2,-21,-4,-1,-4,-18,-7
27672596384,-2,-20,2,-2,-2,-4,2,-3
27672596384,-14,-9,65,58,16,-1,-11,-8
27672597892,-4,-13,-38,-26,-5,2,8,3
27672597892,1,-9,-65,-46,-9,4,4,2
27672618851,-4,-14,-71,-37,-9,-7,-5,-7
27672618851,5,27,67,23,-2,-23,-63,-25
27672620383,-13,-41,-58,-1,3,15,54,12
27672620383,4,-8,-59,-29,-9,2,5,20
27672633873,4,3,-8,0,4,9,19,4
27672633873,1,9,58,19,-1,-7,-1,4
27672635379,-9,-7,-89,-55,-11,-7,-9,-10
27672635379,-9,-8,-14,-2,-6,-15,-30,-18
27672655455,-7,-13,12,10,3,6,4,-7
27672655455,-5,-13,-103,-44,-9,-1,5,4
27672670049,11,23,94,48,6,-2,-5,7
27672670049,4,9,4,14,6,2,4,2
27672678853,2,6,-33,-2,-1,1,-5,-1
27672678853,-1,-6,-9,-10,-3,-1,7,3
27672680411,-4,-14,-38,-40,-12,0,-2,1
27672680411,7,28,121,72,21,6,4,-4
27672701307,-10,-19,-8,-11,-11,-13,-16,-7
27672701307,-4,2,-54,-46,-5,17,30,5
27672702915,3,11,73,57,4,-9,-3,-1
27672702915,6,15,-25,-28,-17,-9,-6,-10
27672724446,-17,-16,7,-14,-1,-28,-81,-28
27672724446,23,16,9,44,20,41,86,46
27672725901,-9,-4,-7,-20,-7,-3,3,3
27672725901,-3,-9,-19,-23,-10,1,8,-4
27672738928,3,20,69,29,8,1,-4,0
27672738928,-16,-41,-109,-57,-23,-22,-47,-20
27672740403,8,14,47,8,7,12,22,11
27672740403,8,1,7,18,11,0,-4,6
27672761406,1,7,-10,-8,-5,1,9,0
27672761406,0,-12,-61,-38,-10,-10,-14,-2
27672762901,-6,10,90,59,21,7,-3,-4
27672762901,-9,-8,-12,0,0,-11,-26,-13
27672775040,3,-7,-36,-24,-7,23,51,15
27672775040,9,40,127,91,16,-2,0,-1
27672783911,5,1,-32,-22,-2,-12,-25,-9
27672783911,-2,-9,-20,-1,5,11,16,4
27672798865,-2,-4,-22,-13,0,-4,-6,-4
27672798865,-8,-8,35,19,2,-4,-7,-5
27672800359,-4,-17,-64,-33,-7,1,11,3
27672800359,-9,6,92,42,6,-12,-28,-16
27672821401,1,8,-22,-12,-2,12,1,-2
27672821401,-4,-23,-5,-18,-12,-5,23,12
27672822906,-8,2,-39,-11,-2,-8,-22,-16
27672822906,4,12,10,14,10,8,-2,1
27672834979,-6,-12,-39,-5,2,13,37,5
27672834979,7,4,14,-3,2,-4,-15,3
27672849915,-2,-5,0,-5,-10,0,8,2
27672849915,7,-4,-36,-12,2,9,8,6
27672873755,-2,4,33,25,-1,-16,-10,-10
27672873755,3,19,33,-3,-3,2,-7,-2
27672875369,-4,-21,-34,25,5,3,6,1
27672875369,-3,17,36,-1,-4,-5,-11,-9
27672881248,0,5,24,20,2,-9,-23,-2
27672881248,5,6,54,31,9,5,24,7
27672882873,0,12,-41,-14,-5,-19,-56,-22
27672882873,-2,-25,-23,-4,5,45,92,36
27672895597,7,6,-19,-1,-1,1,-1,0
27672895597,-3,1,-15,-13,-3,0,3,-5
27672902401,14,41,25,11,11,1,-4,4
27672902401,-13,-36,-43,-42,-16,-15,-16,-9
27672926264,2,3,-88,-48,-8,-4,-6,1
27672926264,-12,14,14,16,5,-6,-20,-17
27672927903,-3,-27,-29,-10,-4,4,11,1
27672927903,-1,-6,-20,-26,-16,-17,-18,-2
27672941363,7,16,69,8,-2,-3,3,1
27672941363,-7,-36,-128,-61,-12,-10,-19,-8
27672942919,-13,-8,0,33,12,10,22,-2
27672942919,1,15,5,-11,-14,-12,-10,-5
27672955697,-5,-25,-62,-34,-4,1,-1,6
27672955697,-10,7,31,30,-6,-26,-45,-27
27672962517,-14,-21,1,-11,1,-1,3,6
27672962517,0,-8,12,19,11,33,43,14
27672978902,0,-1,-27,5,2,-1,10,3
27672978902,8,-2,-56,-23,-6,2,2,4
27672980418,3,-3,-61,-36,-10,-7,-16,-1
27672980418,-6,0,-33,15,12,-4,-18,-9
27673001283,-4,-13,46,-29,-8,1,8,1
27673001283,4,21,42,50,14,7,4,1
27673002937,-5,-7,26,17,0,-3,7,0
27673002937,7,-11,-89,-33,-17,-8,-6,5
27673024382,-4,13,-36,-20,6,-6,-14,-8
27673024382,0,-4,-28,-7,-2,-16,-36,-12
27673025979,2,-3,26,-16,0,26,47,19
27673025979,-2,-15,-84,-82,-24,-17,-18,-4
27673053947,0,6,41,41,5,-12,-30,-14
27673053947,-5,-10,2,-20,-4,13,34,9
27673055405,8,-14,-73,-22,-7,-2,-3,1
27673055405,1,41,56,-18,-3,1,-3,-4
27673076916,6,-3,-20,0,11,14,15,9
27673076916,2,-4,23,11,-6,-10,-17,-6
27673078529,0,-6,13,18,-1,-6,-15,-4
27673078529,7,19,12,31,5,-3,7,7
27673079330,-8,-14,-25,6,0,0,3,-7
27673079330,4,12,-17,-15,-7,-12,-35,-5
27673083880,-11,-19,-26,-39,-17,8,23,-2
27673083880,4,-2,22,21,4,4,17,16
27673098899,-3,-14,-57,-31,-19,-12,8,2
27673098899,-1,-1,-19,13,10,9,19,3
27673106406,6,0,-66,-51,-8,-12,-27,-10
27673106406,-6,-12,26,29,10,-6,-22,-10
27673121188,-9,3,28,17,2,4,9,-5
27673121188,12,25,46,12,-1,3,10,5
27673128251,3,29,59,31,6,-5,-9,-2
27673128251,-8,-23,29,3,-2,-6,-5,-7
27673144291,-23,-21,35,7,-5,-3,0,-7
27673144291,16,-4,-33,-46,-14,-19,-38,-10
27673145011,-1,13,83,52,14,4,14,13
27673145011,2,7,29,39,-3,10,37,12
27673158139,21,27,51,-9,-10,-9,-20,-2
27673158139,-12,-46,-26,-22,-11,2,34,6
27673158897,8,8,-78,-46,-11,-2,-2,-3
27673158897,-2,2,-14,-20,-5,-23,-44,-14
27673182051,-14,-28,-55,-22,-20,-2,0,-6
27673182051,1,6,37,50,20,8,5,4
27673182959,6,14,35,44,4,-15,-29,-12
27673182959,-17,-1,2,12,2,-10,-22,-18
27673205258,8,-28,-65,-20,4,28,37,21
27673205258,-2,2,-95,-85,-22,-5,11,20
27673206081,-12,-19,-29,-1,-2,-6,-22,-16
27673206081,9,-9,-5,-9,2,-2,-19,-9
27673226870,15,9,66,82,26,23,61,26
27673226870,-22,-17,-24,3,1,3,-11,-15
27673227581,5,12,37,-1,2,4,29,17
27673227581,-1,2,-61,-24,-12,-12,-29,-10
27673256443,-11,4,12,-22,-3,-14,-32,-18
27673256443,11,12,-2,31,26,23,25,13
27673257064,13,26,50,19,4,-1,-11,3
27673257064,-10,-16,-12,15,8,7,11,-2
27673280169,-9,-20,-73,0,4,-18,-34,-6
27673280169,-4,15,8,-51,-20,3,22,0
27673280921,-9,-26,-33,-14,-11,-17,-32,-21
27673280921,11,9,43,26,14,26,62,36
27673282494,14,26,74,28,2,-6,7,16
27673282494,-18,-40,-52,-15,-1,2,-7,-12
27673301940,-9,5,21,7,-5,-11,-7,-8
27673301940,1,-6,-10,-13,-5,-3,-11,-9
27673303531,0,23,3,-8,-7,-11,-25,-8
27673303531,10,18,109,62,9,-4,-1,0
27673304346,-19,-31,-45,3,9,10,8,-1
27673304346,-2,5,32,21,3,-10,-12,-8
27673323945,-1,-14,-31,-6,1,3,1,-3
27673323945,6,20,-42,-38,-16,-7,-9,-3
27673324567,20,18,-20,-18,-2,9,21,18
27673324567,-26,2,-13,18,7,-5,-18,-16
27673338490,7,13,45,11,2,-3,-7,-4
27673338490,-22,-41,-40,-22,-9,-16,-23,-15
27673345338,6,50,87,56,10,6,5,-2
27673345338,13,6,-36,-29,-4,11,27,12
27673360573,4,21,73,4,-7,-1,9,2
27673360573,-8,-17,-8,24,12,4,-3,1
27673361305,6,6,-10,-23,-9,-4,10,10
27673361305,-12,-11,-30,-24,-6,-9,-15,-15
27673383899,6,8,-14,1,2,1,-9,-2
27673383899,7,11,35,4,3,3,3,6
27673384566,6,-23,-36,-18,-6,3,4,4
27673384566,0,12,8,-20,-15,-10,-6,-3
27673406856,-15,28,32,51,14,-1,-15,-17
27673406856,-5,-14,-28,-15,-11,-3,5,0
27673407497,-2,-6,20,4,-8,1,9,5
27673407497,17,14,-33,-6,1,-2,-8,4
27673429307,-14,-1,76,58,12,-17,-40,-21
27673429307,11,8,4,14,10,29,45,21
27673430058,-17,-30,-42,1,-4,-14,-9,-9
27673430058,-2,-11,15,14,-1,-7,-13,-6
27673435051,5,-7,-71,-26,-9,0,1,3
27673435051,11,31,105,39,15,8,17,10
27673450665,-15,-21,-29,-16,4,3,-13,-3
27673450665,10,5,67,36,4,11,14,0
27673458130,1,7,-41,-39,-16,-19,-17,4
27673458130,-4,4,-17,26,13,7,-2,-9
27673458919,12,10,32,-12,-6,-2,4,1
27673458919,-7,-13,5,9,-2,-5,-5,-4
27673481184,-2,4,51,58,15,3,1,-9
27673481184,-6,15,82,15,1,-12,-19,-6
27673481964,5,-14,-13,11,8,11,10,-2
27673481964,0,0,-27,-35,-10,0,9,10
27673503895,14,12,-39,-25,-4,14,21,14
27673503895,-17,-38,-71,-10,-2,-25,-55,-23
27673504536,4,41,48,18,18,25,35,5
27673504536,-1,0,-32,-25,-12,-24,-23,-18
27673534330,-6,-21,-6,-9,4,30,60,28
27673534330,1,2,-4,-11,-3,4,-1,2
27673535024,-3,33,94,44,3,-13,-16,-7
27673535024,13,-2,-14,30,-1,-7,-23,-1
27673556387,-27,-19,46,-11,-3,-1,-1,-10
27673556387,7,-15,-47,-14,-5,2,22,6
27673557084,-5,-22,-46,-25,-11,-6,-6,-4
27673557084,-9,-4,-18,-20,3,11,14,5
27673580159,10,-12,-78,-50,-13,-7,-19,-9
27673580159,0,13,34,13,-4,-8,-8,-5
27673580938,-9,-21,-56,-50,-14,1,-3,-2
27673580938,-7,-10,-19,-29,4,0,-12,-6
27673582483,0,-38,-41,11,3,-1,6,2
27673582483,0,21,49,-14,-14,-1,10,3
27673585683,7,3,28,9,4,-3,-3,6
27673585683,7,11,-1,-12,2,0,3,0
27673609249,0,-7,20,34,15,2,-11,-6
27673609249,-1,-32,-78,-29,-6,3,17,20
27673610054,6,63,99,52,12,-9,-31,-19
27673610054,-5,-27,11,12,0,18,52,20
27673623787,0,18,-49,-33,-13,-19,-24,-9
27673623787,8,-10,-44,-3,5,8,8,1
27673624554,-12,-24,-25,-28,-13,-7,-14,-2
27673624554,5,11,-9,-14,7,2,-4,-2
27673638168,5,-11,-87,-98,-25,-5,2,2
27673638168,-9,-1,21,54,15,-9,-38,-33
27673638920,12,14,-30,1,10,23,63,44
27673638920,-18,-20,-41,-40,-13,0,-3,-8
27673660630,7,15,14,26,-8,-4,-1,3
27673660630,5,1,13,-10,3,-3,-3,-5
27673661350,5,-7,-45,-29,-4,1,6,-1
27673661350,-20,-2,16,7,-6,-9,5,-4
27673684323,-4,6,80,23,7,13,9,-1
27673684323,4,1,-108,-87,-21,-8,-8,-4
27673685011,-11,13,87,104,13,-29,-76,-43
27673685011,0,29,88,35,12,24,56,28
27673698162,0,-17,-32,-7,-1,4,41,28
27673698162,-4,11,28,6,-8,-8,1,-6
27673698909,-2,-21,-82,-60,-21,-9,-5,-9
27673698909,-2,2,2,8,-6,-21,-71,-25
27673728869,1,7,60,53,22,16,35,1
27673728869,22,27,54,79,20,5,3,15
27673729582,-19,-17,50,5,-5,-9,-3,-2
27673729582,0,-19,-72,-27,-13,-8,-11,-8
27673743880,0,-4,-70,-32,-3,7,20,11
27673743880,-3,-3,4,-4,-5,-9,-12,-4
27673744546,1,-17,-14,4,7,6,-2,-3
27673744546,15,7,11,11,-1,-5,10,5
27673758685,-2,20,34,2,-11,-8,-28,-13
27673758685,-24,-36,-71,-63,-22,-9,-2,-10
27673759338,-2,4,15,8,3,-1,2,3
27673759338,3,-12,-13,2,6,14,13,10
27673782058,-1,-17,-55,-36,-10,-17,-26,-14
27673782058,-9,2,38,34,2,-5,-22,-10
27673782921,3,-10,-46,4,3,8,34,7
27673782921,-7,7,-3,14,6,-8,-15,-2
27673811216,11,22,46,23,9,6,0,2
27673811216,-5,-5,39,12,-2,-3,0,-5
27673811973,-1,4,-55,-34,-10,-14,-56,-13
27673811973,8,2,73,44,23,34,82,23
27673818068,-1,9,-7,-18,-6,-10,-14,-12
27673818068,-4,-30,-54,-17,-4,1,11,4
27673818879,2,26,46,5,-1,-6,-3,-6
27673818879,1,6,72,50,6,-2,-24,-3
27673840704,-4,3,-61,-35,-12,-6,-1,-6
27673840704,8,32,87,39,16,16,21,14
27673841368,3,-21,-72,-55,-20,0,13,10
27673841368,-9,-21,5,9,-5,-14,-22,-14
27673863844,-4,-2,-61,-22,-8,-8,-9,-3
27673863844,-3,8,6,11,-4,-8,-12,-6
27673864527,7,2,14,13,5,9,14,8
27673864527,-9,-20,-53,-33,-5,-12,-30,-13
27673878161,1,26,93,55,15,18,31,-2
27673878161,2,15,60,25,7,3,3,14
27673878936,-5,-8,-24,-24,-10,-2,6,0
27673878936,3,8,-33,-41,-8,-5,-3,-1
27673900758,-5,-19,-4,-5,-1,-8,-19,-8
27673900758,-8,-10,-68,-39,-11,-2,-2,-7
27673901348,1,0,43,38,10,2,8,4
27673901348,2,17,47,37,5,-5,-14,-8
27673940188,-4,-16,-11,-2,-3,-3,-6,-1
27673940188,-3,-24,-90,-64,-18,-2,4,1
27673940991,-6,-6,23,44,6,-2,-6,-3
27673940991,-1,-9,-37,-32,-7,0,2,-2
27673942524,0,13,40,17,2,0,1,5
27673942524,-3,-9,-20,-14,-3,-3,0,1
27673946151,-1,0,3,-4,2,3,2,-1
27673946151,2,11,-7,3,-2,-3,-2,-2
27673962159,-8,-35,-35,-8,0,-5,-9,-2
27673962159,2,24,37,5,-1,-1,-6,-2
27673962934,0,-3,-2,11,-1,2,9,4
27673962934,1,5,-3,-8,-6,-3,0,-1
27673985260,-1,-10,-19,-9,-2,-1,-7,1
27673985260,4,13,24,19,6,-2,-4,-6
27673986062,-1,-4,-13,-14,0,3,3,-1
27673986062,-1,-5,-9,-3,-1,0,2,3
27673998171,-3,-1,11,2,-5,-6,-7,-5
27673998171,-2,-7,-1,9,4,1,1,-1
27673998915,0,-2,-4,-13,-1,2,3,0
27673998915,-1,-9,-3,-2,-2,-5,-6,-2
27674020649,-3,7,0,0,-1,-2,-7,-7
27674020649,1,-1,12,9,1,3,5,13
27674021336,-9,-8,-21,-21,-8,-3,-4,-17
27674021336,8,-28,-15,-15,-7,0,0,16
27674043810,3,33,16,11,5,2,-3,-12
27674043810,-6,13,5,1,1,2,0,-13
27674044553,-3,-22,-11,-3,-2,0,3,16
27674044553,5,8,9,4,0,2,2,-2
27674058160,-8,-62,-16,-1,0,2,4,4
27674058160,17,75,26,1,0,0,-4,0
27674058923,-5,2,-6,-7,-2,-4,-5,-13
27674058923,-10,-1,-1,6,1,-1,-3,-9
27674080733,5,-12,7,3,-2,2,1,10
27674080733,-9,-23,-23,-2,-2,-1,-1,-10
27674081289,1,-8,6,-2,-2,-3,-2,1
27674081289,0,17,8,6,0,-2,-2,-2
27674111348,-3,9,4,0,-1,-2,-3,-6
27674111348,0,-33,-24,-7,-3,-3,0,10
27674112022,3,12,-1,-4,-2,-2,2,2
27674112022,-2,4,4,2,-4,-3,-2,-1
27674117458,-4,1,9,3,3,-1,-1,0
27674117458,1,5,3,-4,-4,-1,-2,-1
27674133149,-5,-23,-20,-7,-2,-1,1,3
27674133149,2,14,8,-1,-1,-2,-3,-5
27674140581,-5,5,-3,-4,-3,-1,0,-1
27674140581,0,-27,-17,-1,-1,-2,-2,-1
27674141360,-2,7,7,-2,-2,-2,-4,-7
27674141360,8,31,5,-1,-3,0,4,14
27674163893,-4,3,7,4,0,-1,-3,-4
27674163893,-3,-11,-5,0,-1,-1,-1,-1
27674164564,-6,-3,-3,-2,3,4,2,0
27674164564,-5,-17,-12,-4,-5,-3,-5,-6
27674177366,6,-2,-2,-1,0,0,3,14
27674177366,0,16,8,5,-1,-2,-1,-3
27674185597,0,21,9,-5,-4,-5,-4,-8
27674185597,-8,-15,-7,1,0,-2,-3,-11
27674208697,2,4,2,0,0,-1,-1,0
27674208697,-4,-17,-3,-3,-2,0,0,4
27674209490,3,-3,-17,-10,-3,1,2,5
27674209490,-1,-7,7,7,2,3,1,-1
27674230367,0,2,2,-1,-1,-2,-3,-2
27674230367,-2,-4,-8,-7,-2,-2,-3,-2
27674238866,-2,-6,5,3,2,-1,-1,-3
27674238866,-7,-2,-7,-4,-1,-1,1,1
27674240370,-4,-11,-8,-3,-5,-3,-6,-12
27674240370,2,6,9,-1,-4,0,1,8
27674245739,-3,-12,-8,1,2,4,3,3
27674245739,-1,15,17,7,0,-2,-1,-2
27674260559,-1,4,-3,-3,-3,-2,1,-4
27674260559,8,7,4,1,0,-2,-3,-2
27674261306,2,-6,-15,-9,-4,0,0,2
27674261306,-2,-3,12,7,-1,-3,-4,-6
27674283821,-2,-3,-3,-3,0,1,4,6
27674283821,-1,-8,-1,1,0,-1,0,-7
27674284570,0,-15,-8,-1,-1,0,-1,6
27674284570,4,18,1,-6,-1,0,0,2
27674313805,0,5,2,-1,-1,-3,-2,0
27674313805,-3,3,0,-1,0,-1,-1,-2
27674314509,0,-7,4,3,-1,-3,-3,-2
27674314509,-7,-15,-19,-9,-4,-1,-1,-3
27674336425,-2,-5,16,4,-1,-2,0,5
27674336425,0,7,-7,-2,3,4,0,-8
27674337021,-6,-3,11,1,-1,-3,-1,6
27674337021,4,1,-8,0,2,1,1,2
27674343779,2,2,-5,-4,-2,-1,-3,-1
27674343779,-13,-13,-3,-3,-3,-6,-5,-13
27674344589,7,-6,-7,1,-1,3,4,6
27674344589,0,11,11,2,1,-2,-1,-2
27674357387,-1,-5,-3,-1,-1,-3,-3,-1
27674357387,-4,-3,-5,-3,-3,-3,0,-2
27674365522,2,11,3,2,-1,-2,-4,-5
27674365522,0,-8,-2,-6,-2,1,-2,-1
27674380640,4,-6,-9,3,0,0,0,2
27674380640,-1,5,4,1,0,1,1,1
27674381346,-4,-5,-3,-7,-5,-5,-4,-6
27674381346,0,8,0,-1,-1,0,1,0
27674403774,-3,2,1,7,7,3,-1,-2
27674403774,-1,-10,-7,-3,-1,0,1,1
27674404525,0,-2,5,4,-3,-2,-1,-3
27674404525,-2,0,-3,-4,-6,-6,-6,-9
27674417431,3,14,14,-2,-4,-1,3,6
27674417431,1,-9,-17,-9,-2,-2,-1,2
27674425601,-4,-15,-6,-6,-4,-3,-3,-3
27674425601,-3,5,5,8,4,0,-1,-4
27674440472,-3,-12,-10,-3,-1,0,-1,-1
27674440472,0,-1,6,1,-2,-4,-5,-5
27674448119,-8,13,-7,-5,1,0,1,0
27674448119,0,-16,-11,-5,-5,-3,-1,2
27674463817,-11,-10,-2,-1,0,-2,-2,-6
27674463817,1,0,3,3,1,0,-2,-8
27674464511,0,11,5,-2,-1,-3,-1,5
27674464511,5,4,8,-2,1,-1,0,3
27674493933,-2,2,-2,-4,-3,-3,-2,-4
27674493933,0,-22,-17,-4,-5,-5,-3,1
27674494536,4,33,21,6,2,2,-2,-1
27674494536,-7,-18,-9,0,-1,0,-2,-2
27674516256,2,5,0,-4,-3,-2,-3,-2
27674516256,-1,7,9,2,1,0,2,1
27674517041,-4,-19,-18,-7,-3,-1,-1,-8
27674517041,1,2,2,-3,-1,-1,2,8
27674523818,2,10,9,9,2,1,-1,-3
27674523818,-3,-4,4,4,-1,-2,1,4
27674524525,-5,-4,-1,1,3,1,-1,-12
27674524525,3,2,-4,-7,-2,0,1,2
27674546255,3,-5,2,-3,-4,-1,-1,4
27674546255,-6,-2,-8,-2,-1,1,-1,-10
27674547004,6,11,3,5,1,0,2,9
27674547004,-3,1,2,-4,-1,0,-1,-7
27674560550,1,-3,-5,0,-1,-5,-8,0
27674560550,-15,-5,-7,-4,-4,-3,-1,-11
27674561330,7,10,-6,-3,2,10,13,14
27674561330,-4,-6,15,11,2,1,-1,-6
27674591238,2,1,-17,-7,1,0,-2,10
27674591238,3,-4,10,5,-2,-4,-10,-7
27674592076,-1,5,1,-2,-3,-1,0,-5
27674592076,2,-5,-17,-7,-2,1,2,3
27674605432,-8,-4,11,5,2,2,1,-7
27674605432,-2,-5,-4,-1,1,-1,-1,0
27674613220,-1,-2,2,2,-1,-4,-5,-4
27674613220,11,10,-3,-6,0,0,3,18
27674620536,-5,-1,9,-1,-5,-5,-2,-14
27674620536,-3,-4,3,-1,-5,-4,-1,8
27674621304,-4,-5,8,5,1,-1,-4,-15
27674621304,-3,1,-2,-3,-2,-4,-5,-2
27674643739,-3,1,-6,-4,0,5,8,1
27674643739,1,-1,-8,-5,-1,0,4,4
27674644566,-6,-12,2,-3,-2,-5,-4,-2
27674644566,-2,-5,2,8,1,-2,-5,-7
27674666323,-4,1,-13,-7,-3,-2,2,-1
27674666323,2,-2,2,-2,1,3,4,1
27674667016,5,8,5,4,-1,-1,0,5
27674667016,-15,-22,-25,-8,-4,-1,-3,-18
27674680602,2,17,14,1,0,0,0,-4
27674680602,1,3,-2,0,0,0,-1,2
27674681352,3,5,12,5,0,-2,-2,3
27674681352,-7,-24,-10,-3,-4,-2,-2,-11
27674703689,1,-2,-4,1,1,-1,0,6
27674703689,-3,-9,-7,-4,-1,1,3,2
27674704484,3,23,7,0,-1,1,-3,0
27674704484,-3,-9,-6,-3,-2,-2,1,-1
27674742078,1,4,-3,-4,-4,-2,-3,-3
27674742078,6,10,-2,-2,-1,-4,-3,5
27674742722,-4,-11,2,1,-3,0,-2,-6
27674742722,3,9,8,3,3,1,-1,5
27674744358,-3,-10,-2,2,-3,-4,-1,-2
27674744358,3,2,0,2,3,2,-1,2
27674748920,-2,-5,-13,-6,-2,-3,-1,-2
27674748920,-4,1,1,-3,-4,-5,-5,0
27674763839,-1,-11,-7,-6,-2,-2,-2,-3
27674763839,-6,-12,2,3,1,3,4,-2
27674765404,2,-5,-12,-4,-2,-3,-5,-3
27674765404,-1,13,15,7,2,2,4,7
27674793689,-3,-6,-4,-1,1,1,2,-2
27674793689,-1,7,13,5,-2,-1,-2,2
27674795363,-2,-9,-13,-6,-1,-3,-2,-5
27674795363,2,-7,-5,-2,-2,-2,-1,-2
27674799972,-2,3,5,1,-2,-2,-2,0
27674799972,-3,-2,1,-2,1,-1,-1,-5
27674808874,-1,-6,-15,-9,-6,-2,0,2
27674808874,2,5,22,15,4,-1,-2,0
27674823845,-3,-5,-11,-7,-4,0,-1,-3
27674823845,4,15,15,8,3,-2,1,0
27674825329,-2,-16,-9,-2,-3,-3,-1,-1
27674825329,1,22,12,4,3,1,1,0
27674846261,-3,-9,1,-1,0,-1,-1,-3
27674846261,-2,-3,-8,-7,-5,-1,-1,-1
27674847900,1,-1,3,-3,-1,-2,0,1
27674847900,0,-8,-11,-4,0,1,0,-2
27674859918,1,1,-7,-1,-2,-3,-3,-1
27674859918,3,9,5,-2,-2,-1,-3,2
27674868936,-6,-9,7,2,-2,-1,-2,-4
27674868936,-1,-9,-18,-9,-6,-3,-1,-1
27674883596,1,5,0,-2,2,0,-1,5
27674883596,-2,-4,-15,-8,-3,-2,-3,-3
27674889922,0,-2,13,3,1,-2,-1,1
27674889922,2,12,2,-1,-1,-2,-3,-2
27674906223,-3,-10,-1,2,0,2,-1,-3
27674906223,1,2,3,2,0,0,0,0
27674908054,-1,0,2,-2,-1,1,-2,2
27674908054,-6,-14,-22,-14,-5,-3,-1,-2
27674920017,4,9,10,6,2,1,1,-2
27674920017,-6,-16,-8,-2,-1,0,-1,-1
27674928889,-1,5,-5,-2,0,0,-2,-4
27674928889,0,-6,-1,-1,0,1,2,3
27674944301,-4,-14,-8,-4,-3,-2,-2,-2
27674944301,5,26,23,5,2,-1,0,3
27674945929,0,-5,-4,1,-2,-2,-2,-1
27674945929,-1,-5,-8,-3,-3,-1,-3,0
27674966259,-1,-6,0,3,1,0,-1,2
27674966259,-1,-3,1,-4,-2,-2,0,-4
27674967911,-3,6,5,-1,-1,-1,-2,-2
27674967911,2,-2,2,2,1,1,2,1
27674980041,-2,-5,-7,-4,-2,-2,-3,-4
27674980041,3,10,24,4,-4,-2,-1,8
27674988912,0,-3,-11,-5,-1,-3,0,-1
27674988912,5,4,-1,-2,-1,-1,-3,4
27675003814,-5,0,2,3,2,2,2,-2
27675003814,-8,-18,-16,4,2,0,0,-5
27675005340,0,6,-3,-9,-4,-1,0,2
27675005340,0,0,8,6,2,-2,-2,-2
27675026340,4,10,16,4,-1,0,0,-2
27675026340,-2,1,-3,3,0,1,-1,-2
27675027912,-4,-14,-10,-3,-1,0,1,-1
27675027912,0,4,0,-2,-1,0,-2,-3
27675040027,-4,-4,-6,-4,-2,-3,-4,0
27675040027,-7,-13,-19,-7,-2,0,2,-1
27675048902,3,6,14,3,-1,0,0,0
27675048902,-2,-1,-3,-1,-1,-1,-1,-2
27675063767,3,1,7,3,0,-1,0,4
27675063767,2,-3,-12,-7,-1,-3,-2,0
27675065353,-5,-8,-15,-4,0,0,-1,0
27675065353,0,7,28,9,1,0,-1,0
27675085325,-3,2,-16,-5,-2,-3,-1,-1
27675085325,2,-4,-11,-4,-3,-3,-2,-2
27675093905,0,-5,5,2,1,-1,-2,-1
27675093905,-2,3,-23,-11,-2,-1,-1,0
27675099949,1,3,37,17,3,3,0,-1
27675099949,-2,1,-5,-6,-4,-4,-2,-1
27675116387,0,-2,0,4,0,-3,-3,-1
27675116387,-1,-4,-5,0,0,0,4,1
27675123875,-2,-6,-17,-11,-5,-3,-1,-2
27675123875,-5,-3,0,2,-1,-2,-2,-2
27675125359,-1,4,9,3,-1,0,-1,0
27675125359,-2,-3,-5,-5,-3,-3,-3,-1
27675146682,0,-2,-7,-3,-2,-1,-2,-2
27675146682,1,-2,5,2,-2,-1,-3,-1
27675148358,-1,1,1,-1,-1,-1,0,0
27675148358,-7,-10,-8,-3,-1,0,-1,0
27675160013,-4,-10,-3,-4,-4,-2,-4,-7
27675160013,3,11,15,5,0,-3,-2,12
27675168912,10,12,5,1,0,2,0,-3
27675168912,0,-1,-3,0,-3,-3,-2,-1
27675198833,1,1,3,3,-1,-2,0,2
27675198833,2,-1,0,-2,1,0,0,-1
27675200341,-3,-5,-5,-1,-2,-4,-5,-4
27675200341,-8,-10,1,1,-1,3,2,7
27675206347,10,3,-11,-5,0,0,0,-1
27675206347,-4,1,5,3,1,4,1,-5
27675207903,-6,0,-3,-2,0,1,0,1
27675207903,4,-7,-3,0,-1,-4,-5,1
27675220040,-9,-2,-10,-3,-1,-2,-3,-10
27675220040,-3,2,1,1,1,1,3,-1
27675228929,-3,1,-3,-1,1,0,0,1
27675228929,2,2,4,1,0,2,-2,-7
27675243820,-2,3,3,0,1,2,2,9
27675243820,2,-4,-4,-2,-4,-3,-3,-3
27675245297,-6,-2,-2,-2,-2,-2,0,0
27675245297,2,-1,6,3,-1,-2,-1,-8
27675273790,5,0,0,-2,-2,-1,-3,-1
27675273790,2,-2,-6,-5,0,-1,0,-1
27675275313,-15,-9,-2,0,-2,-1,0,-4
27675275313,-1,0,1,-1,-2,0,-1,-2
27675279908,-3,2,0,-3,-2,-1,-1,-10
27675279908,1,-6,-1,-2,-1,-1,-4,-1
27675288905,0,-4,-2,0,1,1,-1,1
27675288905,-6,-3,-2,-1,0,-1,-2,-4
27675303783,-1,3,0,-2,-1,-1,-1,0
27675303783,1,2,-2,0,-2,-2,-1,-1
27675317536,4,4,1,1,0,1,0,-5
27675317536,-4,-2,-2,-1,-2,-1,0,-1
27675326269,1,-4,-3,-3,1,-2,0,1
27675326269,-4,-4,0,-1,-1,-1,-1,-6
27675327905,7,-3,-5,-1,-2,1,2,16
27675327905,10,5,2,0,-3,-1,-2,0
27675340080,-11,-2,0,-1,-1,-1,-3,-17
27675340080,-2,-3,-4,-2,-1,-3,0,-6
27675348932,-3,-2,-2,1,0,-3,-3,-3
27675348932,-2,-3,-2,-1,-3,-2,0,2
27675363880,0,7,3,1,-1,2,1,0
27675363880,1,-2,-1,-2,-2,0,0,2
27675365342,0,2,0,-1,-1,-2,0,-7
27675365342,-1,-2,-2,-2,-1,-2,-1,-1
27675386351,-2,-8,-5,-1,-3,-2,-2,1
27675386351,-3,0,0,1,-3,1,-1,1
27675387921,-1,-2,0,0,-2,-1,-3,-2
27675387921,0,-4,-6,-3,-1,0,-1,2
27675408843,2,4,-3,-2,-3,-4,-2,4
27675408843,-8,-2,0,0,0,0,-1,-8
27675416350,5,1,0,-2,-2,-2,-1,8
27675416350,-3,3,0,-1,0,-2,0,3
27675423818,-1,-9,-4,-2,-2,0,-1,-5
27675423818,-2,-3,-3,-1,-1,0,-2,1
27675425350,-1,1,-1,-1,-1,-2,-2,-5
27675425350,-4,-5,-1,0,0,0,2,2
27675446354,1,-2,0,0,-2,-1,1,4
27675446354,0,1,2,-1,0,-2,0,-1
27675447913,2,-2,-4,-2,-1,-1,-2,-2
27675447913,-3,1,-1,-2,-2,0,-2,-4
27675468850,-2,-9,-7,-1,-1,0,-1,10
27675468850,3,6,1,1,1,1,-1,-7
27675470350,0,5,-2,-1,-1,-2,-3,-11
27675470350,7,3,4,3,0,0,2,7
27675483825,-2,-2,-1,1,1,0,0,-2
27675483825,-3,-6,-4,-2,-3,-1,-2,5
27675485344,-4,-6,-6,-2,-1,0,-1,-4
27675485344,-5,-1,0,0,0,-1,-3,-4
27675506375,3,4,1,-2,0,0,0,1
27675506375,3,-1,-3,-2,-1,-2,-1,2
27675507911,-3,-2,0,0,0,1,2,1
27675507911,-5,-4,-2,-1,-1,-2,-2,0
27675528830,3,1,1,-2,-1,-3,-2,0
27675528830,-5,-1,-3,-2,-1,-2,-1,-5
27675530335,-3,-3,0,-2,-2,1,0,-2
27675530335,-3,-1,-2,-1,0,-1,-1,-1
27675543053,3,-5,-3,0,-1,-2,-3,0
27675543053,-1,4,3,1,-1,1,1,3
27675549888,4,3,-1,0,0,-1,0,0
27675549888,2,7,2,-1,-1,0,0,-4
27675566374,0,1,1,-1,0,0,0,-1
27675566374,3,-3,-1,0,0,0,0,2
27675567896,0,-5,-2,0,0,-2,0,5
27675567896,-4,0,-5,0,-2,-2,-3,-5
27675596392,-3,-1,0,-3,-1,-1,-2,-1
27675596392,-3,-4,-2,-1,-2,-1,0,0
27675597814,-6,-5,-1,-1,0,-1,0,-5
27675597814,1,0,0,0,-1,-2,-3,-2
27675603195,-2,0,1,-2,-1,-1,3,-2
27675603195,-1,1,-1,-1,0,1,-1,-2
27675617497,-2,0,2,0,-1,-1,-2,0
27675617497,0,0,-1,-4,-1,0,-1,1
27675626328,-3,-1,-2,-1,-1,-1,0,-1
27675626328,-4,-3,-2,-1,-1,-2,-3,-6
27675627823,4,2,0,-1,-1,-1,-2,1
27675627823,1,-2,-1,-2,-1,0,0,4
27675648846,-5,-1,-3,-1,-2,-2,-2,-5
27675648846,-3,-4,-5,-1,0,-1,-1,-2
27675650333,0,2,0,2,1,1,-2,-9
27675650333,-7,-3,-1,0,-3,-2,2,6
27675663153,-10,-1,-2,0,0,1,-1,-9
27675663153,-2,-4,-2,0,-2,-1,-1,1
27675669976,1,-1,0,-2,-1,0,1,1
27675669976,0,0,0,-2,-1,-3,-1,-5
27675686362,1,0,-1,0,-2,-2,-3,1
27675686362,-1,-1,-1,-1,1,0,-1,0
27675687911,-4,-5,-3,-2,0,-3,-1,-1
27675687911,-1,1,-4,-1,0,-1,-1,-1
