28221921929,1,-2,0,-1,-1,-2,-2,-1
28221921929,0,-1,1,-1,1,-1,-1,0
28221922752,0,-1,-2,-2,-3,-1,0,-1
28221922752,0,-1,-1,1,-1,-1,-2,-1
28221924689,-1,0,0,-2,-2,-3,-2,-1
28221924689,-1,-1,-2,0,1,0,0,0
28221925375,-1,0,-1,-2,0,0,-1,-2
28221925375,0,-4,-2,-3,0,-1,-1,-3
28221932050,-4,-1,1,-1,-1,-1,-2,-4
28221932050,1,-1,-1,-1,-3,-3,-2,-4
28221938354,1,0,1,-2,-1,-2,-1,4
28221938354,-7,-6,-2,-2,-1,-1,-1,-9
28221961475,4,1,-1,-1,-1,1,0,-1
28221961475,-1,1,1,-1,-1,-1,-2,1
28221962139,-4,-1,-2,1,0,0,-2,-1
28221962139,-1,-2,-3,-3,-1,-2,-1,0
28221972317,-1,-3,-1,-2,1,0,0,1
28221972317,-1,0,-2,-2,0,1,0,-2
28221993367,0,-6,-2,-2,-4,-2,-2,-3
28221993367,-2,6,4,3,0,1,1,1
28221996258,-5,-2,-1,0,-1,-1,0,0
28221996258,1,-1,-2,-1,-2,-4,-2,1
28222014411,0,-1,-2,0,1,2,1,2
28222014411,1,0,0,-1,-2,-2,1,-3
28222052752,-2,0,0,-1,0,0,0,-1
28222052752,-2,-5,-6,-2,-1,-2,0,1
28222053275,-1,2,2,-2,-2,-3,-3,-3
28222053275,2,6,-2,-1,-2,-2,0,0
28222054072,2,2,2,0,-3,-2,-2,0
28222054072,-3,-3,0,0,0,0,0,-2
28222054939,-2,-2,-3,-3,0,-1,-2,2
28222054939,-4,-4,-2,-2,-1,-1,0,1
28222058067,0,1,0,-2,-3,-2,-2,0
28222058067,1,0,2,-1,1,0,1,1
28222073156,1,-2,-2,-2,-1,-1,-1,-1
28222073156,-7,-7,-1,-2,1,-1,-2,-1
28222080718,-5,-3,-4,-2,0,0,3,3
28222080718,5,2,1,-1,-3,-2,-4,-5
28222089513,0,-1,-2,-2,0,-2,0,0
28222089513,2,-1,1,-2,0,-2,-1,-2
28222111230,-2,-2,-2,-1,0,-1,-2,-1
28222111230,-2,1,3,2,-1,1,1,2
28222118760,-3,5,-1,0,-1,1,-1,-3
28222118760,0,0,-1,-2,0,-2,-2,-3
28222119444,-4,-2,-1,0,-1,-2,-4,-6
28222119444,2,0,-4,-2,-3,-2,-3,-2
28222141268,-1,-6,-3,0,-3,-3,-3,-3
28222141268,-6,-6,-2,1,-1,0,1,-2
28222141990,5,0,0,0,-1,0,1,2
28222141990,-4,-2,-5,-4,-3,-3,-1,-3
28222164315,-2,-3,-3,0,-2,-1,-1,0
28222164315,0,1,-1,1,-1,-2,-2,-1
28222165195,2,-3,-1,0,-1,-1,-3,-1
28222165195,0,4,-1,1,0,2,0,0
28222178646,-6,-8,-7,-3,-3,-3,-1,-3
28222178646,-2,-1,-3,-1,-3,-2,-3,-3
28222179426,-3,1,0,0,1,-1,-1,-1
28222179426,1,0,0,-1,-1,-2,-1,1
28222201280,-2,1,1,0,-1,-1,0,-1
28222201280,1,-4,-4,-2,-2,0,-1,-1
28222202003,1,2,1,0,-3,-1,-2,-2
28222202003,-1,-5,-2,-1,-1,-2,-3,-3
28222224616,-2,-1,3,0,1,-1,-1,-3
28222224616,-3,-7,-9,-3,-2,-3,-2,0
28222225164,-1,4,2,1,-1,0,0,-2
28222225164,-2,-3,1,1,-1,-1,-2,0
28222238773,1,1,1,1,0,0,-1,-2
28222238773,-4,-32,-22,-4,-1,-1,0,0
28222239469,-1,34,16,1,-3,-2,-2,-3
28222239469,2,8,7,1,1,-1,0,0
28222261153,2,4,-1,-2,1,-1,-1,0
28222261153,0,3,4,0,1,0,-1,-1
28222261964,-5,-22,-15,-4,-2,-5,-2,-1
28222261964,-5,-1,-4,-2,-4,-1,-1,-1
28222291970,-3,-9,-5,0,-1,-1,0,2
28222291970,3,14,7,0,-2,-2,-1,-3
28222292690,-1,-12,-9,-2,1,-1,-1,-1
28222292690,3,14,11,2,1,-3,-3,-1
28222298794,-2,-9,-5,-2,-2,1,-3,-1
28222298794,-3,2,1,0,0,-2,1,-1
28222299466,1,3,1,-1,0,0,-2,0
28222299466,-3,-11,-7,-2,-2,-1,-2,-1
28222321277,-1,5,0,0,-2,0,0,-1
28222321277,1,6,5,0,-3,-2,-2,-1
28222321965,1,-1,0,1,1,0,0,-1
28222321965,-2,-7,-10,-4,-1,1,0,0
28222344559,0,-4,-13,-12,-3,-2,-2,1
28222344559,-2,8,15,4,-3,-1,-2,-2
28222345166,-1,-9,-4,3,3,2,0,0
28222345166,-4,-11,-5,0,-2,-2,-1,-1
28222358788,4,9,10,0,-2,-2,-2,-2
28222358788,0,-10,-9,-7,-3,0,-1,0
28222359439,-8,-16,-7,-8,-3,-3,-1,-1
28222359439,3,32,21,1,-6,-4,-1,-3
28222381183,-1,0,3,11,14,6,3,1
28222381183,0,1,-2,3,-1,-2,-3,0
28222381949,-1,-1,8,7,4,1,2,0
28222381949,-4,-16,-23,-11,-4,-4,-3,-1
28222404125,-1,-5,8,1,-7,-4,-1,-1
28222404125,1,10,9,3,5,1,-2,-1
28222404915,-2,-10,-27,-9,0,1,1,0
28222404915,-1,3,20,3,-2,-2,-2,-1
28222418756,1,-5,-28,-12,-6,-1,0,1
28222418756,-3,-6,-5,-1,1,0,0,-2
28222419442,0,1,6,-2,-8,-4,-3,-2
28222419442,0,-9,5,-2,-1,-2,-1,-3
28222441701,-3,-5,-3,6,-1,-3,-2,-4
28222441701,2,6,11,-3,1,1,0,1
28222442389,0,10,10,1,1,0,-1,0
28222442389,0,-6,-8,-4,-1,0,0,0
28222464460,3,9,17,4,-3,-1,-1,1
28222464460,1,-12,-2,18,7,1,1,3
28222465149,-2,6,-8,-12,-7,-3,-2,-3
28222465149,-6,-11,-20,-5,-1,0,-2,-1
28222478816,1,3,-8,-4,2,-2,-2,-1
28222478816,-5,-11,-23,-10,-6,-2,-2,-4
28222479464,5,0,1,-1,-2,0,-1,1
28222479464,0,0,9,5,1,0,1,-1
28222501175,-5,-2,-16,-8,-3,-1,-2,-3
28222501175,0,10,20,4,-4,-2,1,0
28222501960,0,-4,-8,-2,-1,-2,-3,-2
28222501960,0,2,1,0,2,1,0,0
28222524421,-1,0,12,3,-1,-2,-2,-1
28222524421,1,3,9,6,3,-1,-1,-1
28222525216,-3,-4,-14,-7,-3,-2,1,-3
28222525216,0,-1,8,10,2,-2,-2,-1
28222538749,0,-2,13,4,-3,-1,0,-2
28222538749,-3,-6,-25,-18,-7,-6,-2,-1
28222539443,0,0,5,12,5,4,1,1
28222539443,3,1,-34,-15,0,1,0,1
28222561261,-3,7,44,29,4,-1,-1,-3
28222561261,-3,-6,-25,-18,-6,-3,-4,-3
28222561916,-3,-4,8,-2,-6,-3,-3,-2
28222561916,0,1,-3,-1,0,1,1,-1
28222584447,-1,-4,-16,-7,0,0,1,-1
28222584447,-1,1,-5,-3,-4,-3,-2,1
28222585133,-4,-3,17,5,-1,-2,-2,-4
28222585133,-5,-8,-16,-7,-5,-2,-2,-3
28222598796,0,4,-5,-5,-4,-1,0,-1
28222598796,0,7,15,8,2,1,-1,0
28222599481,-2,-6,-19,-12,-4,-5,-1,0
28222599481,-2,1,23,14,2,1,0,2
28222621302,-2,-5,-22,-13,-3,-2,-2,-1
28222621302,0,2,9,-2,0,3,0,0
28222621978,-1,-2,-1,-1,-3,0,-2,-1
28222621978,-1,-4,-19,-8,1,0,0,-2
28222644554,-2,-6,18,10,-3,-3,0,0
28222644554,0,5,0,3,7,3,3,1
28222645165,1,2,1,-5,1,-1,-1,-2
28222645165,-3,-5,-1,3,-2,-2,-3,-2
28222658010,-3,-6,-16,-20,-5,-2,-1,0
28222658010,0,3,4,0,-5,-4,-3,-3
28222666216,1,5,12,5,0,-2,0,1
28222666216,-1,-2,-11,-6,2,3,1,0
28222681115,-1,-1,2,-4,0,-1,-2,0
28222681115,-1,1,5,9,1,-1,-3,-3
28222681918,0,-2,-8,-2,3,1,1,0
28222681918,0,8,19,6,-2,0,-1,-1
28222704371,-1,-3,-7,-2,2,3,1,1
28222704371,-3,-5,6,4,1,1,1,0
28222705091,0,-4,-32,-14,-8,-2,-1,-2
28222705091,1,5,34,13,3,-6,-1,0
28222717954,-2,-4,-4,-2,0,2,-1,-2
28222717954,-1,-4,-16,-12,-3,-3,0,1
28222726154,-4,-7,-2,-1,-5,-1,-2,-1
28222726154,1,5,8,10,3,1,0,-2
28222741129,0,1,-6,-3,-3,-1,-1,0
28222741129,2,-2,2,-5,-2,0,1,-1
28222741925,-3,-4,0,3,-1,-3,-2,-2
28222741925,-1,-1,-1,-9,-2,-3,-2,-2
28222764327,0,0,1,2,0,-2,-2,-1
28222764327,1,-5,-5,3,5,2,0,-1
28222765228,1,4,7,-2,-1,-1,-1,-2
28222765228,1,-5,-16,-14,-10,-5,-4,-1
28222778093,2,3,21,13,2,-1,0,0
28222778093,-2,-7,-20,-10,-3,-5,-3,-2
28222786290,3,3,5,5,7,9,2,2
28222786290,-2,-3,1,-1,-3,-3,-2,-1
28222801193,0,-4,-1,-1,-4,0,0,-1
28222801193,1,3,-3,-6,-8,-6,-4,-2
28222801932,-3,0,9,6,6,0,0,0
28222801932,-7,-6,-5,2,1,0,0,-1
28222824398,-4,0,-7,-9,-2,-1,1,0
28222824398,-6,-2,9,3,-3,-3,-3,-1
28222825129,-2,-2,-9,-7,-2,-3,-2,-2
28222825129,-2,-2,-3,-1,0,0,2,-2
28222846919,0,1,4,4,2,-2,-1,-1
28222846919,-1,-2,2,2,2,1,-1,-1
28222847623,1,-1,-5,-4,-3,-1,-2,0
28222847623,-1,-2,-12,-5,-2,-4,-2,-2
28222861265,0,1,-2,-1,0,0,-2,-3
28222861265,-1,0,4,0,-1,2,1,-2
28222861947,-2,-4,-11,-2,-4,-3,-4,0
28222861947,1,-5,-9,-6,-4,-2,-1,0
28222883577,2,15,27,8,2,-1,0,-1
28222883577,0,0,0,1,-1,-3,0,0
28222891318,-2,0,2,-2,-3,0,0,-2
28222891318,0,-2,-14,-7,-2,-1,0,1
28222898094,-3,-8,-13,-6,-2,1,0,-2
28222898094,2,4,6,0,-1,-2,-2,1
28222906321,-1,0,2,3,0,-3,-1,-2
28222906321,-2,-4,-15,-1,-4,-1,-2,-1
28222921249,-3,-2,1,-3,-1,-1,-2,-1
28222921249,-1,0,4,1,-1,-2,-1,-2
28222921949,-1,-5,-21,-6,-1,-2,-1,-1
28222921949,3,7,39,12,5,6,1,-1
28222944480,-1,3,-16,1,-2,-3,-1,-2
28222944480,-3,-3,-14,-10,-1,-1,-2,-1
28222945139,2,6,21,8,-2,-3,-2,-2
28222945139,-2,-5,-18,-12,-6,-4,-1,-2
28222958121,-1,-4,-8,1,0,0,0,-1
28222958121,0,1,5,4,4,5,1,-2
28222966296,-2,-1,11,1,-4,-2,-1,0
28222966296,-2,-5,-4,-2,0,-1,0,0
28222981315,-2,-5,-17,-7,-8,-6,-3,0
28222981315,0,2,17,1,0,-1,-2,0
28222981969,0,-2,-14,-5,1,0,1,-1
28222981969,-2,1,-1,0,-3,-2,-2,-3
28223004362,-3,-5,-3,0,2,-1,-2,0
28223004362,-2,-5,-17,-5,-5,-2,-1,-3
28223005117,-1,2,3,6,2,1,0,-1
28223005117,0,0,8,-3,-2,-2,-1,0
28223026973,0,3,7,2,0,-2,-1,-1
28223026973,-3,-5,-8,-1,-3,3,0,-2
28223028450,2,5,2,0,2,2,0,1
28223028450,-2,-2,-16,-6,-1,-2,0,1
28223049580,-1,-2,-6,-4,1,1,0,-1
28223049580,1,3,16,9,2,0,0,0
28223050925,-1,-1,6,4,1,1,0,-1
28223050925,1,3,2,-2,-3,-3,-2,-3
28223071971,0,-3,-7,-6,-2,0,0,1
28223071971,-1,0,-5,-2,-2,0,-1,-1
28223073613,-1,-2,-4,-3,-2,-3,-1,-2
28223073613,-1,1,5,4,2,1,-2,-2
28223094367,-1,-3,0,-3,-3,0,-4,-1
28223094367,1,-1,-4,0,-1,-3,-1,-1
28223095938,-2,-5,-3,-2,-1,0,-1,0
28223095938,-2,1,3,0,2,1,0,-2
28223109468,-2,2,9,4,-1,0,-1,-2
28223109468,-1,-3,-4,-1,0,1,-1,-1
28223110982,-3,-5,-14,-8,-5,-4,-1,-2
28223110982,2,5,27,16,6,5,0,1
28223123497,-2,-5,-14,-7,-1,-1,-1,-3
28223123497,-1,-2,6,2,0,0,1,-1
28223132011,-1,0,5,4,0,-1,-2,0
28223132011,-2,-4,-13,-6,-5,-3,-2,1
28223146970,-1,4,8,-3,-2,-1,0,-2
28223146970,2,-2,-1,8,4,2,-1,2
28223148463,-3,-2,-10,-9,-4,-1,-2,-1
28223148463,2,6,21,10,2,0,0,0
28223169297,0,-6,-10,0,-2,-2,-3,-1
28223169297,1,3,-5,-9,-3,-4,-1,0
28223170912,1,-3,-4,3,0,3,2,1
28223170912,-1,-1,-5,-2,1,1,-1,-3
28223183093,1,0,2,0,-1,1,1,1
28223183093,-1,-5,-10,-4,0,-2,-5,-3
28223192006,0,0,-3,-5,-1,-1,-2,1
28223192006,-3,-6,-11,-6,-6,-4,-3,-3
28223206907,-1,-1,2,0,0,-1,-1,-1
28223206907,-2,0,2,1,1,1,-2,0
28223208527,-1,2,9,4,2,1,-1,-2
28223208527,1,3,4,-4,-1,-2,-1,0
28223229477,-3,-10,0,3,-1,-2,-1,0
28223229477,-3,-5,-25,-14,-5,-5,-3,-4
28223230926,-2,-3,-7,-6,-3,1,-2,-1
28223230926,0,-4,6,9,5,2,1,-1
28223243121,-4,1,5,-4,-6,-5,-3,-2
28223243121,-1,0,1,-6,-5,-3,0,0
28223251960,-1,1,13,9,2,-1,-1,0
28223251960,-3,-2,-15,-12,-5,-2,-2,-2
28223267029,0,4,8,4,3,4,1,-1
28223267029,-2,-2,-10,2,1,1,-1,-2
28223268472,-3,-5,6,5,-3,-4,-1,-1
28223268472,1,4,-16,-14,-5,-5,-3,-1
28223289510,-2,-3,-16,-5,4,5,1,-3
28223289510,-2,1,15,1,-5,-5,-2,0
28223290956,0,-2,-4,-2,-1,0,0,-1
28223290956,-1,3,9,-3,-3,-3,-2,0
28223303169,0,-3,-15,0,1,-1,-2,-1
28223303169,-1,-4,-2,-2,0,1,0,-1
28223320157,0,-2,0,-1,2,1,1,-1
28223320157,-2,-4,6,7,2,0,0,1
28223326943,1,1,-12,-12,-5,-3,-1,-1
28223326943,0,2,6,8,5,1,1,1
28223328434,1,-5,-12,-3,-3,-1,-1,-3
28223328434,0,0,-10,0,1,-1,0,-3
28223349458,1,-2,4,-4,-3,-1,-1,-1
28223349458,0,4,21,6,-1,-1,-1,0
28223350955,-4,-4,-10,-2,0,-1,0,-2
28223350955,-4,-9,-11,2,-2,0,-1,-3
28223363117,2,9,18,-4,-2,-1,-1,0
28223363117,-1,4,24,12,3,1,-1,-2
28223371991,-1,0,-5,-6,-4,-2,-1,0
28223371991,-1,-4,6,4,-1,0,0,-1
28223386984,-2,-7,-40,-5,-1,-4,-2,0
28223386984,0,2,3,-3,0,2,1,0
28223388455,-3,-5,-19,-10,-5,-3,-3,-2
28223388455,0,-2,1,0,-1,-1,-2,-2
28223409492,-2,-5,2,2,-2,-2,-1,-1
28223409492,0,3,6,0,0,-1,-2,1
28223410968,1,2,15,7,2,-2,-2,0
28223410968,-2,3,15,0,2,4,2,0
28223423121,2,0,2,3,1,-2,-1,-3
28223423121,-2,-12,-66,-29,-11,-5,-1,-2
28223431985,-2,5,46,24,4,0,1,2
28223431985,1,4,-24,-9,0,-4,-2,0
28223446307,-3,6,38,9,3,1,0,1
28223446307,-1,-4,-13,1,2,2,0,-1
28223453188,1,2,-9,-13,-8,-6,-2,0
28223453188,-1,-5,6,-3,0,-2,1,-1
28223469446,-3,2,3,3,2,-1,-1,-3
28223469446,-3,-7,1,-2,-6,-4,-2,-2
28223470955,0,-1,-6,-6,-4,-3,-2,-2
28223470955,-1,2,13,2,3,2,-1,-1
28223483128,-3,-15,-30,-9,-4,-2,-2,-1
28223483128,1,6,3,0,2,2,1,0
28223498079,-2,-3,5,2,1,1,0,-1
28223498079,-4,-1,5,1,-4,-4,-7,-2
28223506297,4,0,4,-4,-3,0,7,1
28223506297,-3,-1,-7,3,2,2,3,0
28223520646,-2,-7,-31,-10,-3,-3,-1,-1
28223520646,0,2,3,-7,-7,-5,-2,-1
28223529454,-3,-1,-9,-4,3,0,-2,-2
28223529454,1,7,30,13,1,-1,0,1
28223530931,0,3,11,-3,2,1,0,0
28223530931,-2,-15,-45,-5,-3,-2,-3,-2
28223552561,-2,-5,-21,-3,-1,2,-1,0
28223552561,-1,1,4,-5,-2,-2,-2,0
28223553956,1,8,11,6,3,-1,-7,-1
28223553956,-3,-2,19,12,-2,2,9,-1
28223574365,-4,0,3,-3,-2,0,-2,-1
28223574365,-1,0,12,1,-3,-4,0,-2
28223575937,-2,-6,-17,5,6,4,-1,0
28223575937,1,-2,-24,-13,-3,1,-1,0
28223604487,0,1,12,16,4,-2,-2,0
28223604487,-1,6,13,-4,-4,-4,-6,-4
28223605936,-6,-14,-38,-18,-6,-2,3,2
28223605936,5,13,17,9,1,-2,-3,-3
28223611948,-1,0,17,-3,-4,-2,-2,1
28223611948,-4,-11,-25,2,2,1,-2,-2
28223613457,4,0,-38,-14,-5,-2,1,1
28223613457,-3,-11,29,13,5,4,1,0
28223626287,-4,2,-8,-4,-3,-2,-4,-3
28223626287,1,4,18,8,-1,-1,-2,-2
28223633042,3,1,-40,-13,-2,-1,-5,-1
28223633042,-8,1,58,27,5,-6,3,-2
28223649485,7,1,3,-4,-4,-2,-1,6
28223649485,-3,4,15,0,1,3,4,1
28223650928,-1,11,38,13,-4,-4,-5,-7
28223650928,4,1,-26,-5,3,2,-3,-6
28223671844,-4,-3,24,14,6,1,0,2
28223671844,-1,0,-5,6,4,3,5,1
28223673432,-1,-2,7,-10,-5,-3,0,1
28223673432,-9,-2,-8,-13,-12,-8,-6,-4
28223686294,-1,0,5,7,3,-1,-3,-4
28223686294,-7,-31,-81,-32,-5,-4,-8,-6
28223693100,4,13,94,39,14,8,12,4
28223693100,-5,-15,-43,-42,-20,-13,-5,0
28223709418,-3,-1,-2,14,8,7,4,-1
28223709418,9,7,-7,-4,-3,-2,0,2
28223710953,-1,-13,-19,-13,-4,-7,-13,-9
28223710953,9,14,20,15,6,7,10,6
28223732003,-4,-5,45,11,-1,-3,0,5
28223732003,4,9,-25,-21,-5,-4,-3,-4
28223733478,4,8,-2,5,2,3,3,5
28223733478,3,7,48,19,2,-1,-6,-3
28223754355,-7,-9,-41,-22,-9,-6,-5,-7
28223754355,-2,-8,-9,-3,1,0,0,-2
28223755917,-8,0,42,8,-5,-6,-22,-7
28223755917,2,3,-11,3,5,6,22,4
28223769452,4,-3,-9,-4,-3,1,3,1
28223769452,-5,-7,14,-1,-6,-1,2,-3
28223770926,1,-2,0,-3,-1,2,0,0
28223770926,-4,-10,-14,-5,2,-1,-11,1
28223792010,4,9,21,0,-4,-3,-2,-11
28223792010,-8,-25,-88,-39,-12,-6,-1,3
28223793443,-2,-9,-33,-18,-7,-3,2,-1
28223793443,-4,22,47,19,6,-3,-20,-12
28223805544,2,6,34,5,1,4,31,15
28223805544,5,-1,-3,2,0,0,-1,2
28223814485,1,3,-17,-8,-4,0,6,1
28223814485,-9,-17,-35,-7,3,-2,-9,-4
28223829449,-3,6,-22,-10,-2,-5,-12,-7
28223829449,0,-2,32,9,2,3,6,2
28223830956,-1,-9,-23,-1,-2,-1,2,4
28223830956,-1,-25,-79,-22,-10,-3,-4,-2
28223851911,-11,-10,9,9,1,-5,-18,-9
28223851911,5,35,72,14,1,-5,-2,0
28223853401,15,11,0,-2,5,9,10,12
28223853401,-9,-13,-28,-21,-4,3,13,-2
28223882019,-4,-12,-36,0,-4,-4,2,-2
28223882019,-6,-9,-7,13,5,-1,-5,-3
28223883430,-5,-6,-1,7,-1,-9,-16,-10
28223883430,8,10,9,-8,1,5,13,10
28223889482,0,-3,-43,-31,-9,-4,-2,4
28223889482,1,29,111,41,7,1,2,-6
28223890937,-4,-8,-24,-7,-2,-3,-7,-6
28223890937,-1,-3,29,0,-6,-3,-7,-1
28223911967,-1,-8,-21,-16,-5,-1,-2,0
28223911967,-3,6,9,-2,0,-3,-6,-2
28223913459,0,5,-4,3,5,3,9,2
28223913459,9,12,6,10,2,-1,-5,3
28223926337,2,-12,0,1,6,9,7,1
28223926337,4,35,96,32,0,-4,-6,-1
28223933107,-4,-3,-26,-13,-3,-3,3,0
28223933107,-5,-11,-42,-17,1,3,2,-4
28223949491,12,27,15,13,8,3,-8,5
28223949491,0,-32,-79,-25,-5,2,11,7
28223950952,-8,15,46,1,-7,-11,-6,-3
28223950952,0,6,24,15,5,3,7,4
28223971916,4,1,-30,-8,-3,-2,8,0
28223971916,-14,-23,13,8,1,2,1,-10
28223973402,-3,-18,-28,-14,-3,1,0,5
28223973402,-2,13,-18,-14,-6,-10,-12,-6
28223986330,12,11,19,6,-1,-1,-4,1
28223986330,1,-18,-49,-7,4,3,0,4
28223993173,-1,-14,-18,0,2,4,10,2
28223993173,-13,-22,-25,-3,1,-1,-16,-10
28224009463,-1,3,62,30,5,-1,13,1
28224009463,8,14,-41,-29,-8,0,9,4
28224010940,-16,-42,1,18,0,-9,-42,-19
28224010940,13,60,56,-1,-5,-2,14,-3
28224031928,-7,-13,-32,-4,-7,-15,-4,-5
28224031928,4,-12,-86,-35,-11,-6,-7,0
28224033460,0,-4,97,51,25,22,27,-1
28224033460,1,-31,-47,-19,-13,-6,4,6
28224046044,-3,-40,-105,-66,-12,-6,-61,-17
28224046044,-37,-10,-15,15,-4,-22,-34,-28
28224054459,42,-34,-48,-39,-22,1,38,71
28224054459,5,27,-41,-38,5,22,35,20
28224069512,-10,24,77,59,20,15,30,0
28224069512,1,11,37,27,2,-15,-48,-29
28224070955,-38,-37,-50,-31,-19,-29,-81,-47
28224070955,57,-7,22,15,7,21,83,35
28224091948,-24,20,-4,-9,-7,-8,-21,-22
28224091948,-12,9,-14,-7,-3,-4,-7,-17
28224093433,4,68,63,5,0,-7,-3,-15
28224093433,-23,-83,9,19,-1,-12,-51,-13
28224105618,11,40,49,1,5,3,11,5
28224105618,20,4,-1,2,5,15,25,18
28224114468,-8,-55,-81,-33,-5,3,33,14
28224114468,-3,55,103,74,20,-6,-52,-24
28224129375,8,-32,-2,18,10,10,25,8
28224129375,5,31,-15,-31,-17,-9,-1,28
28224130918,-15,-9,-44,-21,-9,-1,-13,-24
28224130918,-21,-35,-99,-39,-14,-5,24,1
28224151948,-11,-38,-17,4,8,-6,-51,-22
28224151948,12,-13,45,2,-10,1,46,29
28224153473,7,58,23,7,1,5,1,-4
28224153473,13,30,1,-19,-11,-7,-5,1
28224165474,-13,-18,-49,0,0,-2,-7,-16
28224165474,-18,-65,-46,-2,10,-1,-41,-21
28224174499,-18,19,26,3,-3,-4,31,14
28224174499,-12,-16,-52,-31,-14,-11,-37,-22
28224189446,27,61,70,44,8,17,88,54
28224189446,4,-8,61,32,4,-7,-41,-22
28224190925,-17,29,85,43,18,12,37,-1
28224190925,1,4,-28,-6,1,4,0,-3
28224212000,5,-28,-49,-33,-14,-8,-9,10
28224212000,3,2,-17,-25,-11,-1,10,-1
28224213448,3,19,83,66,26,2,-17,-9
28224213448,-28,-13,19,-18,-6,-1,-6,-17
28224225474,14,72,100,9,-8,-2,-9,3
28224225474,11,8,9,9,10,7,13,7
28224234479,8,-21,-88,-42,-17,-5,6,8
28224234479,-28,1,40,26,6,-1,-5,-11
28224250750,-6,-25,-39,-27,-6,-9,-11,-13
28224250750,4,31,47,12,7,10,11,9
28224252412,-9,-27,-28,-40,-23,-13,-9,-21
28224252412,-5,-20,38,43,12,6,14,18
28224279452,5,9,-15,-1,3,5,17,21
28224279452,-24,-8,-66,-16,-5,-3,-15,-26
28224280980,18,4,-9,17,12,11,23,16
28224280980,9,-13,-19,-16,-10,-8,-12,-2
28224285568,-22,-96,-98,-44,-19,-10,-12,-14
28224285568,17,60,55,31,9,0,9,8
28224294485,0,-14,-71,-10,8,3,-6,-3
28224294485,-12,-58,-95,-53,-20,-8,-3,3
28224309450,6,38,31,36,16,6,-1,1
28224309450,3,-3,-60,-45,-8,-1,-7,3
28224310958,-8,-42,-6,16,1,3,-4,-9
28224310958,3,-12,-34,24,10,-7,-30,-5
28224332017,-5,28,-20,-21,-7,-1,17,-10
28224332017,-1,-27,-32,-4,-1,7,6,25
28224333459,35,56,79,13,4,6,34,26
28224333459,7,-11,6,0,-1,3,-3,0
28224345582,-18,-21,7,-1,-9,-17,-28,-25
28224345582,-2,-9,-41,-7,-3,4,14,3
28224354432,12,-11,-7,-5,2,5,-4,7
28224354432,3,-26,-32,-13,-8,0,-3,7
28224369407,12,36,-66,-20,-8,-9,-13,1
28224369407,-10,-18,13,54,16,1,-7,-6
28224370926,-14,-24,-22,-50,-14,-4,-41,-27
28224370926,7,35,97,60,20,17,69,19
28224391979,-7,-53,12,-22,-14,7,25,22
28224391979,-8,58,59,-1,-5,-10,-11,-21
28224393432,0,5,32,15,4,-9,-35,-39
28224393432,14,98,77,39,19,14,29,18
28224405593,-13,-7,-6,-28,-15,-9,-39,-3
28224405593,10,-17,9,2,2,7,23,6
28224414461,-11,-5,-57,-26,-6,-2,15,-6
28224414461,6,-5,-11,7,2,-13,-35,2
28224429579,3,-22,-13,-3,7,14,25,-2
28224429579,6,-20,1,-28,-13,-6,-4,-5
28224430906,-4,54,-12,-14,-8,-9,-3,-7
28224430906,-1,-23,-6,-6,-9,-7,-18,-5
28224451987,-13,-7,-3,2,2,6,8,9
28224451987,-24,-54,-90,-60,-15,-3,-6,-11
28224453445,-5,-19,65,24,0,-3,-2,8
28224453445,32,111,102,50,22,9,2,9
28224465541,6,49,106,56,14,2,-6,-14
28224465541,7,-7,-42,-27,-8,-1,10,8
28224474459,-2,-9,36,41,-1,-16,-25,6
28224474459,-5,62,42,-15,-9,-15,-60,-56
28224489444,9,-41,-21,9,5,6,54,48
28224489444,-17,-19,-33,-6,2,10,22,-4
28224490929,15,-1,-8,4,2,6,18,19
28224490929,-12,-57,-107,-29,-5,1,0,-10
28224512074,5,30,75,37,9,-11,-45,-25
28224512074,-33,-17,11,-13,-14,-13,-19,-5
28224513454,24,20,6,-6,-1,7,3,15
28224513454,-13,-24,6,1,0,-1,15,1
28224534442,-5,-65,-123,-48,-6,7,6,8
28224534442,5,24,78,52,15,-4,-18,-16
28224535937,-5,15,21,0,-1,-3,-16,3
28224535937,-12,0,25,-3,-5,-5,-6,0
28224549417,-1,4,13,-18,-7,2,10,-12
28224549417,5,-15,5,-3,-5,0,5,13
28224550918,-13,-36,-71,-11,-3,-7,-7,-14
28224550918,-10,36,61,19,5,-1,3,-4
28224572014,14,9,48,-18,-17,-15,-31,-14
28224572014,-2,6,21,15,0,-7,-12,-4
28224573450,-5,22,25,14,15,9,5,-9
28224573450,6,-30,-50,-4,3,3,15,9
28224594437,4,12,-45,-32,-9,-9,-19,1
28224594437,6,-22,22,12,6,9,10,3
28224595897,-4,37,24,42,8,-8,12,-6
28224595897,6,2,-19,-28,-8,1,-13,-14
28224609909,-9,-17,-15,-8,-4,0,28,37
28224609909,-9,-19,-55,-19,-8,-2,8,-11
28224611375,0,5,0,10,-2,0,1,-18
28224611375,-14,-38,-19,3,5,3,-11,11
28224631945,-12,29,30,26,11,1,-10,-18
28224631945,15,-53,-63,-37,-7,1,7,27
28224633419,8,24,28,-8,-8,-7,-11,-3
28224633419,-20,-32,-53,-25,-14,-4,8,-9
28224654487,2,-17,-42,-5,2,6,12,10
28224654487,9,2,-19,-24,-7,-3,-8,-10
28224655904,14,23,57,32,16,17,15,17
28224655904,9,53,85,67,9,-20,-38,-34
28224668708,-2,-14,-36,4,10,13,41,36
28224668708,27,67,74,16,9,12,28,13
28224675461,-5,-32,-82,-54,-14,-1,0,18
28224675461,-5,-48,-51,-12,-6,-6,-8,-21
28224692008,-21,-18,-6,8,2,-12,-61,-31
28224692008,25,44,41,34,12,6,33,24
28224693454,-11,-4,5,-29,-4,12,12,11
28224693454,10,-13,-26,-14,2,8,25,20
28224714806,1,14,50,23,3,-4,-19,-29
28224714806,-20,-25,-54,-23,-4,-2,-5,-2
28224716383,1,-20,-77,-40,-7,-5,-9,3
28224716383,-13,29,64,19,-2,-8,-21,-16
28224728716,18,73,89,43,6,7,34,6
28224728716,-4,25,30,51,7,-13,-33,-10
28224735601,-18,-27,-17,-7,-7,-6,-12,-22
28224735601,24,6,10,-10,-2,2,4,27
28224751876,-4,-25,-51,-35,-13,-6,-12,-16
28224751876,-2,20,47,8,2,5,21,2
28224753408,-4,-21,-14,44,7,-8,-29,-18
28224753408,11,12,64,-5,-12,11,72,34
28224774882,12,37,-28,-7,-4,-1,-25,-12
28224774882,-10,-47,-100,-52,-10,-3,-4,1
28224789424,-2,4,5,13,-5,-5,-7,9
28224789424,-8,-12,-20,-14,7,14,2,-3
28224790133,-15,-4,-2,14,6,-5,-8,-20
28224790133,-7,-34,8,31,-6,-20,-40,-18
28224795604,6,18,66,52,14,11,34,19
28224795604,-5,11,-28,-58,-19,-15,-29,-2
28224812042,13,6,38,22,13,17,35,22
28224812042,-7,-7,-30,-21,-4,-5,-22,-8
28224813398,-4,-7,-5,-7,-4,-17,-15,-12
28224813398,-5,-7,-8,26,12,4,-21,-24
28224834409,-3,-42,-112,-60,-13,2,7,26
28224834409,6,37,109,25,-6,-15,-45,-28
28224835969,-17,18,49,29,10,13,54,19
28224835969,-22,-45,-64,-38,-10,2,31,22
28224848745,-10,52,28,16,7,-2,-15,-19
28224848745,13,25,17,56,25,14,20,6
28224855544,11,-14,-28,-23,-12,-9,-30,-13
28224855544,3,-34,-80,-12,-5,-13,-27,-17
28224871891,-14,-8,24,-23,-17,-11,-14,-8
28224871891,18,2,-57,-34,-2,12,27,32
28224873434,-30,5,22,15,4,-4,-19,-24
28224873434,-12,-42,-48,-3,-8,-2,16,17
28224894470,21,-20,-61,-2,0,-11,-54,-32
28224894470,-11,-38,-47,-27,-3,11,42,7
28224895968,21,31,6,30,11,8,6,11
28224895968,-12,13,10,6,2,-6,-20,-12
28224908767,15,-3,-13,-7,-3,5,29,8
28224908767,-25,-28,-77,-36,-11,-4,-7,-7
28224915540,8,27,23,14,0,-2,2,-12
28224915540,14,17,18,9,-1,-9,-16,-2
28224932065,-9,-28,-9,-10,-8,-5,-6,8
28224932065,18,60,65,-3,2,13,23,16
28224933433,-28,-47,-76,-62,-12,-4,-1,-15
28224933433,6,12,8,-3,-2,-3,-19,9
28224954449,1,-17,-23,1,-1,-3,6,-3
28224954449,-5,-22,-6,22,8,4,11,0
28224955901,-14,-12,-33,-69,-22,-13,-52,-14
28224955901,26,44,46,33,11,14,50,18
28224968704,5,6,56,11,2,0,6,1
28224968704,-22,-3,-6,5,3,0,-4,-1
28224975574,20,14,-20,-3,0,8,6,9
28224975574,-9,-37,-2,7,-4,0,9,-1
28224992038,-5,3,-17,-22,-7,-7,-6,-9
28224992038,6,22,48,5,-1,-8,-18,7
28224993450,-27,-65,-85,-52,-8,-3,-10,-21
28224993450,25,24,46,42,12,17,42,24
28225014374,-28,-10,45,18,8,4,8,-2
28225014374,20,1,-14,13,0,-3,-8,-13
28225015925,7,3,29,-2,5,7,3,9
28225015925,4,-9,-27,-4,1,3,-1,10
28225036939,-3,34,81,20,-2,-2,12,4
28225036939,-11,4,20,16,0,-3,-2,-8
28225038493,23,3,-16,3,-6,-4,0,12
28225038493,-17,-7,-1,-7,-4,-4,-23,-18
28225051917,11,-2,-73,5,5,-4,2,4
28225051917,-27,-33,15,-22,-10,-6,-19,-29
28225053470,25,21,-16,31,-1,-4,7,23
28225053470,-5,-8,-29,-40,-7,-5,-11,-6
28225074547,-11,-17,-37,-13,-2,-10,-57,-25
28225074547,-20,-13,9,31,-1,4,41,16
28225075940,19,29,-2,-10,1,-2,-2,-16
28225075940,6,0,-27,-18,1,3,13,3
28225088078,10,-21,-38,-11,-6,-2,2,12
28225088078,-10,-8,-63,-52,-16,-5,-23,-31
28225096937,-28,2,50,46,4,-2,3,16
28225096937,6,25,31,16,2,-8,-17,0
28225111917,-13,1,40,-11,-7,-11,-34,-18
28225111917,-7,-21,-51,-36,-7,12,56,11
28225113454,-12,-17,-15,25,2,3,18,12
28225113454,6,-7,7,-17,-12,-11,-36,-37
28225134555,-49,-33,-50,2,-5,-2,15,13
28225134555,22,13,18,7,-4,-14,-39,-6
28225135924,-4,-13,0,-3,-10,-8,-3,-4
28225135924,-44,-61,-49,-11,-7,-1,0,-20
28225148100,24,-8,-54,-29,-9,3,25,7
28225148100,9,26,4,59,16,-1,9,14
28225156937,4,-34,-16,1,-1,-2,-7,-3
28225156937,-56,-57,-105,-55,-10,5,3,-12
28225171881,8,-2,-22,-32,-5,6,36,12
28225171881,25,17,36,61,11,-7,-16,-4
28225173409,-56,-45,-36,-78,-28,-20,-60,-39
28225173409,34,70,15,34,8,-1,20,39
28225194466,-3,-18,-48,-18,1,14,4,-5
28225194466,-5,-7,-19,-36,-4,7,18,6
28225195929,1,-10,11,20,13,-2,-35,-24
28225195929,44,21,25,10,1,6,32,27
28225208083,-2,-8,45,38,2,-4,-12,-4
28225208083,-3,-27,-21,-22,1,6,2,4
28225216960,-9,14,106,38,7,-6,-10,-38
28225216960,25,24,-86,-52,-13,3,8,48
28225232019,6,0,19,0,10,9,25,9
28225232019,8,13,3,31,9,-2,-6,-20
28225233395,-8,-10,6,-27,-5,9,27,21
28225233395,-19,-15,25,32,7,-26,-89,-65
28225254489,12,76,29,-19,-27,-6,45,27
28225254489,20,20,84,48,17,8,1,25
28225255926,11,17,-38,-56,-5,6,21,7
28225255926,-8,-18,66,55,6,2,23,5
28225268411,13,2,32,53,12,-6,-29,-3
28225268411,-15,-3,-60,-64,-4,1,-24,-31
28225276954,-2,-35,-78,-16,-2,4,17,6
28225276954,-5,-13,78,44,13,8,19,8
28225291834,3,-13,-2,7,9,1,-11,-4
28225291834,-3,24,-16,-24,-13,-3,9,16
28225293416,11,-2,-20,-14,-10,-7,-2,4
28225293416,-11,-7,-26,-15,1,2,4,-24
28225321991,-3,18,89,42,10,2,-3,-6
28225321991,-27,-37,-78,-78,-28,-17,-32,-3
28225323434,14,23,-13,7,5,0,-14,23
28225323434,-31,7,-4,-23,-9,3,30,-9
28225328079,18,-6,-45,-33,-5,-5,-13,-25
28225328079,-2,4,-28,-18,-6,1,8,27
28225336983,-11,28,11,-3,-2,-6,-14,-17
28225336983,10,-11,41,69,14,-5,13,20
28225351990,31,14,45,30,12,-2,-17,17
28225351990,-26,-1,19,-1,0,-2,-9,-26
28225353451,13,13,60,11,5,7,20,13
28225353451,-12,24,56,-11,-3,-9,-35,-20
28225374362,-10,-10,-28,-4,2,8,20,8
28225374362,18,-4,39,24,1,2,3,12
28225375895,-12,-25,-65,-6,-8,-9,5,3
28225375895,-2,-37,-77,-36,-16,-5,-11,-18
28225388049,-35,-20,14,35,4,-22,-76,-52
28225388049,36,24,-94,-79,-20,13,74,68
28225396929,-33,-69,-13,41,19,8,13,0
28225396929,-11,15,-13,-16,-4,-1,-12,-32
28225411835,9,-46,-71,-44,-11,3,12,12
28225411835,16,50,66,40,13,0,-18,-1
28225413362,13,8,-24,-19,-12,-10,1,3
28225413362,-23,-10,-2,5,1,5,11,10
28225434919,0,-3,-17,13,1,-1,5,0
28225434919,3,-8,41,43,8,-8,-29,-28
28225436404,7,13,31,-8,-2,3,18,4
28225436404,16,9,-19,-48,-7,-4,-11,12
28225448054,-4,33,18,22,10,0,1,-4
28225448054,-26,-41,12,5,-3,2,-6,-17
28225456932,15,25,49,24,0,2,7,5
28225456932,15,7,22,1,-2,1,3,15
28225471893,-6,0,-5,-17,-4,1,14,0
28225471893,-18,-11,2,8,6,-6,-26,-22
28225473402,-1,-9,20,-3,0,4,7,-1
28225473402,9,10,25,22,6,2,2,2
28225494353,4,-4,11,-10,-9,-2,4,-1
28225494353,-10,-6,14,13,2,-3,-8,7
28225495922,3,23,14,-1,0,3,0,2
28225495922,-18,-13,-22,-14,-4,0,3,-9
28225516818,-2,6,5,-6,-4,-2,-6,-3
28225516818,1,-19,-39,-29,-14,-8,-6,-7
28225518418,4,14,3,20,14,7,2,5
28225518418,9,10,-11,-10,-4,-5,-3,8
28225531914,-6,7,22,4,-3,-1,2,-2
28225531914,1,-4,20,22,9,1,-3,-6
28225533406,3,3,-19,-15,-6,-2,0,1
28225533406,6,-2,-9,-4,2,-1,-5,-2
28225554078,-5,-13,-66,-76,-16,1,4,4
28225554078,-1,2,21,19,8,4,8,8
28225561936,2,-3,15,10,2,0,-4,-9
28225561936,8,11,-8,-7,-3,-2,-3,-2
28225576923,-9,-12,-28,-18,-7,-6,0,3
28225576923,16,0,-28,-7,-6,-7,-10,1
28225578425,-21,4,-7,-11,0,-1,-2,-6
28225578425,7,0,-8,-6,2,5,3,4
28225591918,2,5,29,16,2,-1,1,1
28225591918,-10,-7,-13,-1,-5,-6,-8,-10
28225593412,-1,-7,-33,-22,-9,-1,-3,-13
28225593412,-4,-13,-16,-1,-3,-1,1,17
28225614323,0,6,11,3,1,1,0,-5
28225614323,-1,3,12,9,4,2,2,-2
28225620598,0,-21,-18,-2,-5,-4,-3,0
28225620598,3,15,6,-4,-1,-2,-3,-5
28225636926,-3,-2,-3,0,-2,-1,-1,-1
28225636926,2,4,11,-1,-1,-4,-1,1
28225638430,0,-7,2,8,3,0,0,1
28225638430,-8,-20,-20,-5,-3,-4,-6,-9
28225651234,-1,26,20,7,0,-2,0,4
28225651234,-7,8,15,13,0,-2,-1,-10
28225658066,12,15,3,-2,-2,-1,-1,6
28225658066,-4,-13,-17,-13,-1,-1,1,-2
28225674435,-1,-1,4,9,-1,0,0,-1
28225674435,0,-7,-6,-11,-5,-2,-1,1
28225675905,2,1,4,10,2,2,0,2
28225675905,-5,-22,-19,-7,-3,-1,-2,-2
28225696900,7,37,25,2,-4,-4,2,-2
28225696900,0,5,-1,-2,2,-2,-5,-7
28225698425,15,5,11,6,4,1,3,15
28225698425,-1,-7,-9,-4,-1,-2,0,-3
28225710547,3,8,7,4,1,-1,1,3
28225710547,-3,2,6,2,-3,1,1,-1
28225720134,-1,4,-1,-2,0,-2,-1,0
28225720134,1,3,4,3,1,1,0,-2
28225733687,-10,-22,-6,7,3,1,-1,-2
28225733687,3,7,2,-7,-5,-4,0,3
28225734401,-4,-6,-19,-17,-5,-2,-3,-3
28225734401,2,15,33,30,10,5,3,2
28225756626,-5,-21,-9,0,-1,-1,-4,1
28225756626,0,9,7,-1,-1,-1,0,-1
28225757346,1,-3,-2,-5,-1,1,1,3
28225757346,1,7,1,-3,-2,0,-2,-1
28225779303,-1,-3,-3,1,0,0,-3,-2
28225779303,-4,-20,-15,-3,1,-1,0,-2
28225780080,-1,14,12,6,-1,-2,-1,2
28225780080,7,-1,-2,-4,-3,-4,-2,-1
28225793666,-2,0,-5,2,1,0,0,3
28225793666,-1,-1,2,0,-2,-2,-2,-4
28225794370,-4,0,3,3,-1,-1,0,-3
28225794370,-2,-6,-4,-5,-3,-2,-1,2
28225816054,0,-2,-9,-6,-4,-1,0,-2
28225816054,-3,-5,-2,1,4,2,0,0
28225823873,0,2,-3,0,-1,0,-2,0
28225823873,-3,1,-1,-2,-1,-1,-4,-1
28225839396,-2,-13,-4,-2,-3,-1,1,0
28225839396,1,11,5,-1,1,-1,-1,-1
28225840091,-5,2,15,9,0,-2,-1,-6
28225840091,4,0,-3,-7,-2,0,1,3
28225853692,2,-14,-11,-6,-2,-4,-6,-3
28225853692,3,12,11,3,1,2,3,3
28225854438,0,-10,-8,-2,-3,-3,-2,-4
28225854438,-6,4,5,0,-4,-4,-2,-3
28225876237,-2,-11,-11,-7,-3,-4,-1,0
28225876237,4,-4,-4,-4,-1,-1,0,2
28225876940,-5,-15,-10,-3,0,-2,-1,-2
28225876940,-1,8,-4,-4,-1,-2,-2,-3
28225899444,2,3,5,3,-1,-2,0,-1
28225899444,12,18,9,3,0,0,2,4
28225900138,-7,2,1,-1,-2,-1,-1,-4
28225900138,1,-13,-8,-1,-1,0,-2,1
28225921833,3,0,7,4,1,0,-1,-5
28225921833,-4,-19,-12,-4,-4,-2,-2,-1
28225922632,5,8,-2,0,3,0,0,4
28225922632,-1,6,7,2,0,0,-1,-2
28225936219,-8,-1,-1,1,0,0,2,2
28225936219,-7,-5,-6,-2,-2,-1,-3,-8
28225936989,2,-16,-14,-8,-4,-1,-1,4
28225936989,-4,11,15,4,0,-1,-1,-2
28225950570,1,5,8,8,4,1,0,0
28225950570,-4,-4,3,3,1,0,0,-1
28225958774,-4,-2,3,1,1,1,-1,-7
28225958774,-1,-13,-13,-8,-2,-1,0,-1
28225973688,-4,-10,-10,-5,-1,1,0,-2
28225973688,-2,5,11,3,-1,-1,-2,-3
28225974426,0,-4,-5,-2,-2,-3,-2,-1
28225974426,-1,-2,-10,-4,-2,-2,-1,-2
28225996249,-3,-1,15,7,1,0,-1,-2
28225996249,-5,-10,-12,-5,-3,-2,0,-1
28225996913,1,7,5,-1,-2,-1,-1,-10
28225996913,-1,-5,-8,-5,-5,-3,0,7
28226010602,0,4,2,-1,0,0,-1,-4
28226010602,-4,-9,-9,-5,-2,-1,-1,1
28226018768,-1,5,-1,2,-1,-1,0,1
28226018768,-2,-15,-9,3,0,0,-4,-1
28226033720,0,10,14,-2,-1,-1,-1,-2
28226033720,0,-2,2,-1,-3,-2,-2,-1
28226034440,0,-2,3,4,3,0,0,-2
28226034440,-2,11,-3,-1,2,1,1,-3
28226056254,-3,-6,-12,-5,-4,-2,-3,0
28226056254,0,-1,8,0,-1,-2,-2,-2
28226056928,0,5,-5,-3,-1,-1,-2,2
28226056928,-1,2,11,3,0,0,-1,-3
28226070533,-1,-7,-1,3,-1,-1,-1,-1
28226070533,-1,1,-1,-3,3,1,-2,-2
28226078714,0,0,-3,0,0,-1,0,1
28226078714,-2,-7,-11,-7,-2,1,1,-1
28226093748,-3,9,7,-2,-1,0,0,-2
28226093748,-1,-16,-3,-2,0,0,-2,4
28226094399,7,9,7,3,2,1,-1,6
28226094399,-8,-9,-5,-2,0,-2,-4,-14
28226116231,6,13,-2,-1,-3,-3,-1,2
28226116231,-4,1,3,-1,-2,-1,0,-3
28226116988,-2,-9,-6,-4,-1,0,1,0
28226116988,3,17,17,4,-1,-2,-2,2
28226130500,-1,-7,-13,-6,-2,-1,-1,-1
28226130500,0,11,8,3,-2,-1,-1,-1
28226138751,2,3,-4,-5,-2,0,0,1
28226138751,-3,-6,-3,8,-1,-3,-1,-2
28226153698,-2,-4,7,-1,1,1,0,0
28226153698,-1,-3,-5,0,1,-1,-1,-2
28226154391,-5,-8,0,-3,-2,0,-3,-3
28226154391,1,-3,-8,-7,-3,-2,-1,1
28226176204,-4,-13,-12,-2,0,-1,-1,-1
28226176204,5,33,10,0,-2,-3,-1,-2
28226176992,-2,-3,-6,-4,-3,-4,-2,0
28226176992,2,-7,1,2,1,1,-1,-2
28226199397,0,5,2,1,1,1,0,1
28226199397,-5,-13,-10,-3,-2,0,-1,-1
28226200092,-1,-6,-1,0,-1,0,0,-4
28226200092,1,5,2,-2,-2,0,-1,2
28226221904,-1,0,-1,-1,-3,-3,0,-2
28226221904,-4,-12,-8,-2,-1,0,0,-1
28226222592,0,0,-7,-1,-2,1,-2,-2
28226222592,-1,5,23,3,-2,-3,-1,-1
28226236228,-3,-6,-10,-4,0,0,-1,-4
28226236228,-6,-4,-7,-3,0,0,0,-3
28226236985,-1,-2,2,-1,-2,-5,-1,-1
28226236985,1,4,-2,-4,-2,-4,-2,0
28226250575,-3,-13,-7,-3,-2,1,-1,-1
28226250575,4,17,11,4,-2,-1,-2,-1
28226258724,-2,-2,2,-1,-4,-4,-2,-3
28226258724,3,16,2,-1,-1,0,2,3
28226273639,-1,0,0,-5,-5,-3,-3,-7
28226273639,-6,-15,-12,-3,-1,-1,0,1
28226274396,-2,-2,-2,3,2,1,0,-2
28226274396,0,-8,-3,0,2,0,-1,2
28226296199,2,9,4,-1,0,0,-1,4
28226296199,0,-6,-4,-1,-2,-2,-1,-3
28226296918,2,2,3,-1,-1,-1,-2,-2
28226296918,-1,-5,-3,-1,-1,-1,-1,-1
28226327012,-1,2,0,1,0,-1,-1,0
28226327012,0,-5,0,0,1,0,1,0
28226327759,-2,1,1,-4,-2,-2,0,1
28226327759,-2,-3,-6,-3,-1,-1,1,-3
28226333799,3,14,3,1,0,-2,-1,0
28226333799,2,4,9,7,0,0,-1,-2
28226334402,-1,-8,-7,0,2,1,-1,0
28226334402,-2,-4,-16,-9,-1,0,0,-1
28226356195,-5,1,16,9,2,-1,-1,-2
28226356195,8,1,0,-4,0,-1,-2,-1
28226356945,-6,-6,5,6,-1,-2,-1,-1
28226356945,1,2,-5,-1,-3,-3,-1,2
28226370493,-4,-4,-7,-5,-4,-1,-1,-2
28226370493,-3,-8,-12,-7,-3,-2,-2,0
28226378844,1,1,1,1,0,-1,0,0
28226378844,-4,-4,3,2,0,0,-1,-1
28226393705,9,5,0,1,-2,-2,-3,2
28226393705,-6,-7,-5,-1,-3,-3,0,-6
28226394373,0,0,-5,-7,-4,-2,-3,0
28226394373,-2,-3,5,2,2,0,-1,0
28226424385,2,-2,-4,-1,-2,-1,0,1
28226424385,-4,-7,1,1,0,1,0,2
28226425065,0,2,1,0,-2,-3,-6,-8
28226425065,2,-3,-12,-7,-3,0,-1,6
28226439340,-5,-6,9,3,2,2,1,-2
28226439340,-1,1,3,-1,-1,-1,-2,-2
28226440084,-1,2,6,-2,-1,0,1,3
28226440084,-2,-9,-16,-6,-4,-3,-3,-5
28226453589,-6,-2,8,3,0,-3,-1,-2
28226453589,3,1,0,6,4,2,1,1
28226454377,-2,-4,-1,-2,-2,0,-1,0
28226454377,-4,-2,-3,-2,-3,-2,-2,-8
28226476186,8,-4,1,0,-2,0,2,8
28226476186,1,1,-5,-5,-2,-1,-3,-2
28226476925,-9,2,1,1,2,0,0,-7
28226476925,5,1,6,0,-1,-1,-1,2
28226499432,-3,6,-4,0,0,0,-1,-3
28226499432,-4,-6,4,5,2,1,-1,-1
28226500095,1,-5,-13,-5,-3,-1,0,2
28226500095,0,11,20,4,-2,0,0,0
28226513662,-4,-8,-19,-4,0,0,-2,-3
28226513662,-1,1,2,-1,0,0,-1,2
28226514376,1,6,8,6,3,2,0,3
28226514376,-2,-5,-4,-3,-1,-1,-2,-4
28226536900,0,-5,3,2,-1,-1,-1,1
28226536900,-1,2,-14,-10,-2,0,-1,-3
28226537564,0,1,4,1,-1,-2,0,2
28226537564,2,1,5,3,0,-1,-2,-1
28226559436,1,-1,-2,-2,-1,-3,-3,-4
28226559436,-9,-1,-5,-5,-4,-2,-1,-2
28226560067,10,-2,-5,0,0,-1,-2,1
28226560067,-1,1,-4,1,4,3,0,-1
28226573729,-6,-7,0,-4,0,-2,1,-2
28226573729,-2,-6,0,-2,-2,-1,-3,-1
28226574398,-1,5,0,-4,-2,-2,-2,-2
28226574398,-3,-2,-2,0,0,0,0,1
28226596241,2,5,9,4,1,1,-3,-1
28226596241,0,-8,-19,-6,-3,-1,0,3
28226596919,-4,0,25,11,1,1,0,-2
28226596919,3,-1,-7,-4,-3,-1,0,1
28226619420,-4,0,-1,-2,-1,-1,-3,0
28226619420,5,4,4,-1,-2,-3,-1,-3
28226620101,-4,-2,-11,-6,-2,-2,0,-1
28226620101,-3,-2,1,0,-3,-3,-2,-3
28226633647,1,3,4,-1,-3,-1,-2,-1
28226633647,-3,-1,-1,0,-1,0,-1,4
28226634363,1,-2,-6,-5,-3,-3,-4,-8
28226634363,0,-1,4,-1,-2,-3,-3,0
28226656260,-3,-4,-3,0,1,2,3,1
28226656260,2,3,-3,-3,-2,0,-1,0
28226656920,1,0,4,1,0,1,-1,1
28226656920,-1,-1,0,5,1,-3,-2,-2
28226679388,-4,-5,-10,-7,-2,-3,-3,-2
28226679388,0,-4,3,1,-1,1,1,-3
28226680063,0,-3,-14,-4,1,0,0,2
28226680063,-1,1,12,4,1,0,-1,-3
28226693367,-7,-1,6,5,1,-3,0,0
28226693367,3,-1,-7,-2,-1,0,-1,1
28226701097,0,-1,-8,-8,-3,-1,-2,0
28226701097,-1,1,16,8,2,0,0,0
28226716219,2,5,-10,-4,-1,1,0,-5
28226716219,1,-9,1,2,-1,-4,-3,7
28226716914,-10,0,2,0,-3,-1,-1,-5
28226716914,-2,-2,-6,-1,-2,2,2,6
28226739310,-1,-3,-2,-5,-1,0,1,-1
28226739310,0,2,6,5,2,0,-3,-5
28226740062,3,-1,-9,-1,1,1,2,3
28226740062,-3,-6,-2,-4,-1,-1,0,-1
28226753697,0,-1,-7,-3,-3,-2,-3,-3
28226753697,0,2,5,-3,-1,-2,-2,-1
28226754368,1,8,11,5,1,-2,-1,0
28226754368,-6,-8,-10,-5,-3,-4,-4,-5
28226776077,-2,-13,-17,-3,-2,-1,-1,1
28226776077,-2,-2,10,0,1,1,1,-2
28226776942,0,-1,13,3,0,0,0,2
28226776942,-1,-1,-11,-4,0,1,0,-5
28226806951,6,1,15,5,2,1,0,6
28226806951,0,9,-7,-6,-4,-3,-1,-4
28226807592,-6,0,7,0,0,0,0,-3
28226807592,0,-9,-8,-2,-2,0,2,3
28226813709,-16,-5,-3,-1,-3,-1,-4,-13
28226813709,-4,-6,-6,-2,-2,4,4,6
28226814399,2,-2,-5,-3,-2,-2,-1,0
28226814399,-1,3,-1,-2,0,0,-3,-1
28226836198,5,6,1,-3,-1,-3,0,3
28226836198,-1,-4,2,3,2,-3,-2,-1
28226836944,0,2,6,5,2,0,0,1
28226836944,-2,2,-6,-5,-5,-3,-3,1
28226859520,0,-6,-13,-6,-5,-3,-1,2
28226859520,2,4,4,0,-3,-2,-1,-3
28226860098,2,1,4,3,0,2,-1,0
28226860098,-2,1,-6,-5,1,-1,-2,-3
28226873636,-3,-9,-14,-4,-1,-1,-2,-2
28226873636,1,1,5,2,-2,-1,0,-2
28226874350,-4,-7,-9,-2,-3,-4,1,1
28226874350,6,0,6,0,0,0,0,-1
28226896038,0,5,-10,-7,-3,-2,0,-1
28226896038,-1,4,13,2,2,1,-1,-1
28226903762,-1,-3,-16,-7,-3,-4,-3,-1
28226903762,-4,-3,0,3,2,2,2,-2
28226919397,2,0,7,3,0,1,0,0
28226919397,-2,-4,-9,-1,-1,0,-1,-1
28226920068,1,2,7,1,2,3,2,1
28226920068,-3,-3,-5,-1,-3,-5,-4,-1
28226933695,1,1,4,0,1,2,-2,1
28226933695,-1,-4,0,-2,-1,-2,-1,-1
28226934403,-2,2,-2,-4,-1,-2,-2,-2
28226934403,0,1,-5,-3,-2,-1,-1,2
28226956872,-1,-3,9,4,0,1,1,-1
28226956872,-6,6,14,5,1,0,2,0
28226957547,-1,-2,-11,-3,-1,-2,0,2
28226957547,-3,-10,-4,0,-2,-3,-3,-2
28226979439,1,1,4,3,0,0,0,4
28226979439,-1,-4,-7,-6,-4,-3,-5,-6
28226980101,-5,-4,0,-3,-1,0,0,-4
28226980101,5,8,5,0,0,1,1,0
28226993047,-4,-1,2,-2,1,1,2,0
28226993047,-2,-1,-3,-2,-2,-4,-3,-1
28227008725,-4,-6,-8,-1,-4,-3,-5,-5
28227008725,3,-2,-5,-1,0,2,0,2
28227016909,-2,3,6,1,1,1,0,-1
28227016909,-2,-5,-10,-3,-2,-3,2,0
28227017603,-1,-3,-6,-3,-3,-4,-4,-2
28227017603,-1,2,6,-3,1,1,1,-2
28227039380,1,6,8,6,0,-3,-2,-1
28227039380,0,-1,-15,-7,-1,-1,-2,-3
28227040051,-4,-8,-6,0,-2,-2,-1,-1
28227040051,2,7,15,-1,-2,-5,-3,-2
28227052945,2,-3,-14,-4,-4,-2,0,-1
28227052945,-1,-2,-5,1,-1,-1,-3,-2
28227061241,0,1,6,0,-2,0,0,-1
28227061241,0,-8,-10,-3,0,0,-2,-2
28227076804,2,18,26,4,-2,-4,-2,-2
28227076804,-2,-8,-21,-8,-3,-2,-2,0
28227077601,0,-5,-2,-3,-3,-1,-1,-1
28227077601,-2,2,2,1,1,0,1,0
28227098431,1,-2,-1,-3,0,0,-1,-1
28227098431,1,0,-3,-1,1,2,1,0
28227106227,-3,0,11,6,2,0,0,-2
28227106227,-2,-3,-8,-1,-3,-3,-1,-2
28227113049,-3,-5,-3,-2,-2,-3,-1,3
28227113049,-1,3,6,-2,-1,1,0,-4
28227128723,3,-1,-16,-9,-3,0,0,0
28227128723,1,4,7,4,1,-1,1,1
28227136848,-12,-11,-2,5,2,1,-2,-5
28227136848,1,-1,-6,-3,-4,-2,-1,-1
28227137573,2,4,6,1,0,0,1,1
28227137573,-16,-11,1,5,4,3,2,-4
28227159421,5,7,5,-4,-3,-4,-3,-1
28227159421,-11,-14,0,5,3,2,2,-2
28227160093,4,10,-2,0,0,0,-1,3
28227160093,4,4,-6,-2,-4,-3,-1,3
28227173071,1,-8,-4,2,-1,0,1,0
28227173071,-12,-6,9,5,3,2,0,-2
28227181246,0,5,7,0,2,-1,-1,2
28227181246,-6,-10,-10,-2,-1,-1,-1,-1
28227196076,10,12,2,-1,-2,-2,-1,-1
28227196076,5,1,-6,0,-1,-1,-1,-1
28227196915,-14,-14,-18,-10,-7,-4,-5,-6
28227196915,-1,3,1,-3,-1,-2,-4,-1
28227219365,-3,-7,-6,-5,2,1,0,-4
28227219365,8,9,7,1,-1,-2,0,0
28227220287,-11,-9,0,1,0,2,0,-11
28227220287,10,4,-3,-6,-3,-1,0,6
28227232958,-3,-7,-10,-4,-3,-3,-3,-3
28227232958,10,8,-3,-7,-6,-5,-2,6
28227241229,-1,-2,0,3,2,2,1,-3
28227241229,-1,2,3,0,-1,-2,-2,-3
28227256204,-3,-5,-7,-5,1,1,1,4
28227256204,3,-2,5,5,2,1,0,-5
28227256919,3,4,-6,-7,-6,-4,-1,5
28227256919,0,4,8,3,1,0,1,-1
28227279499,0,-2,-7,-2,-3,0,-1,-3
28227279499,-2,-7,-7,-5,-1,-4,-5,-7
28227280026,6,1,7,4,1,0,2,11
28227280026,-3,-7,-5,-3,-3,-3,-3,-8
28227293051,-12,-2,2,4,6,4,3,-3
28227293051,-5,0,-1,-3,0,1,-3,1
28227301179,5,1,1,-2,-1,-2,-2,0
28227301179,-7,-3,-11,-7,-6,-7,-8,-11
