30369034360,0.9951171875,-0.03076171875,-0.0771484375
30369055581,1.013671875,-0.041015625,-0.08984375
30369071340,1.01806640625,-0.0927734375,0.1748046875
30369094374,0.03125,-0.02099609375,-0.13037109375
30369115675,-0.08740234375,-0.18310546875,-0.0771484375
30369130602,0.0322265625,-0.15234375,-0.50341796875
30369154352,0.14599609375,-0.08203125,-0.65771484375
30369175956,0.75146484375,0.03662109375,-0.58056640625
30369214993,1.3623046875,0.12255859375,-0.2568359375
30369217051,1.9111328125,0.13671875,0.1220703125
30369229311,2.06982421875,0.0888671875,0.4345703125
30369251240,1.7705078125,-0.01513671875,0.55615234375
30369275060,1.32958984375,-0.10107421875,0.197265625
30369289252,1.029296875,-0.09033203125,-0.26708984375
30369333048,1.015625,-0.05517578125,-0.07568359375
30369343100,0.986328125,-0.03955078125,-0.05029296875
30369349297,0.98876953125,-0.0400390625,-0.0810546875
30369371068,0.93994140625,-0.0830078125,0.2236328125
30369393781,0.18017578125,-0.248046875,0.4833984375
30369408086,2.8349609375,-0.0478515625,0.00146484375
30369431060,1.767578125,-0.03173828125,0.49267578125
30369453782,1.36572265625,-0.162109375,0.412109375
30369468086,0.52783203125,-0.22265625,-0.07666015625
30369491182,0.0703125,-0.15673828125,-0.5322265625
30369513560,0.1728515625,-0.00341796875,-0.716796875
30369528099,0.82958984375,0.1240234375,-0.46826171875
30369551097,1.61328125,0.1337890625,0.072265625
30369573640,1.10791015625,0.11865234375,-0.16796875
30369587931,0.837890625,0.03173828125,-0.2509765625
30369611095,0.98095703125,-0.041015625,-0.00048828125
30369633596,0.98974609375,-0.01953125,-0.13232421875
30369649339,0.99169921875,-0.0302734375,-0.1083984375
30369671181,0.99072265625,-0.02880859375,-0.06494140625
30369693681,0.99267578125,-0.03955078125,-0.0693359375
30369709341,0.9921875,-0.03173828125,-0.08544921875
30369731063,0.99560546875,-0.03271484375,-0.0693359375
30369753590,0.99462890625,-0.037109375,-0.07958984375
30369769342,0.9931640625,-0.0322265625,-0.07421875
30369791152,0.9912109375,-0.03564453125,-0.07275390625
30369813568,0.99560546875,-0.0302734375,-0.07275390625
30369829325,0.994140625,-0.03564453125,-0.06982421875
30369851163,0.9970703125,-0.03173828125,-0.0732421875
30369873688,0.994140625,-0.03076171875,-0.07958984375
30369889341,0.99560546875,-0.03369140625,-0.0703125
30369911155,0.9921875,-0.03173828125,-0.0751953125
30369933518,0.99365234375,-0.03662109375,-0.0751953125
30369949362,0.99609375,-0.0341796875,-0.07568359375
30369970338,0.9912109375,-0.0302734375,-0.0712890625
30369993645,0.9912109375,-0.03125,-0.07568359375
30370009293,0.99560546875,-0.02685546875,-0.07568359375
30370030384,0.99951171875,-0.03369140625,-0.08203125
30370053662,0.99169921875,-0.0341796875,-0.07177734375
30370069325,0.99169921875,-0.02685546875,-0.07373046875
30370090471,0.99169921875,-0.0302734375,-0.0751953125
30370113619,0.99169921875,-0.03173828125,-0.076171875
30370129332,0.9951171875,-0.0322265625,-0.078125
30370150508,0.9990234375,-0.03173828125,-0.07470703125
30370181049,0.994140625,-0.0322265625,-0.0751953125
30370189302,0.99462890625,-0.0283203125,-0.07470703125
30370210505,0.99365234375,-0.029296875,-0.07470703125
30370226862,0.9931640625,-0.033203125,-0.0771484375
30370249353,0.99267578125,-0.03173828125,-0.06982421875
30370270578,0.99462890625,-0.03173828125,-0.0693359375
30370286764,0.99609375,-0.0302734375,-0.0751953125
30370309297,0.994140625,-0.03125,-0.07275390625
30370331846,0.99365234375,-0.029296875,-0.07470703125
30370355017,0.99267578125,-0.0283203125,-0.076171875
30370369328,0.9951171875,-0.0283203125,-0.07177734375
30370391824,0.99658203125,-0.0322265625,-0.07568359375
30370414966,0.994140625,-0.03564453125,-0.06884765625
30370429297,0.9921875,-0.02978515625,-0.068359375
30370451805,0.994140625,-0.0322265625,-0.0751953125
30370474921,0.994140625,-0.0341796875,-0.072265625
30370489285,0.9931640625,-0.03271484375,-0.0771484375
30370511823,0.9912109375,-0.03369140625,-0.08154296875
30370534966,0.99267578125,-0.0283203125,-0.0732421875
30370549316,0.9931640625,-0.033203125,-0.07568359375
30370571823,0.99169921875,-0.0302734375,-0.07470703125
30370594942,0.99560546875,-0.0302734375,-0.07275390625
30370609371,0.99462890625,-0.02880859375,-0.07958984375
30370631822,0.994140625,-0.0322265625,-0.07568359375
30370655372,0.9931640625,-0.0263671875,-0.06982421875
30370676158,0.99560546875,-0.02783203125,-0.078125
30370691906,0.99560546875,-0.029296875,-0.0791015625
30370714968,0.99560546875,-0.029296875,-0.076171875
30370736126,0.99267578125,-0.02978515625,-0.072265625
30370751797,0.99658203125,-0.02783203125,-0.08154296875
30370774963,0.994140625,-0.025390625,-0.07275390625
30370796176,0.99462890625,-0.0283203125,-0.072265625
30370811828,0.9951171875,-0.0302734375,-0.07763671875
30370834965,0.998046875,-0.03173828125,-0.07470703125
30370856149,0.994140625,-0.03369140625,-0.0791015625
30370871800,0.9921875,-0.029296875,-0.07763671875
30370894963,0.98876953125,-0.02783203125,-0.0810546875
30370916146,0.9921875,-0.029296875,-0.07666015625
30370931837,0.99365234375,-0.03076171875,-0.072265625
30370954323,0.994140625,-0.0302734375,-0.07861328125
30370976015,0.99462890625,-0.03271484375,-0.07568359375
30370991775,0.99462890625,-0.0263671875,-0.0712890625
30371014321,0.99365234375,-0.0263671875,-0.0732421875
30371036099,0.99365234375,-0.0283203125,-0.06640625
30371051048,0.9931640625,-0.02783203125,-0.08056640625
30371065348,0.994140625,-0.03076171875,-0.0732421875
30371087963,0.99462890625,-0.03125,-0.0771484375
30371111098,0.9970703125,-0.029296875,-0.07568359375
30371125420,0.99462890625,-0.025390625,-0.07666015625
30371147891,0.99365234375,-0.02880859375,-0.07177734375
30371171094,0.9970703125,-0.02880859375,-0.078125
30371185476,0.994140625,-0.02685546875,-0.0703125
30371207947,0.99072265625,-0.0283203125,-0.0732421875
30371231031,0.99609375,-0.02783203125,-0.0703125
30371245471,0.99560546875,-0.0283203125,-0.0712890625
30371268011,0.9921875,-0.0302734375,-0.07568359375
30371291093,0.99267578125,-0.03076171875,-0.0751953125
30371305465,0.9951171875,-0.02783203125,-0.07470703125
30371327953,0.99267578125,-0.02783203125,-0.07373046875
30371351054,0.99609375,-0.02880859375,-0.0732421875
30371365447,0.99169921875,-0.02880859375,-0.07177734375
30371387962,0.998046875,-0.029296875,-0.072265625
30371411098,0.9931640625,-0.02685546875,-0.0732421875
30371425416,0.9931640625,-0.02978515625,-0.07470703125
30371447835,0.9970703125,-0.02587890625,-0.07275390625
30371471006,0.994140625,-0.02685546875,-0.07080078125
30371485337,0.99658203125,-0.0283203125,-0.07568359375
30371508080,0.99609375,-0.02880859375,-0.072265625
30371531046,0.994140625,-0.02783203125,-0.0751953125
30371545480,0.9931640625,-0.02783203125,-0.07763671875
30371567925,0.99560546875,-0.02685546875,-0.07666015625
30371591067,0.99609375,-0.02783203125,-0.07421875
30371605428,0.9951171875,-0.0302734375,-0.08056640625
30371627893,0.9921875,-0.0244140625,-0.0712890625
30371650428,0.994140625,-0.02783203125,-0.0732421875
30371665374,0.9951171875,-0.03076171875,-0.07470703125
30371687986,0.99609375,-0.02978515625,-0.0732421875
30371711101,0.9951171875,-0.02685546875,-0.07373046875
30371725380,0.99853515625,-0.025390625,-0.07861328125
30371747857,0.99609375,-0.025390625,-0.07470703125
30371771126,0.99169921875,-0.02978515625,-0.07275390625
30371785450,0.99462890625,-0.03173828125,-0.0751953125
30371807971,0.9951171875,-0.03125,-0.07421875
30371831112,0.99365234375,-0.02978515625,-0.07763671875
30371845388,0.99267578125,-0.0263671875,-0.07373046875
30371867966,0.9912109375,-0.02978515625,-0.07568359375
30371891066,0.9931640625,-0.02490234375,-0.0751953125
30371905446,0.994140625,-0.0283203125,-0.07470703125
30371927951,0.9931640625,-0.02734375,-0.07470703125
30371951165,0.998046875,-0.0302734375,-0.0771484375
30371965380,0.9912109375,-0.02587890625,-0.0703125
30371987796,0.99658203125,-0.03076171875,-0.076171875
30372010552,0.98974609375,-0.02685546875,-0.0810546875
30372025453,0.9970703125,-0.02490234375,-0.0791015625
30372047952,0.99560546875,-0.0224609375,-0.07080078125
30372064329,0.99072265625,-0.02783203125,-0.0771484375
30372085502,0.99169921875,-0.02685546875,-0.0771484375
30372107976,0.9951171875,-0.02783203125,-0.07275390625
30372124268,0.99560546875,-0.02685546875,-0.07275390625
30372145549,0.99267578125,-0.0263671875,-0.07177734375
30372167853,0.99267578125,-0.0244140625,-0.080078125
30372184272,0.99267578125,-0.03076171875,-0.0693359375
30372205271,0.99658203125,-0.0302734375,-0.0732421875
30372227936,0.99365234375,-0.02783203125,-0.07373046875
30372244294,0.99462890625,-0.0283203125,-0.072265625
30372265344,0.99560546875,-0.02978515625,-0.07373046875
30372287953,0.99072265625,-0.0234375,-0.06640625
30372304298,0.99658203125,-0.02783203125,-0.07421875
30372325421,0.9931640625,-0.02734375,-0.07470703125
30372347971,0.9951171875,-0.0283203125,-0.07763671875
30372364243,0.9931640625,-0.02685546875,-0.07861328125
30372385460,0.99658203125,-0.02392578125,-0.0732421875
30372407973,0.99658203125,-0.03076171875,-0.07763671875
30372424367,0.994140625,-0.0263671875,-0.07421875
30372445457,0.99560546875,-0.02783203125,-0.07666015625
30372467926,0.994140625,-0.02490234375,-0.064453125
30372484251,0.9951171875,-0.02734375,-0.07861328125
30372505360,0.9931640625,-0.02490234375,-0.07275390625
30372527929,0.9951171875,-0.02685546875,-0.076171875
30372544302,0.98974609375,-0.02734375,-0.076171875
30372565328,0.9951171875,-0.02490234375,-0.076171875
30372587945,0.99267578125,-0.02978515625,-0.07470703125
30372604293,0.99365234375,-0.02685546875,-0.07568359375
30372625454,0.998046875,-0.02783203125,-0.076171875
30372647874,0.99169921875,-0.02734375,-0.06884765625
30372664245,0.9951171875,-0.02685546875,-0.0712890625
30372685475,0.99658203125,-0.025390625,-0.07421875
30372707890,0.9912109375,-0.0234375,-0.08056640625
30372724266,0.99267578125,-0.02734375,-0.06884765625
30372745422,0.99560546875,-0.0244140625,-0.0771484375
30372767929,0.9951171875,-0.02490234375,-0.07666015625
30372784276,0.99658203125,-0.02587890625,-0.06884765625
