29555274168,-0.228210449219,-0.03076171875,-0.11767578125,0.965942382812
29555298127,-0.228332519531,-0.0306396484375,-0.117919921875,0.965881347656
29555312852,-0.228210449219,-0.02783203125,-0.117858886719,0.966064453125
29555334221,-0.230590820312,-0.0265502929688,-0.117492675781,0.965576171875
29555357947,-0.234619140625,-0.0203857421875,-0.115844726562,0.964904785156
29555372929,-0.235656738281,-0.0187377929688,-0.115417480469,0.964782714844
29555394234,-0.233215332031,-0.0211181640625,-0.116027832031,0.965209960938
29555417912,-0.227661132812,-0.0288696289062,-0.118225097656,0.966064453125
29555448614,-0.227722167969,-0.0291748046875,-0.118286132812,0.966064453125
29555457692,-0.233154296875,-0.0219116210938,-0.116394042969,0.965209960938
29555478573,-0.233764648438,-0.0208129882812,-0.116088867188,0.965087890625
29555492910,-0.233032226562,-0.0211181640625,-0.1162109375,0.965270996094
29555514271,-0.232482910156,-0.0210571289062,-0.117370605469,0.965209960938
29555537873,-0.232604980469,-0.02099609375,-0.117370605469,0.965209960938
29555584265,-0.232788085938,-0.0210571289062,-0.117309570312,0.965148925781
29555584909,-0.232849121094,-0.0211181640625,-0.117309570312,0.965148925781
29555597148,-0.232849121094,-0.0210571289062,-0.117309570312,0.965148925781
29555612215,-0.232604980469,-0.0161743164062,-0.117248535156,0.96533203125
29555634722,-0.23291015625,-0.0138549804688,-0.117065429688,0.96533203125
29555658521,-0.231872558594,-0.0131225585938,-0.116943359375,0.965576171875
29555672928,-0.226989746094,-0.0200805664062,-0.118896484375,0.966369628906
29555696075,-0.223876953125,-0.0255737304688,-0.120361328125,0.966796875
29555718517,-0.227661132812,-0.0209350585938,-0.119262695312,0.966186523438
29555732890,-0.232421875,-0.0135498046875,-0.117370605469,0.965393066406
29555756056,-0.230407714844,-0.015380859375,-0.117858886719,0.965759277344
29555778550,-0.225158691406,-0.0233764648438,-0.120056152344,0.966613769531
29555799722,-0.225524902344,-0.0237426757812,-0.1201171875,0.966491699219
29555816023,-0.225219726562,-0.0227661132812,-0.120483398438,0.966552734375
29555838568,-0.225708007812,-0.0220947265625,-0.120727539062,0.966430664062
29555859662,-0.225708007812,-0.0217895507812,-0.120727539062,0.966430664062
29555876045,-0.2255859375,-0.0215454101562,-0.12060546875,0.966491699219
29555898567,-0.225341796875,-0.0213623046875,-0.120544433594,0.966552734375
29555919795,-0.225341796875,-0.0210571289062,-0.120361328125,0.966552734375
29555936045,-0.2255859375,-0.020751953125,-0.120300292969,0.966552734375
29555958515,-0.225524902344,-0.0205078125,-0.120178222656,0.966552734375
29555979664,-0.225341796875,-0.0201416015625,-0.120056152344,0.966613769531
29555996106,-0.225463867188,-0.0194702148438,-0.119873046875,0.966613769531
29556018546,-0.225891113281,-0.0187377929688,-0.119567871094,0.966613769531
29556039788,-0.225891113281,-0.0178833007812,-0.119262695312,0.966613769531
29556056010,-0.2255859375,-0.016845703125,-0.118774414062,0.966796875
29556078569,-0.225524902344,-0.0155029296875,-0.118286132812,0.966857910156
29556099853,-0.226440429688,-0.0138549804688,-0.11767578125,0.966796875
29556116045,-0.227844238281,-0.0118408203125,-0.116882324219,0.966552734375
29556138574,-0.229125976562,-0.00946044921875,-0.115966796875,0.966369628906
29556159698,-0.230773925781,-0.00726318359375,-0.115173339844,0.966125488281
29556176044,-0.232360839844,-0.00506591796875,-0.114562988281,0.9658203125
29556198536,-0.233764648438,-0.0029296875,-0.113952636719,0.965576171875
29556219591,-0.235595703125,-0.00048828125,-0.11328125,0.965209960938
29556236103,-0.236999511719,0.001953125,-0.112548828125,0.964965820312
29556258520,-0.237915039062,0.00439453125,-0.111938476562,0.964782714844
29556287317,-0.238830566406,0.00653076171875,-0.111328125,0.964599609375
29556296033,-0.239868164062,0.008544921875,-0.110778808594,0.964416503906
29556318545,-0.240783691406,0.0107421875,-0.109985351562,0.964233398438
29556341049,-0.242309570312,0.0132446289062,-0.109069824219,0.963928222656
29556363541,-0.24462890625,0.015869140625,-0.10791015625,0.963439941406
29556378512,-0.247253417969,0.0185546875,-0.106811523438,0.962829589844
29556401033,-0.249206542969,0.0213012695312,-0.105773925781,0.96240234375
29556415394,-0.251098632812,0.02392578125,-0.104858398438,0.9619140625
29556438554,-0.253540039062,0.0266723632812,-0.103576660156,0.961364746094
29556461022,-0.256652832031,0.029296875,-0.102172851562,0.960632324219
29556475443,-0.260131835938,0.0320434570312,-0.100524902344,0.959777832031
29556498552,-0.262878417969,0.0343627929688,-0.098876953125,0.959106445312
29556521022,-0.262329101562,0.0383911132812,-0.0966186523438,0.959350585938
29556542025,-0.263610839844,0.0426635742188,-0.0945434570312,0.959045410156
29556566046,-0.266906738281,0.0469970703125,-0.092041015625,0.958129882812
29556581046,-0.271240234375,0.05224609375,-0.089111328125,0.956909179688
29556603536,-0.276733398438,0.0579223632812,-0.0861206054688,0.955322265625
29556624686,-0.282287597656,0.0640258789062,-0.0829467773438,0.953552246094
29556641026,-0.287353515625,0.0704345703125,-0.0794067382812,0.951904296875
29556663521,-0.292419433594,0.0772094726562,-0.0756225585938,0.950134277344
29556684798,-0.297058105469,0.0842895507812,-0.0715942382812,0.948425292969
29556700355,-0.301696777344,0.0917358398438,-0.0672607421875,0.946594238281
29556723523,-0.306640625,0.0994262695312,-0.0626220703125,0.944519042969
29556745998,-0.311767578125,0.107299804688,-0.0576171875,0.942321777344
29556760347,-0.316284179688,0.115356445312,-0.052001953125,0.940185546875
29556783575,-0.319946289062,0.123718261719,-0.046142578125,0.938171386719
29556806044,-0.3232421875,0.132385253906,-0.0400390625,0.936157226562
29556820372,-0.327087402344,0.141296386719,-0.0333862304688,0.933715820312
29556843511,-0.331176757812,0.150451660156,-0.0261840820312,0.931091308594
29556866050,-0.335327148438,0.159912109375,-0.0184326171875,0.92822265625
29556880369,-0.339782714844,0.169250488281,-0.0104370117188,0.925048828125
29556903524,-0.344848632812,0.178527832031,-0.00201416015625,0.921508789062
29556926037,-0.349914550781,0.187744140625,0.0069580078125,0.917724609375
29556940380,-0.355041503906,0.196472167969,0.0162353515625,0.913818359375
29556963545,-0.360168457031,0.205078125,0.0263671875,0.90966796875
29556986027,-0.366149902344,0.213256835938,0.0370483398438,0.904968261719
29557007204,-0.372985839844,0.221130371094,0.0482788085938,0.899780273438
29557023611,-0.380187988281,0.228515625,0.0602416992188,0.894165039062
29557046509,-0.388854980469,0.2353515625,0.072509765625,0.887756347656
29557067173,-0.3984375,0.241394042969,0.0849609375,0.880737304688
29557083499,-0.407348632812,0.246765136719,0.0975341796875,0.873840332031
29557106026,-0.414978027344,0.251525878906,0.109619140625,0.867431640625
29557127210,-0.421081542969,0.256408691406,0.121032714844,0.861511230469
29557143534,-0.427429199219,0.261596679688,0.132141113281,0.855224609375
29557166095,-0.434753417969,0.265991210938,0.143615722656,0.848266601562
29557187170,-0.44287109375,0.269653320312,0.155395507812,0.8408203125
29557203519,-0.4521484375,0.272155761719,0.167541503906,0.832702636719
29557226039,-0.460144042969,0.274108886719,0.179382324219,0.8251953125
29557247190,-0.466918945312,0.275756835938,0.190124511719,0.818359375
29557263535,-0.47216796875,0.277709960938,0.199768066406,0.812377929688
29557285990,-0.476928710938,0.279479980469,0.209106445312,0.806640625
29557307252,-0.481018066406,0.280944824219,0.218017578125,0.801330566406
29557323552,-0.484741210938,0.282165527344,0.226806640625,0.796203613281
29557345969,-0.488708496094,0.28271484375,0.235656738281,0.790954589844
29557367234,-0.4931640625,0.282348632812,0.244689941406,0.785583496094
29557383493,-0.497436523438,0.281372070312,0.252868652344,0.780639648438
29557406020,-0.501525878906,0.280517578125,0.260070800781,0.775939941406
29557427163,-0.504272460938,0.280029296875,0.266723632812,0.772094726562
29557443517,-0.506774902344,0.279541015625,0.272583007812,0.7685546875
29557448966,-0.509216308594,0.278869628906,0.278259277344,0.76513671875
29557471433,-0.511352539062,0.278015136719,0.28369140625,0.762084960938
29557494069,-0.513427734375,0.276794433594,0.288879394531,0.759155273438
29557509033,-0.515930175781,0.275085449219,0.293823242188,0.756164550781
29557531506,-0.518371582031,0.273315429688,0.298461914062,0.753295898438
29557554060,-0.52001953125,0.271850585938,0.302734375,0.7509765625
29557569043,-0.522216796875,0.270202636719,0.306701660156,0.748413085938
29557591399,-0.524658203125,0.268493652344,0.310668945312,0.745727539062
29557614037,-0.526733398438,0.267028808594,0.314086914062,0.743347167969
29557629083,-0.528442382812,0.265869140625,0.317199707031,0.741271972656
29557651608,-0.530700683594,0.264343261719,0.320007324219,0.738891601562
29557674044,-0.533325195312,0.262512207031,0.322570800781,0.736572265625
29557689046,-0.535522460938,0.260375976562,0.324523925781,0.73486328125
29557711492,-0.53662109375,0.258666992188,0.326232910156,0.733947753906
29557734035,-0.537780761719,0.256713867188,0.327819824219,0.733032226562
29557749026,-0.539367675781,0.254272460938,0.329223632812,0.732116699219
29557771525,-0.541137695312,0.251647949219,0.330200195312,0.731262207031
29557789355,-0.54248046875,0.249328613281,0.330871582031,0.730773925781
29557809066,-0.543395996094,0.247253417969,0.330810546875,0.730834960938
29557831506,-0.544067382812,0.245788574219,0.330261230469,0.731079101562
29557849321,-0.545959472656,0.24365234375,0.329467773438,0.730773925781
29557876528,-0.548034667969,0.241271972656,0.328430175781,0.73046875
29557891540,-0.549377441406,0.239135742188,0.326904296875,0.730773925781
29557909333,-0.550415039062,0.236999511719,0.324951171875,0.731567382812
29557929027,-0.551635742188,0.235229492188,0.323303222656,0.731994628906
29557951562,-0.552124023438,0.233337402344,0.321838378906,0.732849121094
29557969327,-0.552795410156,0.231689453125,0.320678710938,0.7333984375
29557989056,-0.554260253906,0.229431152344,0.320129394531,0.733215332031
29558011580,-0.556030273438,0.226928710938,0.319519042969,0.73291015625
29558029336,-0.556945800781,0.2255859375,0.318542480469,0.733093261719
29558049039,-0.557006835938,0.224731445312,0.317504882812,0.733764648438
29558071390,-0.557373046875,0.223571777344,0.316772460938,0.734130859375
29558089311,-0.558288574219,0.222351074219,0.31640625,0.733947753906
29558109056,-0.558471679688,0.221496582031,0.316345214844,0.734130859375
29558131569,-0.55859375,0.220703125,0.316528320312,0.734191894531
29558149281,-0.559020996094,0.219665527344,0.317077636719,0.73388671875
29558169124,-0.559020996094,0.218872070312,0.317749023438,0.73388671875
29558191473,-0.559143066406,0.218444824219,0.317932128906,0.73388671875
29558209300,-0.560119628906,0.2177734375,0.317993164062,0.733276367188
29558228914,-0.560424804688,0.217163085938,0.318603515625,0.732971191406
29558251521,-0.559692382812,0.216857910156,0.318969726562,0.733459472656
29558269293,-0.558288574219,0.217529296875,0.319152832031,0.734191894531
29558290400,-0.557922363281,0.217590332031,0.31884765625,0.734619140625
29558311474,-0.559265136719,0.216918945312,0.318725585938,0.733825683594
29558329323,-0.559875488281,0.215881347656,0.319030761719,0.733520507812
29558350349,-0.559020996094,0.216003417969,0.318542480469,0.734375
29558371424,-0.558349609375,0.216491699219,0.317932128906,0.735046386719
29558389275,-0.559509277344,0.215881347656,0.317626953125,0.734436035156
29558410324,-0.560424804688,0.215087890625,0.318115234375,0.733764648438
29558431528,-0.559509277344,0.215270996094,0.317993164062,0.734436035156
29558449313,-0.559204101562,0.2158203125,0.317687988281,0.734680175781
29558470347,-0.560302734375,0.215270996094,0.317565917969,0.734069824219
29558491531,-0.561340332031,0.214721679688,0.317687988281,0.7333984375
29558509299,-0.560729980469,0.21484375,0.317626953125,0.733825683594
29558530320,-0.559326171875,0.215515136719,0.31689453125,0.734985351562
29558551542,-0.559265136719,0.215942382812,0.316162109375,0.735229492188
29558569337,-0.560241699219,0.21533203125,0.31591796875,0.734802246094
29558590378,-0.560241699219,0.215026855469,0.315795898438,0.734924316406
29558611497,-0.560119628906,0.215148925781,0.3154296875,0.735107421875
29558629275,-0.560180664062,0.215148925781,0.315368652344,0.735107421875
29558651969,-0.56005859375,0.215209960938,0.315612792969,0.735107421875
29558671555,-0.559326171875,0.215393066406,0.31591796875,0.735473632812
29558689340,-0.559143066406,0.215515136719,0.315734863281,0.735656738281
29558711785,-0.559204101562,0.215576171875,0.315673828125,0.735595703125
29558731502,-0.55908203125,0.215454101562,0.315734863281,0.735717773438
29558749312,-0.558715820312,0.215454101562,0.315612792969,0.736022949219
29558771842,-0.558837890625,0.21533203125,0.315185546875,0.736145019531
29558791559,-0.559448242188,0.215026855469,0.314819335938,0.735961914062
29558809287,-0.5595703125,0.214599609375,0.314636230469,0.736022949219
29558831816,-0.559204101562,0.214538574219,0.314270019531,0.736511230469
29558851501,-0.558349609375,0.215148925781,0.313781738281,0.737182617188
29558869364,-0.558288574219,0.215209960938,0.313598632812,0.7373046875
29558891819,-0.558959960938,0.214721679688,0.313842773438,0.73681640625
29558911467,-0.55908203125,0.214660644531,0.314025878906,0.736694335938
29558929350,-0.558898925781,0.214965820312,0.3134765625,0.736938476562
29558951765,-0.558166503906,0.215759277344,0.31298828125,0.737487792969
29558972168,-0.557983398438,0.21630859375,0.312561035156,0.737609863281
29558989318,-0.557678222656,0.216857910156,0.312438964844,0.737731933594
29559011786,-0.5576171875,0.217163085938,0.31201171875,0.737915039062
29559031591,-0.557312011719,0.218078613281,0.311462402344,0.738098144531
29559048518,-0.557739257812,0.218383789062,0.31103515625,0.737915039062
29559071023,-0.557678222656,0.21923828125,0.310607910156,0.73779296875
29559092119,-0.557739257812,0.220275878906,0.310302734375,0.737609863281
29559108468,-0.557189941406,0.221435546875,0.309753417969,0.737915039062
29559130995,-0.556884765625,0.222717285156,0.308471679688,0.73828125
29559152016,-0.555541992188,0.225158691406,0.307006835938,0.739196777344
29559168492,-0.553894042969,0.227722167969,0.305725097656,0.740173339844
29559191019,-0.552001953125,0.230895996094,0.305114746094,0.740844726562
29559212199,-0.550903320312,0.233276367188,0.304870605469,0.740966796875
29559228448,-0.550598144531,0.234924316406,0.304138183594,0.740966796875
29559250975,-0.550415039062,0.236328125,0.302062988281,0.741577148438
29559272301,-0.547180175781,0.239501953125,0.299499511719,0.743957519531
29559288518,-0.541564941406,0.243774414062,0.2958984375,0.748107910156
29559312429,-0.534423828125,0.248168945312,0.291076660156,0.753662109375
29559331967,-0.525451660156,0.253051757812,0.28564453125,0.760375976562
29559348501,-0.5166015625,0.257385253906,0.279968261719,0.76708984375
29559371020,-0.509033203125,0.260314941406,0.274291992188,0.773193359375
29559392122,-0.501892089844,0.262390136719,0.268249511719,0.779235839844
29559408491,-0.493225097656,0.264770507812,0.260925292969,0.786437988281
29559430972,-0.482604980469,0.267761230469,0.252563476562,0.794677734375
29559452209,-0.472106933594,0.269836425781,0.24365234375,0.803039550781
29559467905,-0.462890625,0.270690917969,0.234191894531,0.810913085938
29559490979,-0.455200195312,0.27099609375,0.224670410156,0.817810058594
29559512250,-0.448547363281,0.270629882812,0.215515136719,0.824035644531
29559527822,-0.4423828125,0.268981933594,0.206848144531,0.830139160156
29559550969,-0.436462402344,0.265625,0.199096679688,0.836242675781
29559573483,-0.432434082031,0.260620117188,0.19140625,0.841674804688
29559587822,-0.429809570312,0.255615234375,0.183349609375,0.846313476562
29559611019,-0.4287109375,0.250854492188,0.174743652344,0.85009765625
29559633575,-0.427917480469,0.246215820312,0.165405273438,0.853759765625
29559647925,-0.425659179688,0.241638183594,0.155334472656,0.858032226562
29559671061,-0.421264648438,0.237243652344,0.14453125,0.86328125
29559693471,-0.415283203125,0.233276367188,0.133056640625,0.869140625
29559707819,-0.409118652344,0.229553222656,0.121032714844,0.874755859375
29559730968,-0.401672363281,0.225402832031,0.109191894531,0.880859375
29559753497,-0.391906738281,0.220703125,0.0968627929688,0.887817382812
29559767817,-0.382141113281,0.215270996094,0.0831298828125,0.894836425781
29559790969,-0.372619628906,0.209716796875,0.0689697265625,0.901306152344
29559813495,-0.362609863281,0.203674316406,0.0552978515625,0.90771484375
29559827821,-0.351684570312,0.197021484375,0.0419311523438,0.914184570312
29559850967,-0.342590332031,0.189514160156,0.0282592773438,0.919677734375
29559873527,-0.3349609375,0.181396484375,0.0154418945312,0.924438476562
29559894683,-0.326599121094,0.172912597656,0.00347900390625,0.92919921875
29559911045,-0.3193359375,0.163818359375,-0.00830078125,0.933288574219
29559933446,-0.312622070312,0.154418945312,-0.02001953125,0.93701171875
29559954689,-0.305847167969,0.144592285156,-0.0316162109375,0.940490722656
29559971025,-0.298767089844,0.134521484375,-0.0431518554688,0.943786621094
29559993493,-0.292663574219,0.124450683594,-0.053955078125,0.946533203125
29560014636,-0.287170410156,0.1142578125,-0.0636596679688,0.948852539062
29560031026,-0.282958984375,0.104064941406,-0.0725708007812,0.95068359375
29560053481,-0.279602050781,0.093994140625,-0.0807495117188,0.952087402344
29560074612,-0.27734375,0.0841674804688,-0.087890625,0.953002929688
29560090964,-0.276123046875,0.07470703125,-0.09375,0.95361328125
29560113499,-0.275146484375,0.0652465820312,-0.0989990234375,0.954040527344
29560134645,-0.274353027344,0.0562744140625,-0.103637695312,0.954345703125
29560150990,-0.27392578125,0.0478515625,-0.107604980469,0.954467773438
29560173497,-0.273010253906,0.0402221679688,-0.111267089844,0.954711914062
29560194655,-0.271423339844,0.0341796875,-0.1142578125,0.955017089844
29560211030,-0.26953125,0.0293579101562,-0.116271972656,0.955444335938
29560233445,-0.264953613281,0.0267333984375,-0.116638183594,0.956787109375
29560254516,-0.265258789062,0.023681640625,-0.118713378906,0.95654296875
29560271027,-0.26513671875,0.0213012695312,-0.119689941406,0.956481933594
29560293468,-0.264526367188,0.019775390625,-0.1201171875,0.956665039062
29560314652,-0.263366699219,0.0183715820312,-0.120727539062,0.956909179688
29560330923,-0.262084960938,0.01708984375,-0.121459960938,0.957214355469
29560353515,-0.2607421875,0.015625,-0.122192382812,0.95751953125
29560374598,-0.2587890625,0.01416015625,-0.122924804688,0.957946777344
29560390974,-0.2568359375,0.0125122070312,-0.123779296875,0.958374023438
29560413482,-0.254516601562,0.0108642578125,-0.124267578125,0.958984375
29560434689,-0.252014160156,0.00872802734375,-0.125183105469,0.959533691406
29560450315,-0.250061035156,0.00634765625,-0.126220703125,0.959899902344
29560473433,-0.248352050781,0.0037841796875,-0.127136230469,0.960266113281
29560494588,-0.246154785156,0.0009765625,-0.127868652344,0.960754394531
29560510293,-0.243591308594,-0.00201416015625,-0.128845214844,0.961242675781
29560533499,-0.241394042969,-0.0052490234375,-0.129943847656,0.961669921875
29560555971,-0.238952636719,-0.00872802734375,-0.131408691406,0.962036132812
29560570278,-0.235778808594,-0.0127563476562,-0.13330078125,0.962524414062
29560593451,-0.232360839844,-0.0171508789062,-0.135375976562,0.963012695312
29560615964,-0.230895996094,-0.0211181640625,-0.137268066406,0.963012695312
29560630334,-0.23046875,-0.0243530273438,-0.138793945312,0.962768554688
29560653495,-0.230102539062,-0.0272216796875,-0.139770507812,0.962707519531
29560676002,-0.228210449219,-0.0298461914062,-0.140014648438,0.963012695312
29560690383,-0.224609375,-0.032470703125,-0.140319824219,0.963745117188
29560713514,-0.221069335938,-0.0352172851562,-0.140930175781,0.96435546875
29560736038,-0.218017578125,-0.037841796875,-0.141784667969,0.96484375
29560757146,-0.215881347656,-0.0399169921875,-0.142883300781,0.965087890625
