28101914536,0,-1,-2,-1,-1,-2,-2,-1
28101914536,0,-4,-5,-1,0,-2,-1,1
28101915338,0,0,-1,-1,-1,-1,-1,0
28101915338,-7,2,0,-1,0,-2,-1,-2
28101919623,-3,-4,0,0,0,1,1,1
28101919623,-2,-1,-1,-2,-1,0,-1,-1
28101921228,-2,-11,-3,-1,1,-1,-1,-2
28101921228,3,15,5,0,0,-1,-2,0
28101925303,-1,-8,-3,-2,-1,-2,-1,0
28101925303,-2,10,0,-3,-3,-1,0,-1
28101934082,2,5,1,1,0,-1,0,-1
28101934082,0,-2,4,2,-1,0,-1,-1
28101949011,-2,3,1,-1,0,0,0,-3
28101949011,0,-5,-3,-1,-1,-1,-1,0
28101956044,-2,-2,-1,-1,-3,0,-1,0
28101956044,2,-3,-8,-3,-2,-2,-2,1
28101964043,1,1,-3,-2,-2,0,0,-2
28101964043,-2,-8,-5,1,0,0,-2,0
28101986817,-5,2,6,1,1,0,1,0
28101986817,0,-10,0,-1,0,-1,-1,-1
28101988281,-3,7,-3,-1,-3,-1,0,0
28101988281,-2,-3,-4,-2,-1,-1,-1,-2
28102033558,-1,-10,-13,-2,-2,-1,-1,-1
28102033558,-5,10,18,1,-2,0,0,-4
28102034356,-2,-5,0,-2,-1,-1,-2,-2
28102034356,3,11,2,0,0,-1,-1,-1
28102035152,-1,1,0,-2,0,-1,-2,0
28102035152,0,-5,-9,-2,0,-1,-1,0
28102038371,2,-1,-5,-2,-3,-1,-2,1
28102038371,-3,-6,-5,-2,-1,0,-2,0
28102045085,1,6,7,0,-3,-2,-3,-1
28102045085,-3,-4,-2,1,0,-1,-1,0
28102061650,3,3,3,0,-1,-3,-1,1
28102061650,0,-2,-3,0,-1,0,-1,0
28102063062,-6,-9,-4,0,1,2,0,-2
28102063062,2,9,4,-1,0,0,-3,-1
28102075875,0,1,-3,-2,-1,-1,-1,-1
28102075875,-1,-3,-6,-1,-1,-1,-1,-1
28102082700,0,-11,-3,-1,0,-1,2,2
28102082700,-1,3,2,1,-1,0,0,0
28102106606,-5,-1,-1,2,0,-1,0,-2
28102106606,3,5,2,-1,1,-1,-1,-2
28102107999,-3,-6,-6,-1,0,1,-1,-1
28102107999,1,-8,-9,-3,-2,-2,0,0
28102120768,-1,7,2,0,-3,0,0,2
28102120768,-7,-20,-12,-2,-3,0,-1,0
28102135167,2,16,11,1,1,-2,-2,-1
28102135167,0,5,8,2,0,0,-1,-1
28102143948,-5,-6,-3,-2,0,0,2,-3
28102143948,-1,-6,1,0,0,-1,1,-2
28102145552,4,13,-2,-3,-2,-4,0,1
28102145552,-3,-5,-4,-2,-1,-1,-1,1
28102166519,-5,-2,-2,0,0,0,-2,-3
28102166519,-2,5,0,-1,-1,-2,-1,-1
28102168006,4,7,8,0,0,-1,-2,0
28102168006,1,-3,-6,-4,-3,-1,-3,-1
28102180194,1,2,1,0,0,-2,-1,0
28102180194,-1,-6,-1,-3,-2,-3,-1,0
28102189033,0,-4,-3,-1,-2,0,0,0
28102189033,-2,-8,-6,-2,0,0,0,0
28102204043,-2,-3,0,-1,1,0,-1,-2
28102204043,0,8,5,0,0,-1,0,0
28102205508,-3,-7,-5,-1,-2,0,-3,-2
28102205508,-1,-9,-1,-2,0,-2,-1,-4
28102225719,5,19,-1,-3,-3,-5,-3,-4
28102225719,-6,-8,-1,0,-1,-2,-2,-4
28102234058,-5,3,3,-1,-2,-1,-1,-2
28102234058,-2,-21,-11,-2,-3,-1,-2,-2
28102240769,1,3,-2,0,0,1,-1,0
28102240769,0,3,4,1,-1,-2,-1,-2
28102247542,-1,-3,-3,1,-1,-1,0,-1
28102247542,0,0,-3,-2,-1,-2,-2,-1
28102263969,-3,-7,-2,-1,-1,-3,-1,0
28102263969,-1,3,-4,-3,0,1,-2,0
28102265528,-4,-11,-6,-1,0,-1,-1,0
28102265528,1,5,1,1,0,-3,0,0
28102286519,-2,-3,0,0,-2,-1,-1,1
28102286519,0,-2,-3,-1,-2,0,-1,1
28102288039,-7,-3,1,1,0,-1,-1,-2
28102288039,0,-3,-2,0,-1,-2,-1,-1
28102300785,0,11,2,-2,-1,0,-2,-2
28102300785,3,7,5,-2,-2,-3,-1,0
28102307663,0,-6,0,-1,0,-1,-1,-2
28102307663,0,3,-2,0,-2,0,-1,0
28102324038,-4,-16,-6,-3,-1,0,1,-1
28102324038,0,-12,-4,0,-1,-2,-1,-1
28102325534,2,12,-8,-2,-2,-3,-1,-1
28102325534,1,15,12,3,0,0,-2,0
28102346310,-1,-6,-3,-3,0,-3,-1,-1
28102346310,-2,4,6,0,-2,1,0,0
28102354034,1,-11,-6,-1,0,1,-1,-2
28102354034,-4,-18,-9,-2,0,-1,-1,-1
28102360159,3,17,8,-1,0,-1,-1,0
28102360159,-8,-3,-2,-1,1,0,0,-3
28102369064,4,0,0,1,0,0,0,-1
28102369064,-6,4,-1,-1,-1,-1,0,-3
28102383905,0,-6,-2,1,-2,0,-1,-2
28102383905,1,-6,-5,-3,-1,-1,-1,-1
28102385476,-4,-4,1,-3,-2,-3,-1,-4
28102385476,0,4,0,0,2,-2,-2,1
28102413916,0,-6,-3,-1,-1,-2,-1,1
28102413916,-2,6,4,1,1,-1,-1,1
28102415497,-3,-6,0,0,-1,-3,-1,0
28102415497,1,18,3,-2,-2,-1,0,0
28102420157,-4,-11,-10,-1,0,-1,-2,-2
28102420157,3,4,3,0,-2,-1,0,0
28102429042,-1,-3,3,-2,0,-1,-1,0
28102429042,-4,2,-4,-2,-1,1,0,-1
28102444019,0,4,5,-1,-2,-2,-1,0
28102444019,0,7,-1,-2,-2,0,1,0
28102445522,-2,-4,-2,-2,-1,-1,0,-1
28102445522,1,-4,-2,-4,-2,-2,-1,-2
28102466640,-2,-8,-2,1,-1,0,-1,0
28102466640,-3,-1,-2,0,-1,0,0,-3
28102468035,-1,2,2,-1,-1,0,0,0
28102468035,0,-2,-1,-1,-2,0,-1,-2
28102480204,-3,0,0,0,0,0,0,0
28102480204,0,-5,-3,0,-1,-1,-2,-1
28102489074,1,2,-3,-2,-2,0,-1,0
28102489074,2,6,4,-2,-1,-1,-1,0
28102504049,-5,-25,-11,-1,0,-1,-1,-2
28102504049,-1,-3,0,-2,-1,0,-2,-1
28102505545,1,19,6,1,0,-2,-1,-2
28102505545,0,0,2,0,-1,-1,-1,-1
28102526678,5,6,1,-3,-4,-2,0,1
28102526678,-1,-5,-6,-1,0,-1,-1,-3
28102528001,-4,-8,-2,-1,0,-1,-2,0
28102528001,1,-7,-6,-3,-2,-2,-1,-1
28102540170,0,4,2,0,-2,-1,-2,-1
28102540170,1,0,-1,-3,-2,-3,-1,0
28102549039,2,2,-3,-2,-2,-1,-2,-1
28102549039,-5,-7,-6,0,-1,0,0,-2
28102564057,-3,-4,-7,-2,0,1,0,0
28102564057,0,0,1,1,1,0,-1,-2
28102565592,0,-7,-2,-1,0,-2,-1,1
28102565592,-1,3,4,2,2,1,-1,1
28102586572,-2,-15,-8,-1,-3,0,-1,-1
28102586572,-1,12,5,-1,-1,1,0,0
28102588009,1,6,3,-1,-1,-1,0,-2
28102588009,-2,-7,-5,-2,-2,-2,-1,-2
28102600217,-1,2,5,0,-1,-2,1,-1
28102600217,-3,-10,-7,-1,-1,-1,0,-1
28102616587,-2,-2,-1,1,0,0,-3,-2
28102616587,-4,-4,-2,-2,0,2,-1,0
28102624016,-4,1,-1,-9,-7,-5,-2,-2
28102624016,-3,-20,-10,2,-4,-2,-2,-2
28102625534,3,19,11,10,10,6,4,1
28102625534,1,-3,0,4,0,-3,-1,-2
28102646391,5,14,3,-2,1,0,0,0
28102646391,0,-11,-5,-10,-7,-5,-2,-1
28102648082,-2,-8,-11,-20,-17,-8,-3,-2
28102648082,-1,0,-1,3,-3,-3,-4,-1
28102660147,-2,4,13,27,22,8,2,-1
28102660147,-2,3,5,3,3,1,-1,1
28102669054,0,-5,0,17,13,4,0,-1
28102669054,1,5,2,-8,-5,-2,-1,-2
28102707902,-3,-6,-11,-16,-13,-7,-4,-4
28102707902,0,12,11,4,1,0,-1,-1
28102709362,-5,-18,-10,-11,-9,-4,-2,-3
28102709362,0,9,0,-2,-7,-4,-3,0
28102710252,-1,-3,-1,0,0,0,-1,0
28102710252,-2,3,-2,-3,-3,-2,-2,0
28102715155,-2,-10,-6,-6,-4,-3,-2,-1
28102715155,-2,-3,-1,0,2,0,0,1
28102728338,-4,-2,0,2,-1,1,-2,-1
28102728338,-1,2,-2,-4,-1,-2,0,0
28102728984,0,4,0,-6,-5,-3,-1,1
28102728984,-5,-7,-3,1,-1,-2,-3,-7
28102743267,0,-3,-3,2,1,0,0,-1
28102743267,-1,3,10,11,9,3,1,0
28102744033,-2,-6,-7,-3,1,2,-1,-1
28102744033,3,19,7,-3,-3,-3,-1,0
28102765827,-2,-5,-4,-8,-4,-3,-1,-2
28102765827,-3,-6,-10,-9,-7,-4,-1,-1
28102766469,1,12,5,4,3,2,1,-1
28102766469,-3,-12,-10,-7,-3,0,-1,-1
28102788221,0,2,0,3,1,-1,-1,0
28102788221,1,3,-2,2,0,-1,-2,1
28102788982,-7,-14,-10,-4,-3,-3,-3,-3
28102788982,1,4,7,-8,-8,-2,1,0
28102803222,2,2,6,12,8,3,0,-1
28102803222,4,9,6,16,15,6,2,1
28102803997,-3,-8,-4,-1,-5,-6,-3,-2
28102803997,-1,-7,-4,1,3,1,0,1
28102834067,1,6,-1,-12,-8,-5,-1,-1
28102834067,-6,-15,-5,-4,-6,-1,-2,-3
28102834690,0,-1,1,2,0,-1,-3,-2
28102834690,0,2,-4,-2,1,2,0,1
28102848315,-4,-11,-8,-10,-8,-2,-1,-2
28102848315,1,-1,2,-5,-6,-5,-2,-1
28102849037,-1,15,5,1,-2,-2,-3,-2
28102849037,2,2,6,5,2,0,-1,-1
28102863346,-3,-2,1,-3,-2,-1,1,0
28102863346,-5,-8,-5,3,3,1,-3,-5
28102864113,-3,-6,2,-2,-3,-1,2,2
28102864113,-1,-2,-3,1,3,0,1,-2
28102885849,0,-4,-11,-7,-10,-5,-3,0
28102885849,1,6,4,8,9,4,2,1
28102886543,0,-1,-4,-4,-2,1,-3,-2
28102886543,-2,-1,2,3,1,-2,-3,-3
28102908394,1,0,2,0,1,-2,2,5
28102908394,-2,-4,-7,-1,-3,-1,-1,-1
28102909018,0,14,-1,-4,1,0,0,-3
28102909018,-2,-11,4,2,1,0,0,-1
28102923346,4,10,8,9,7,2,0,-2
28102923346,-2,3,-3,-8,-9,-5,0,1
28102924017,2,-3,0,5,3,2,2,-1
28102924017,-3,-10,-18,-15,-9,-3,-3,-1
28102946011,-3,-4,-2,-3,-3,0,-1,0
28102946011,2,6,8,8,4,-4,-5,-4
28102946518,-2,-2,-3,-8,-6,-2,-1,2
28102946518,3,-3,-2,7,3,2,3,2
28102969689,-2,-6,-4,-2,-1,-4,-3,0
28102969689,0,2,0,2,-4,-1,-2,-1
28102970528,-1,6,13,3,-5,-4,-3,-4
28102970528,0,-1,-4,-6,-7,-5,-3,0
28102984695,-1,-3,-2,23,29,16,5,1
28102984695,-3,-2,-3,-9,-8,-5,-4,-5
28102985535,0,-4,-1,2,-1,-1,-1,0
28102985535,-2,0,-1,-4,0,0,0,1
28103021426,-1,-5,-11,-21,-19,-8,-4,-3
28103021426,-2,-4,-6,-11,-9,-3,-1,-2
28103022253,-1,1,5,18,15,4,-1,-1
28103022253,-4,-1,-1,4,3,0,1,0
28103028322,1,12,7,-4,-6,-3,-5,-4
28103028322,0,-5,-7,-11,-7,-3,1,3
28103028960,-4,-1,-2,-4,-3,-2,-2,-3
28103028960,0,-7,-4,7,8,3,1,-2
28103050735,0,3,3,-3,-6,-4,-2,-3
28103050735,0,3,1,6,4,2,2,2
28103051530,-1,-12,-9,-11,-8,-1,-2,-1
28103051530,-3,3,-1,-2,-2,-2,-3,-1
28103074047,-1,1,9,5,-1,-1,-2,-1
28103074047,-2,-2,-5,-9,-7,-2,-2,-1
28103074704,-4,1,5,10,11,5,2,2
28103074704,2,0,-2,-8,-5,-2,-1,-1
28103088281,-3,0,-1,-6,-5,-3,-2,-3
28103088281,-2,-6,-7,-10,-7,-2,-3,-2
28103089014,3,3,5,6,3,0,-3,-5
28103089014,0,4,5,3,2,0,0,1
28103120418,-1,-4,-4,2,1,0,1,0
28103120418,2,0,-1,-1,3,0,0,0
28103121215,-2,-2,-7,-13,-8,-5,-4,-2
28103121215,-5,-2,0,1,-3,-3,-2,0
28103134020,1,3,3,8,4,1,-2,-1
28103134020,5,2,-3,-3,2,1,3,6
28103134672,-13,-10,-4,-3,-5,-2,-1,-6
28103134672,-1,-1,0,0,-1,-9,-12,-5
28103148293,-1,-1,-3,-6,-1,6,9,2
28103148293,-2,-1,0,-3,-2,2,3,-1
28103149015,3,2,2,5,1,-3,-2,0
28103149015,-1,1,0,0,-2,-6,-11,-7
28103170808,-5,-4,-3,0,-2,-3,-6,-2
28103170808,1,-3,-4,-5,-2,2,5,0
28103171489,-2,1,-1,0,-4,-28,-41,-14
28103171489,-2,-5,-3,4,4,15,17,10
28103185176,9,6,5,6,12,35,50,14
28103185176,-2,1,4,3,-1,0,2,-2
28103193327,1,-2,-2,-1,0,11,14,1
28103193327,-5,-2,1,-2,-6,-20,-23,-5
28103208298,-3,-4,-6,-8,-6,-12,-20,-7
28103208298,1,-2,-3,0,1,3,5,2
28103208996,2,2,0,-1,-4,-8,-8,0
28103208996,4,2,5,9,8,8,2,0
28103230788,-5,-4,-1,-2,-1,-4,-4,-2
28103230788,-3,-4,-12,-18,-11,-6,-5,-3
28103231491,-2,2,10,15,6,3,-1,1
28103231491,4,2,2,9,8,8,10,3
28103245176,1,-3,-1,-5,-4,-6,-4,0
28103245176,-10,-3,-1,-5,-3,-15,-23,-10
28103253231,0,-8,-8,-10,-7,11,16,7
28103253231,3,1,-4,-7,-5,-3,3,0
28103268289,2,2,3,1,-1,2,6,-2
28103268289,2,1,5,6,4,9,9,3
28103268950,1,2,-1,-4,2,7,9,4
28103268950,-4,2,2,-2,-4,-5,-8,-9
28103290708,-4,-6,-9,-8,-7,-11,-14,2
28103290708,-1,1,1,6,-2,-3,-5,-4
28103291479,-2,-2,-1,-1,-1,4,4,1
28103291479,1,1,-1,0,1,1,-1,-2
28103314018,0,1,0,-4,-2,-5,-11,-4
28103314018,-1,-6,-2,5,6,5,6,4
28103314673,6,5,1,9,5,0,2,2
28103314673,-1,1,10,11,7,5,2,-2
28103328359,-1,-2,-3,-4,-3,-2,-1,1
28103328359,-1,-1,-3,-6,-7,-8,-8,-6
28103329015,0,-3,-11,-13,-9,-8,-1,2
28103329015,0,-4,-9,-10,-7,1,4,1
28103350734,-2,2,10,18,14,4,0,-2
28103350734,0,-3,-5,-6,-7,-5,-5,-2
28103351551,2,-4,-2,0,3,3,6,1
28103351551,-1,-3,-6,-8,-6,-4,0,-2
28103374011,-5,1,5,4,-4,-10,-10,-6
28103374011,3,-2,-6,-5,-2,2,6,4
28103374672,-4,0,6,1,1,1,-2,-5
28103374672,-1,-1,0,-1,-4,-3,-1,-2
28103388221,-1,-2,-8,-7,-6,-6,-7,-5
28103388221,-1,-2,2,13,11,4,3,-1
28103388996,-1,-2,-6,-12,-7,-4,1,3
28103388996,-3,-4,-2,4,2,1,-2,-2
28103410709,0,3,8,5,2,-2,-7,-2
28103410709,-1,-1,-8,-7,-6,-12,-18,-6
28103411501,-1,-2,-3,-2,4,15,19,4
28103411501,-1,-1,-4,-8,-7,-3,-2,-1
28103434045,0,-1,1,2,-1,0,4,1
28103434045,-1,1,-1,-1,0,1,0,2
28103434675,0,2,2,-1,-9,-10,-14,-8
28103434675,1,-2,1,-1,4,3,1,2
28103448815,0,-3,-4,-2,1,2,3,1
28103448815,-1,2,4,1,-2,-3,-3,-2
28103449454,0,1,3,4,-2,-5,-7,-3
28103449454,-2,-2,-4,-5,-2,2,2,-2
28103470717,-2,-2,-1,4,-1,-3,-3,2
28103470717,2,-2,-5,-2,4,3,4,1
28103471515,-4,-4,-4,-4,-6,-5,-1,-3
28103471515,1,3,2,-2,-4,-3,-3,2
28103493646,-3,-2,-6,-5,-1,-4,-7,-6
28103493646,5,13,25,16,8,5,6,1
28103494413,-2,-8,-9,-1,3,-1,-1,-1
28103494413,-3,-5,-8,-8,-8,-6,-7,-4
28103508339,-1,-5,-12,-11,-6,-4,-5,-1
28103508339,3,9,14,13,5,12,17,8
28103509014,1,4,-4,-5,-3,-1,-1,-3
28103509014,-3,-4,-1,-5,-3,0,2,-1
28103530800,-5,-10,-10,-11,-6,-3,-5,-3
28103530800,-4,0,-9,-5,-7,-10,-10,-4
28103531532,4,4,15,9,7,4,4,4
28103531532,-3,0,2,5,2,0,0,-2
28103554091,7,18,13,5,0,-1,4,4
28103554091,-11,-15,-11,-11,-7,-4,-6,-8
28103554659,-7,-10,-15,-12,-11,-7,-3,-2
28103554659,3,-2,-2,3,4,3,2,2
28103568292,-1,1,-3,-1,-1,-1,-2,-1
28103568292,4,2,10,1,-2,-3,-2,-2
28103568994,-2,6,1,4,3,0,-3,-5
28103568994,-6,-10,1,-6,-6,-4,-4,-1
28103599302,2,-1,-13,-5,-1,3,4,2
28103599302,-2,6,10,7,0,-8,-9,-6
28103600026,0,-3,-11,-6,-3,-3,-8,-2
28103600026,3,8,12,13,5,3,6,8
28103621386,-7,-7,-2,-7,-4,4,7,-2
28103621386,4,-1,-5,1,7,8,7,2
28103622157,1,2,-1,-2,-2,-4,-4,-1
28103622157,2,1,-5,-7,-5,-4,-1,0
28103628390,-1,-3,-4,-4,-3,-6,-4,-4
28103628390,-6,-4,-2,5,7,3,-2,-1
28103629019,-4,-3,-1,-1,0,0,-1,-2
28103629019,0,1,-4,-4,-3,1,0,-2
28103650850,0,-1,7,4,-3,-5,-1,3
28103650850,-6,0,-4,1,-4,-3,-8,-11
28103651520,-1,-4,-4,-6,-1,5,9,6
28103651520,0,0,-2,-14,-6,4,6,-2
28103673962,-4,-3,3,14,7,-4,-9,-7
28103673962,-2,-9,-17,-8,-7,-3,1,3
28103674695,3,1,10,9,2,0,-3,1
28103674695,-3,2,3,-2,-1,-4,-4,-4
28103688205,2,5,-5,-7,-3,2,2,-2
28103688205,0,2,-7,-10,-4,-5,-1,2
28103689012,-3,-4,-2,-4,-3,-3,-2,-2
28103689012,-2,-3,-2,0,1,-1,0,-2
28103710895,-7,-8,0,1,-3,0,-4,-6
28103710895,4,7,11,7,4,-2,-2,6
28103711473,5,4,-5,-2,-2,2,4,2
28103711473,-4,-9,-17,-7,-2,-1,-3,-4
28103733956,2,-1,5,2,-1,2,2,1
28103733956,-7,-4,-3,-5,-5,-4,0,-2
28103734688,1,2,9,3,7,1,-3,1
28103734688,-3,0,-3,-2,-6,-6,-8,-2
28103756328,-4,-5,-6,2,4,-1,-1,-4
28103756328,-1,-7,-7,-6,-1,6,9,3
28103757127,3,-1,-10,-14,-5,-1,0,1
28103757127,-3,8,10,11,1,-6,-6,-6
28103770739,0,-1,13,-1,-6,-3,-2,2
28103770739,3,1,-5,-5,-2,-3,-3,-5
28103771525,-4,-5,2,1,-4,-5,-3,-4
28103771525,2,-5,-2,1,4,3,-5,3
28103801659,4,7,3,0,1,6,18,2
28103801659,-1,-1,-16,-6,4,6,3,-6
28103802162,-2,9,28,18,0,-3,-3,-3
28103802162,-7,-15,-11,-9,-10,-8,-6,-4
28103808328,-1,-5,-12,-2,3,0,-2,-1
28103808328,-5,-12,-6,-6,-6,-6,-7,-2
28103808971,2,10,-2,1,0,-1,2,0
28103808971,-3,-4,-3,-2,-1,-3,-4,-4
28103830855,0,-1,2,5,2,3,0,-1
28103830855,1,-2,-1,-1,-3,-2,2,5
28103831517,-8,-14,-16,-8,-1,5,4,-4
28103831517,6,11,10,7,3,3,4,4
28103853911,-7,-12,-14,1,3,-2,-5,-4
28103853911,5,2,5,3,-4,1,2,4
28103854688,-5,6,10,5,-6,-20,-21,-8
28103854688,1,-1,7,10,8,12,16,0
28103900262,6,10,16,3,5,12,17,9
28103900262,-3,-8,-10,-7,-5,0,-5,-5
28103900988,-8,-30,-51,-28,-7,-4,-1,-1
28103900988,10,39,40,19,1,-10,-11,0
28103902597,-17,-31,-31,-16,-11,-7,-10,-9
28103902597,-1,1,13,13,4,2,7,1
28103905767,10,6,6,-1,4,4,3,5
28103905767,-9,-13,-35,-24,-7,-7,-8,-5
28103914032,15,24,33,7,-1,-8,-12,2
28103914032,-7,-10,-16,-6,-1,7,11,-1
28103914559,3,4,6,6,4,7,7,1
28103914559,-4,-6,-15,-16,-5,-1,0,-1
28103928120,-7,-3,-7,-4,-8,-22,-31,-8
28103928120,5,9,10,-2,2,11,12,0
28103935878,4,6,21,14,7,15,22,10
28103935878,5,1,-19,-16,-5,0,7,3
28103950763,-11,-11,-13,10,-1,-11,-15,-7
28103950763,0,7,10,-11,-6,-6,-5,2
28103951498,-1,3,-2,-4,-5,3,4,-2
28103951498,-4,2,15,17,6,-7,-14,-7
28103974075,13,18,14,5,9,19,23,10
28103974075,2,4,-3,-1,-9,-16,-14,-3
28103974700,2,-9,-27,-17,-11,-4,-3,-4
28103974700,-6,-23,-23,-9,-7,0,3,3
28104003661,2,14,22,6,-5,-8,-3,-3
28104003661,-4,-6,10,1,-2,-5,-9,-5
28104004463,1,13,21,12,6,-11,-15,-1
28104004463,-2,-15,-16,-12,1,7,8,-2
28104020416,3,6,-14,-9,-8,-40,-56,-12
28104020416,3,0,5,11,22,74,87,28
28104021262,-2,-4,-8,-7,-7,-11,-10,-3
28104021262,0,7,17,6,0,-7,-9,-5
28104034389,10,16,3,-4,11,18,7,12
28104034389,3,-6,-9,-11,-4,-2,11,3
28104035076,-13,-11,-8,-1,-2,-2,-8,-10
28104035076,10,25,33,22,3,3,8,5
28104047631,-3,-21,-21,-7,-8,-2,4,2
28104047631,-4,4,10,7,-4,-24,-40,-18
28104055885,-11,-6,7,6,7,13,15,-1
28104055885,8,1,-17,-19,-9,-9,-9,4
28104071216,1,-2,-41,-26,1,0,-2,4
28104071216,-5,-5,23,23,6,6,8,-3
28104071936,-2,8,13,-6,0,-5,-6,-12
28104071936,-7,5,-7,17,-6,-15,-21,-7
28104094045,2,-7,-17,-25,-11,13,29,16
28104094045,5,5,6,3,-2,-8,-7,3
28104094679,-14,-19,-12,-4,-14,-24,-31,-17
28104094679,-7,-9,-14,-21,3,9,7,-3
28104107625,-9,-18,-13,-16,-9,0,2,-9
28104107625,-3,-18,-56,-21,4,-6,-14,1
28104115996,0,9,19,-6,0,5,5,1
28104115996,8,8,14,13,5,9,14,3
28104130822,2,12,12,-5,-5,-6,-3,1
28104130822,-5,-6,-10,-8,-7,-17,-22,-13
28104131479,-5,-16,-20,1,0,2,2,4
28104131479,-5,-1,17,14,4,11,10,-3
28104154087,3,1,18,11,6,8,11,-2
28104154087,-5,-10,-30,-33,-9,-8,-7,0
28104154690,5,-1,14,17,8,5,3,8
28104154690,0,-16,-26,-19,-4,-3,-8,2
28104167628,-4,3,67,69,4,10,18,-5
28104167628,9,16,17,25,3,-4,-6,-3
28104175877,-7,-11,1,-6,-5,-4,-1,3
28104175877,-8,-12,-2,-5,-4,-4,-3,-5
28104190772,-7,-1,-10,-14,0,-1,-8,-15
28104190772,10,17,-1,-11,-13,-17,-21,-2
28104191472,1,0,-13,2,7,6,15,1
28104191472,-7,-8,-24,-24,-5,-3,-10,-12
28104214288,15,27,62,37,8,11,22,6
28104214288,-13,-12,-12,-16,-8,-6,-11,-13
28104215076,7,17,-13,-23,-8,-8,-9,-1
28104215076,-10,-24,-34,-18,-10,-8,-6,2
28104227594,2,-5,-18,-11,1,2,4,10
28104227594,5,1,2,3,3,0,0,6
28104235877,15,32,71,50,9,3,0,3
28104235877,10,8,-3,-13,1,2,6,11
28104250693,1,-1,33,30,3,10,19,11
28104250693,11,11,-7,4,12,2,0,11
28104251482,-2,-17,-26,-13,-3,-4,-4,1
28104251482,-16,-7,6,2,0,-4,-2,-18
28104274330,-18,-17,-27,-20,-10,-10,-20,-18
28104274330,3,11,30,11,-4,0,4,4
28104275095,15,4,-6,-3,2,0,-5,13
28104275095,-8,-8,20,25,2,-9,-13,-11
28104296397,-15,-10,-6,5,-1,7,9,-22
28104296397,-17,-1,16,-2,-4,-3,-7,-19
28104297351,11,5,-29,-20,-11,-5,4,9
28104297351,17,29,49,53,7,-27,-42,-1
28104310660,9,2,-14,-25,1,32,40,20
28104310660,-16,-22,-15,-15,-4,-3,5,-11
28104311466,-17,-21,-48,-28,-10,0,1,-13
28104311466,10,20,38,47,4,2,4,8
28104334072,10,13,22,30,10,-12,-17,1
28104334072,-15,-30,-65,-56,-12,-6,-6,-4
28104335499,20,29,91,81,20,11,6,16
28104335499,1,-5,-14,-23,-1,10,16,3
28104356501,1,-7,-26,-27,-5,-5,-5,2
28104356501,10,6,-4,2,9,12,16,22
28104357978,-18,-19,-3,9,-11,-17,-19,-25
28104357978,3,-3,-8,-11,2,17,11,5
28104370145,-9,-9,-11,-5,2,0,2,-2
28104370145,5,6,9,8,-14,-23,-18,-3
28104379049,-9,-11,-25,-14,-3,2,2,-2
28104379049,-5,-2,10,10,2,2,3,0
28104394035,0,0,-9,-14,-12,-16,-19,1
28104394035,-9,-2,44,38,8,2,-4,-14
28104395502,-2,-6,-10,-25,-10,-5,3,4
28104395502,-5,-18,-20,-9,8,8,0,3
28104416479,-22,-5,-32,-26,-6,-11,-11,-32
28104416479,5,-1,20,23,3,9,10,11
28104417994,20,26,79,70,17,4,5,2
28104417994,-6,-7,-18,-20,-8,-7,-4,2
28104430158,5,0,-16,-7,-2,-6,-11,11
28104430158,-1,12,13,4,-1,-12,-17,-12
28104439003,-26,-41,-96,-84,-24,-17,-23,-26
28104439003,19,16,7,20,21,48,72,27
28104453980,-4,-6,13,10,-4,-10,-15,-3
28104453980,4,-9,-15,-4,0,9,15,3
28104455453,-2,-7,-40,-45,-10,-11,-13,4
28104455453,-1,2,6,-2,-5,-9,-10,-10
28104476486,0,-1,-18,-28,-8,-3,2,-2
28104476486,-12,-21,-46,-45,-9,-10,-19,-10
28104477996,8,12,33,41,21,11,9,7
28104477996,-7,-11,-36,-41,-2,0,2,1
28104490070,4,12,49,43,5,-3,-2,3
28104490070,3,7,27,33,11,4,-5,7
28104499005,1,19,27,15,0,6,18,4
28104499005,-1,-15,-35,-48,-17,-6,-4,2
28104514074,2,1,-24,-20,7,-1,-8,-6
28104514074,14,33,55,43,7,-3,-5,1
28104515479,-12,-12,16,23,4,4,-1,-10
28104515479,0,-8,-25,-35,-10,-4,9,7
28104536479,-4,-1,-25,-21,-7,-2,0,-1
28104536479,16,32,62,51,2,-9,-3,7
28104538021,-5,-15,-25,-14,0,1,-7,-8
28104538021,5,3,-14,-16,-14,-13,-7,12
28104549988,-5,-3,49,53,19,6,-5,-6
28104549988,-11,-12,-28,-26,-1,11,17,-8
28104559016,8,14,13,-14,-7,-13,-17,3
28104559016,-6,0,-7,-1,-1,-4,0,-5
28104574063,-1,-1,-10,-5,-10,-5,1,3
28104574063,-6,1,-9,-12,4,0,-9,-10
28104575481,-2,-16,-68,-68,-5,4,15,8
28104575481,-6,1,2,-2,-7,-13,-21,-14
28104596529,-6,-13,-39,-35,-3,0,-2,0
28104596529,10,6,6,11,-10,-13,-16,7
28104597964,-17,-18,-20,-14,-11,-4,-2,-13
28104597964,-4,2,24,16,5,8,14,-15
28104610817,1,-12,-55,-54,-18,-12,-10,-6
28104610817,2,-11,-10,2,5,-6,-10,10
28104617617,12,15,22,22,22,37,37,15
28104617617,-4,1,50,59,4,-11,-18,1
28104634145,-2,19,48,42,1,8,13,-5
28104634145,-8,-29,-48,-36,-2,4,7,-1
28104635498,-5,5,33,39,0,-8,-10,-7
28104635498,-12,-7,-24,-25,2,4,-2,-13
28104656553,12,4,19,21,0,-4,-4,9
28104656553,-9,-7,-24,-22,-8,-3,-4,-13
28104657976,9,1,-27,-31,-9,0,10,19
28104657976,-5,2,6,-2,-8,-24,-44,-17
28104670793,-15,-27,-8,10,14,26,39,15
28104670793,-7,-6,-18,-27,-16,-5,3,-10
28104677650,16,6,-29,-31,3,8,9,10
28104677650,3,12,10,8,-2,-16,-17,-5
28104693981,-4,-4,-4,-21,-8,-11,-14,-5
28104693981,-4,-7,13,8,6,19,19,4
28104695516,-11,-3,-8,-7,-2,-13,-20,-16
28104695516,6,-7,-24,-13,2,15,23,14
28104716450,2,16,28,11,10,0,-8,-5
28104716450,2,4,43,39,11,-7,-19,12
28104717984,13,7,23,28,8,17,30,12
28104717984,-14,-18,-62,-62,-9,1,-2,-8
28104730848,12,14,32,40,11,7,10,6
28104730848,-7,4,10,2,1,-11,-19,-13
28104737574,2,6,0,2,-1,-6,-13,-2
28104737574,4,8,29,31,-1,-2,6,5
28104753969,-10,-16,-34,-33,-16,-10,-9,1
28104753969,9,3,-38,-42,-8,2,14,8
28104755472,-19,-3,2,9,-5,-12,-16,-18
28104755472,26,42,98,74,16,13,13,10
28104776873,7,5,13,23,0,-14,-17,2
28104776873,3,-12,-22,-7,-9,9,23,13
28104778456,-17,-20,-39,-70,-16,-5,1,-12
28104778456,-9,-2,-14,2,-1,-11,-34,-17
28104790090,22,18,-4,-5,5,13,30,23
28104790090,-11,-3,1,-11,-5,-3,-7,-13
28104798983,5,13,7,4,-3,-1,-1,4
28104798983,7,9,40,41,7,-5,-10,9
28104813939,-13,-3,8,29,5,-9,-19,-22
28104813939,5,-4,-17,-9,-9,-1,10,5
28104815516,-19,-12,-16,-13,-9,-2,0,-10
28104815516,27,4,-1,4,3,4,12,20
28104836390,3,17,44,36,5,-7,-11,-3
28104836390,-21,-16,-34,-37,-11,1,4,-11
28104838000,5,9,43,44,16,-7,-21,-9
28104838000,-34,-16,-2,-3,-13,-2,4,-22
28104850123,-4,-21,-47,-40,-3,4,3,4
28104850123,16,16,-10,0,2,-1,3,-4
28104859026,-8,-13,-1,-4,-9,-25,-36,-12
28104859026,-1,10,-18,-27,5,28,41,12
28104874082,-26,-42,-54,-40,-11,0,3,-14
28104874082,2,13,15,33,3,-5,-6,2
28104875545,-2,-14,-15,-8,-4,-5,-6,7
28104875545,-2,0,12,0,0,3,6,-2
28104896479,-15,-17,-23,-35,-22,-14,-12,-10
28104896479,39,15,-19,-30,6,8,7,24
28104897948,-10,-6,12,24,7,19,27,4
28104897948,-10,-18,-12,-12,-13,-13,-11,-8
28104909977,-1,20,46,45,14,9,0,2
28104909977,20,15,24,-4,-5,-28,-37,4
28104919096,4,6,53,70,13,20,25,5
28104919096,-14,-28,-44,-25,-10,-12,-17,-15
28104941496,13,-5,-30,-42,-10,-6,-2,10
28104941496,4,24,67,66,14,6,10,5
28104942979,0,2,20,24,-5,-17,-19,-4
28104942979,-7,-11,-15,-7,-3,1,2,-4
28104955490,15,15,19,31,2,-5,-11,2
28104955490,-15,-22,-32,-28,-5,2,0,-8
28104964011,20,32,60,46,22,14,15,15
28104964011,-6,-21,-34,-17,2,0,-2,-4
28104970136,-32,-28,-63,-64,-27,-37,-54,-20
28104970136,29,31,24,22,7,34,58,16
28104979011,7,-9,-10,-12,11,36,50,25
28104979011,-1,10,17,5,0,-8,-15,-6
28104994046,-24,-17,-42,-62,-14,-5,-5,-26
28104994046,-8,-35,-37,-14,-5,-15,-20,1
28104995475,2,5,-3,-14,-7,-3,2,1
28104995475,1,-1,2,11,7,8,8,8
28105016503,-1,-5,-26,-44,-16,-2,10,5
28105016503,-19,-18,-9,-1,23,19,6,-9
28105018094,-1,-5,2,7,0,-14,-18,-3
28105018094,4,6,16,10,5,2,-3,4
28105030210,-23,-29,-34,-29,-6,4,9,-13
28105030210,19,2,1,32,13,10,14,19
28105039147,2,9,0,-5,-6,-17,-29,-16
28105039147,3,5,5,5,7,-1,-4,9
28105054019,14,13,1,1,-1,3,9,6
28105054019,-25,-9,3,-7,-7,0,7,-13
28105055498,-1,4,7,-6,-6,-8,-17,-9
28105055498,7,12,21,32,8,-1,6,-3
28105076369,2,-6,-6,4,-6,-5,-11,7
28105076369,8,8,7,-5,-1,4,5,4
28105077960,-17,-6,-30,-13,-9,-15,-16,-13
28105077960,0,-7,-14,-29,-17,-5,-1,0
28105099046,3,0,30,45,17,6,-4,-1
28105099046,-2,4,44,31,0,-7,-2,6
28105100484,-11,-15,-67,-50,-28,-14,-4,-8
28105100484,12,17,6,-8,-4,-9,-13,-1
28105113944,8,15,18,12,9,15,26,10
28105113944,-25,-15,7,15,-4,-9,-16,-17
28105115491,-1,-18,-59,-61,-21,-16,-13,-2
28105115491,-10,6,30,21,0,-2,1,-6
28105136526,30,28,24,23,5,-11,-20,10
28105136526,4,17,23,4,8,27,50,8
28105137963,-3,-1,17,5,9,17,29,4
28105137963,-5,-11,-37,-24,-7,-8,-9,-7
28105159014,-13,-7,7,6,-1,-6,-7,-9
28105159014,5,0,-27,-18,-7,-3,-11,0
28105160499,19,15,0,-10,11,6,0,16
28105160499,9,14,61,54,7,11,17,1
28105173967,1,-2,-8,-9,-10,-6,-1,0
28105173967,-16,-8,-32,-41,-6,-14,-25,-18
28105175481,-22,-37,-58,-35,-12,-3,-2,-11
28105175481,4,3,-27,-27,-3,-4,-4,4
28105197788,-3,3,20,21,13,11,12,-3
28105197788,-7,-2,-1,-8,-19,-25,-34,-16
28105199450,1,12,26,25,6,-4,-9,8
28105199450,12,-11,-36,-31,-4,1,5,22
28105218943,-2,6,32,22,12,27,44,3
28105218943,-3,-6,-22,-14,-8,-12,-14,-2
28105220488,0,-7,-26,-35,-11,-7,-8,-10
28105220488,1,10,29,28,11,9,9,8
28105233962,-6,3,-3,-4,5,1,-12,-7
28105233962,2,-1,29,21,-5,-3,2,6
28105235459,-4,-4,11,10,6,-4,-12,-10
28105235459,-5,-3,3,-3,-1,0,-6,-5
28105256426,9,15,5,-3,2,3,6,3
28105256426,-11,-6,-13,-8,-2,-7,-12,-7
28105258003,5,-1,3,7,-13,-7,-4,1
28105258003,-26,-19,-14,-5,-1,-1,-1,-21
28105278944,39,32,22,25,10,3,0,23
28105278944,3,-5,-2,-4,1,2,-2,5
28105280487,-2,10,38,38,4,-8,-16,3
28105280487,0,-17,-47,-46,-11,2,20,13
28105293829,-8,-17,-12,-11,-2,13,25,-3
28105293829,11,17,21,12,6,-3,-4,0
28105295501,-2,-12,-24,-9,2,13,21,6
28105295501,-12,-18,-28,-11,-9,-17,-27,-17
28105316410,-12,0,54,55,8,-6,-17,-6
28105316410,6,4,-17,-23,-7,7,13,7
28105317978,0,7,16,17,8,0,-1,-8
28105317978,2,7,18,23,1,-8,-14,-4
28105338879,-5,-3,-2,-10,-9,-3,0,-2
28105338879,-17,-27,-39,-28,-4,3,0,-13
28105340469,12,19,54,54,14,7,10,17
28105340469,3,10,26,22,6,6,3,2
28105353948,2,8,-7,-16,-8,-17,-24,-9
28105353948,0,-1,35,64,8,-12,-13,3
28105355457,-9,-20,-14,-13,5,43,68,28
28105355457,6,9,20,10,2,5,11,-1
28105376376,-2,-10,-17,-10,5,8,13,2
28105376376,-4,9,31,13,0,-7,-15,-11
28105377976,4,9,10,21,1,-9,-14,-8
28105377976,25,11,14,18,4,12,15,21
28105398999,2,15,39,37,11,-4,-6,-1
28105398999,-10,-19,-44,-38,-12,-5,-7,-7
28105400474,-7,-4,-33,-38,-6,-5,-8,-9
28105400474,-6,0,-9,-22,-4,-3,-3,-7
28105413243,1,-3,-8,-2,0,-4,-9,1
28105413243,-8,-6,5,7,3,1,-3,-4
28105420108,-13,4,15,-10,-8,-14,-20,-24
28105420108,10,-1,-19,-15,-11,-24,-33,-1
28105436443,12,-8,-38,-25,-4,23,43,19
28105436443,-1,21,63,44,8,13,15,3
28105438004,-9,-10,-22,-27,-8,-8,-9,-13
28105438004,-6,-12,-9,-2,0,6,10,3
28105458849,-13,-14,-20,-15,-7,-13,-12,-5
28105458849,8,8,30,42,13,4,-1,10
28105460495,8,1,-24,-23,-7,-8,-3,1
28105460495,-14,-8,6,14,4,-2,-3,-11
28105473185,10,16,28,7,-5,-3,-5,5
28105473185,-18,-41,-78,-46,-15,-7,-5,-9
28105480028,3,12,21,17,1,-7,-14,-2
28105480028,-11,-14,-22,-28,-1,5,6,-6
28105496956,-2,5,29,20,-5,-11,-11,-4
28105496956,9,8,-26,-36,-2,1,2,4
28105498396,0,1,37,35,9,-3,-15,-7
28105498396,-11,-10,-23,-29,-8,7,9,-2
28105518939,13,-1,-13,-12,-7,-3,2,10
28105518939,-10,8,-11,-11,-6,-9,-9,-16
28105520479,30,25,26,18,5,4,15,27
28105520479,-14,-8,-3,4,-3,-16,-35,-27
28105533247,-16,-26,-33,-29,-6,-2,12,4
28105533247,2,-17,-44,-29,-1,17,26,3
28105540083,-5,1,-13,-25,-6,-4,-6,-7
28105540083,-3,-9,-39,-28,-6,-5,-4,1
28105556367,1,7,13,20,9,3,-6,-10
28105556367,-12,-14,-58,-65,-23,-17,-19,-12
28105557953,1,6,37,31,15,10,8,7
28105557953,-5,-13,-56,-48,-19,-8,1,-4
28105579047,-12,-12,-2,8,3,-3,-14,-10
28105579047,11,14,24,3,4,3,8,8
28105580478,-18,-22,-31,-15,-7,-7,-13,-5
28105580478,19,17,7,-5,3,2,6,11
28105593320,-1,0,-15,-14,-4,-2,-7,-13
28105593320,-3,-5,12,13,1,0,5,-3
28105600129,7,10,19,14,4,0,-2,-5
28105600129,-36,-22,-39,-31,-12,-2,3,-14
28105616529,31,13,3,11,4,-4,-8,19
28105616529,6,5,10,8,8,7,9,6
28105617945,-11,-14,-34,-35,-16,-7,-5,-11
28105617945,7,20,57,71,13,-4,-8,3
28105638977,-12,-7,-8,-2,3,4,4,-5
28105638977,-1,16,13,2,-9,-9,-9,-5
28105640474,-9,-22,-16,-2,-6,-6,1,0
28105640474,9,14,47,40,13,2,0,2
28105653235,-16,-11,-38,-39,-21,-13,-9,-10
28105653235,-4,-2,7,-1,5,3,-3,0
28105660026,10,20,24,20,5,-1,-7,2
28105660026,14,16,25,11,7,19,32,9
28105676511,-2,3,8,-9,-3,-3,2,3
28105676511,-12,-25,-8,10,-8,-16,-17,-11
28105677991,-2,-7,-6,0,11,21,24,4
28105677991,-2,-2,8,3,-1,-1,-3,0
28105698988,-15,-12,-27,-31,-14,-6,2,-8
28105698988,19,17,-16,-34,-11,-9,-10,4
28105700463,3,4,-7,5,4,-3,-11,-3
28105700463,10,18,53,33,10,5,2,4
28105713307,-12,-1,-7,-10,-6,-5,-5,-12
28105713307,8,6,-14,-17,-10,0,2,9
28105720070,10,18,35,50,14,4,4,3
28105720070,-6,-16,-48,-40,-12,-6,-3,-4
28105736640,-19,-9,0,12,3,-6,-18,-20
28105736640,10,24,85,82,13,1,0,5
28105737990,11,-4,-23,-34,-8,4,16,11
28105737990,13,19,24,20,6,10,19,12
28105758971,-8,-8,8,9,-4,-12,-14,-11
28105758971,-28,-35,-64,-57,-11,8,18,-14
28105760463,14,18,-1,-8,-11,-19,-22,0
28105760463,5,17,27,8,8,1,-11,-5
28105772540,10,-4,-33,-21,-4,11,20,14
28105772540,-8,-12,-22,-21,6,2,-4,-4
28105781485,-7,-2,-13,-29,-12,-11,-14,-10
28105781485,-11,-32,-34,-15,-10,-9,-5,-2
28105796400,-7,-4,7,-3,8,6,0,-4
28105796400,7,-5,-29,-38,-9,-7,-2,5
28105797929,-5,-2,38,36,22,9,4,-1
28105797929,-22,-23,-36,-25,-23,-31,-36,-25
28105819011,11,2,-5,4,10,15,21,14
28105819011,-7,-11,0,4,1,-10,-16,-13
28105820478,-3,-9,11,16,6,14,26,13
28105820478,3,9,-2,-15,-4,1,5,3
28105832690,12,16,27,21,4,-3,-4,-2
28105832690,-14,-16,-38,-13,4,3,-1,-13
28105841485,-1,-3,4,7,0,3,2,7
28105841485,2,-5,-26,-24,-7,-7,-8,-1
28105856550,6,10,35,30,3,4,6,7
28105856550,7,5,-3,-12,-5,0,5,8
28105857973,-3,0,-16,-6,-2,-7,-13,-13
28105857973,1,13,76,81,23,12,5,4
28105879000,8,3,-8,-2,-6,-2,5,4
28105879000,-14,-2,39,29,-3,-11,-15,-11
28105880455,-21,-16,-44,-43,-17,-26,-45,-25
28105880455,23,8,-6,-1,6,23,48,29
28105892637,-6,-6,-18,-8,-8,-16,-30,-13
28105892637,11,18,36,43,15,10,15,10
28105901527,-7,-11,-14,0,15,23,31,9
28105901527,-3,2,4,-3,-3,-9,-20,-15
28105916491,-13,-12,3,11,1,-3,-12,-8
28105916491,4,4,9,13,2,5,13,5
28105917960,4,-6,-54,-65,-30,-13,-4,6
28105917960,19,32,58,70,33,6,-2,5
28105938753,1,4,-1,-1,13,12,11,3
28105938753,0,6,12,10,-4,-7,-13,-4
28105945200,-10,-15,-46,-37,-8,-4,-1,-7
28105945200,-9,-10,-25,-35,-23,-8,-1,-3
28105952592,7,24,56,50,4,-14,-21,-5
28105952592,-24,-16,-21,-8,-8,-6,-12,-15
28105961477,9,-6,-5,2,0,12,23,12
28105961477,5,-4,-19,-30,-15,-22,-22,-4
28105976487,19,12,8,3,12,26,34,20
28105976487,-17,-22,-31,-26,-8,0,4,-4
28105977927,1,14,24,14,0,-6,-6,-4
28105977927,-17,-34,-70,-60,-11,3,4,-7
28105998968,10,26,82,73,16,-5,-10,-3
28105998968,-3,4,7,20,10,1,-4,-1
28106000472,-4,8,7,-10,-13,-8,-5,-9
28106000472,7,-1,-6,7,9,8,6,11
28106021463,-17,-24,-33,-25,-8,-5,-6,-7
28106021463,4,2,4,-10,-12,-5,-1,-1
28106022988,8,17,33,25,18,8,8,6
28106022988,-18,-8,21,29,-1,-11,-22,-19
28106036447,-6,-6,-37,-35,-17,-15,-11,-4
28106036447,13,9,11,11,10,18,27,11
28106037970,8,10,26,25,-6,-18,-33,3
28106037970,2,4,10,10,14,37,67,16
28106058944,-11,-19,-40,-42,-15,-4,-4,-11
28106058944,5,5,19,13,3,-7,-12,3
28106060478,-5,-16,-41,-40,-12,-5,-5,0
28106060478,8,17,46,46,21,11,-3,5
28106072526,-8,-8,-7,-21,-7,-1,3,-1
28106072526,4,2,-12,-7,-4,-5,0,1
28106081486,-4,11,56,55,18,6,0,-8
28106081486,-5,-8,-25,-44,-19,-10,-14,-4
28106096914,-3,-6,-10,4,1,1,6,2
28106096914,-2,1,-5,-9,-6,-19,-32,-11
28106098400,-3,-3,-14,-18,-4,12,23,2
28106098400,-5,-8,-9,-2,-3,-3,1,-10
28106119006,5,-7,-22,-17,-7,-5,-6,-1
28106119006,-2,0,25,30,0,-7,-16,-7
28106120447,1,1,14,17,9,16,29,12
28106120447,-19,-22,-65,-69,-17,-14,-21,-32
28106132639,-4,-3,-4,6,-2,-5,-12,-1
28106132639,8,-11,-40,-24,3,9,19,33
28106141478,-5,-3,3,-2,-4,-9,-16,-20
28106141478,18,31,83,76,27,15,12,25
28106156360,-13,-19,-69,-65,-21,-16,-16,-6
28106156360,-19,-18,-8,3,5,7,-2,-39
28106157965,1,-6,-34,-29,-4,4,20,18
28106157965,-5,-10,-22,-8,-12,-14,-18,1
28106178965,-7,-8,-32,-27,-3,-6,-5,-13
28106178965,-1,3,5,-9,-8,6,6,4
28106180485,0,-2,13,4,-2,-7,-13,-7
28106180485,-19,-17,-24,-16,-5,-5,-6,-17
28106201547,22,12,25,34,7,5,6,20
28106201547,13,11,5,5,-4,-1,6,11
28106202973,-11,-16,-16,-10,-9,-11,-20,-25
28106202973,6,1,-17,-18,-5,-3,5,20
28106216468,-1,0,17,5,4,4,4,2
28106216468,-3,5,15,9,7,10,12,2
28106217927,0,0,10,11,-4,-8,-9,-3
28106217927,-1,7,1,9,0,-8,-13,-13
28106239006,0,4,21,13,8,12,16,4
28106239006,-3,0,14,14,7,-5,-9,-10
28106240490,-1,-3,-28,-30,-11,-7,-9,1
28106240490,2,3,1,-15,2,8,6,2
28106261448,3,4,20,22,10,6,8,3
28106261448,4,7,28,21,9,3,1,3
28106262930,-2,-10,-13,-3,-3,-4,-6,-4
28106262930,1,-7,-1,-2,-3,5,15,10
28106276322,-5,8,4,-8,-4,-1,-7,-9
28106276322,-4,2,-8,-13,-9,-12,-16,-6
28106277959,3,6,13,13,9,10,8,2
28106277959,2,4,2,3,-3,-4,0,-3
28106298839,-7,-13,-11,-8,-4,-3,-12,-22
28106298839,7,-3,-5,0,3,6,13,14
28106300427,-7,-11,-5,0,-2,-5,-6,-4
28106300427,-3,16,0,-11,-10,-8,-12,-13
28106321411,4,10,17,14,11,6,10,12
28106321411,-2,3,-1,-3,0,0,-3,-3
28106322946,0,-10,-9,-6,-1,-1,-3,0
28106322946,4,-4,-3,-2,2,-2,-3,5
28106335790,-3,-9,-7,-1,-2,2,11,7
28106335790,3,5,9,6,1,-1,1,1
28106342592,-2,2,10,11,1,-5,-6,1
28106342592,-4,-6,2,1,-3,0,-3,-6
28106358971,-4,-3,-13,-15,-8,-5,-8,-5
28106358971,-1,-8,-13,-10,-5,-5,-9,2
28106360470,7,4,-1,-2,-4,0,-10,5
28106360470,-3,3,5,5,3,-2,11,-12
28106381442,-1,-5,1,1,-1,3,-7,8
28106381442,9,5,-2,0,7,15,52,29
28106382929,-4,-3,0,-1,2,2,10,4
28106382929,0,-14,-4,-2,-6,-11,-17,0
28106395795,1,14,-1,-4,-1,-4,-8,-4
28106395795,-13,-19,-10,-5,-5,-7,-18,-18
28106402622,1,4,-2,-1,-1,-2,-7,-5
28106402622,4,8,3,0,2,6,6,13
28106418915,-1,-21,-20,-6,-3,0,7,-2
28106418915,0,28,25,3,-4,-5,-10,-3
28106420430,-5,-8,2,3,0,-1,4,-4
28106420430,-6,-11,-9,-3,-5,-4,-11,-4
28106440518,0,-6,4,5,1,3,7,2
28106440518,1,0,-13,-8,-5,-5,-9,-5
28106448986,-7,-7,-9,-4,-1,2,-1,-5
28106448986,-2,-3,1,3,1,1,3,2
28106455744,1,3,0,-2,-2,-4,-2,3
28106455744,-5,-8,-5,-3,-2,0,-1,-6
28106462472,-1,3,0,-2,-1,-2,0,-3
28106462472,-2,-10,-5,-1,2,3,-1,2
28106478820,4,9,7,3,0,-1,1,2
28106478820,-2,-5,-5,-5,-2,-4,-6,-3
28106480489,2,1,-3,0,0,-2,-2,1
28106480489,-1,-2,0,-1,-3,-3,-2,-2
28106501283,-2,-3,3,3,0,-2,-1,0
28106501283,-1,3,4,-4,-1,-1,-3,-1
28106502894,-1,6,-3,-3,0,1,4,1
28106502894,1,4,-2,-1,0,0,-3,1
28106515731,-2,-5,4,0,-2,-3,-1,-4
28106515731,1,4,-2,-1,0,0,1,0
28106522589,-1,-7,-6,-3,-2,-4,0,1
28106522589,0,0,2,0,1,-1,-2,-3
28106540319,-2,1,0,-1,-3,-2,1,-4
28106540319,-2,-4,-3,-2,-2,-1,-6,-1
28106542468,2,0,0,-2,-2,2,0,-5
28106542468,3,5,-1,-2,-2,0,6,4
28106561517,-4,-6,0,3,4,3,4,0
28106561517,-4,-12,-6,-5,-5,-5,-3,-4
28106562944,-1,-2,-1,-2,-2,-2,-4,-3
28106562944,1,10,10,5,6,4,-1,1
28106574975,0,8,2,-1,-2,-3,1,0
28106574975,0,-6,1,4,0,0,-1,1
28106584016,-2,-2,-2,-2,0,1,1,1
28106584016,2,-3,-2,-2,-3,-3,-3,-2
28106598944,-5,-15,-11,-7,-3,-2,-1,0
28106598944,-3,-1,-3,2,2,0,-2,-3
28106600432,2,2,1,-2,-3,1,3,5
28106600432,-3,-8,-5,0,-1,-3,-2,0
28106621511,-1,4,2,0,-1,1,2,-2
28106621511,-2,-2,-3,-2,-2,-1,-1,-2
28106622980,-2,-4,-1,3,1,-3,-6,-5
28106622980,1,5,2,-1,0,1,1,1
28106635117,0,-3,-5,-7,-2,0,-1,1
28106635117,-2,-8,-7,-2,-4,0,0,-1
28106643978,1,3,-1,2,-2,-5,-4,0
28106643978,-4,0,4,-1,2,3,0,-6
28106658865,4,15,12,3,1,2,3,8
28106658865,-1,1,4,-1,1,0,0,-2
28106660452,-2,-6,-7,-3,1,2,2,-1
28106660452,-1,-2,-7,-1,-5,-5,-5,-2
28106681403,-3,-9,-6,0,0,-2,-3,-6
28106681403,2,0,2,-4,-2,-2,-1,-1
28106682931,1,12,6,5,2,1,1,1
28106682931,0,-16,-2,3,3,0,0,-1
28106695087,-6,8,-3,-7,-5,-2,-3,-8
28106695087,4,8,3,-1,0,-1,-2,10
28106704007,-2,-3,-4,-5,-4,-3,-4,-4
28106704007,-2,-6,-2,-1,1,8,12,6
28106718829,0,-5,-1,3,1,1,0,-1
28106718829,-4,-6,-4,0,-2,-2,-4,-5
28106720435,0,5,1,1,-1,-5,-5,-2
28106720435,-4,-2,-8,-8,-5,-5,-2,-4
28106741834,3,1,3,6,3,1,6,2
28106741834,-4,-10,-6,-3,0,2,2,-3
28106743405,4,4,0,-1,1,7,13,6
28106743405,-6,-11,-5,-4,-4,-6,-10,-5
28106755113,1,22,5,-5,-4,-5,-7,-2
28106755113,2,4,-1,2,0,-2,-3,-2
28106763957,-4,-5,4,1,-1,0,-1,-1
28106763957,-4,-7,-5,-4,-4,-4,-5,-3
28106779253,-3,-12,-5,0,-2,-5,-5,-1
28106779253,0,-1,1,0,-2,0,2,2
28106780886,1,5,3,2,3,2,2,0
28106780886,4,8,6,0,0,1,2,1
28106801308,-8,-7,-6,2,4,-2,-6,-2
28106801308,-2,-3,-1,-2,-2,-5,-5,-2
28106803060,-3,-8,-5,-2,1,1,3,1
28106803060,1,6,1,-1,-4,-7,-6,0
28106815600,1,-5,-4,-4,-1,1,3,-2
28106815600,-1,-6,-5,-3,-1,1,-1,-1
28106831508,0,8,-5,-3,0,-3,-3,-2
28106831508,3,20,11,3,2,0,-2,0
28106838965,-2,-7,2,-2,-5,-5,-7,-3
28106838965,-3,-8,-5,0,0,2,5,1
28106840456,3,2,2,-3,-4,-4,-3,-2
28106840456,-3,-2,-3,-2,-3,-3,-5,-3
28106861478,2,-5,1,4,0,-1,0,-1
28106861478,-4,-6,-5,-4,-2,-3,-2,-2
28106862954,1,10,3,-3,-1,-2,-1,0
28106862954,-2,-11,-7,-2,-2,-1,-1,-1
28106883783,2,8,6,2,2,4,3,2
28106883783,0,3,2,0,1,0,0,-2
28106885402,-7,-18,-9,-4,-5,-4,-5,-3
28106885402,-6,-1,-5,-6,-2,-1,0,-2
28106898793,2,6,3,5,3,1,3,0
28106898793,2,5,3,8,5,2,1,1
28106900385,-2,-3,-1,-1,-1,0,-4,-3
28106900385,2,-1,2,0,0,0,4,1
28106929425,-8,-20,-20,-10,-6,-2,-1,-3
28106929425,3,14,7,-2,-3,-3,-2,-2
28106930901,-3,-1,5,1,1,0,-1,-1
28106930901,-2,-5,-6,-1,-3,0,-1,-1
28106935122,-1,-6,-5,-3,-1,2,2,0
28106935122,0,9,6,1,-2,-3,-4,-2
28106943960,0,-3,-8,-2,0,0,-2,-1
28106943960,5,5,6,0,-1,0,2,0
28106958839,-3,-6,-1,-1,-2,1,2,0
28106958839,-2,0,-2,-1,0,0,-1,-1
28106960436,-4,-17,-4,-3,-2,-3,-2,-2
28106960436,-1,9,1,3,1,0,-2,-3
28106981463,-1,-1,-1,-2,-1,-1,-2,-1
28106981463,-3,-13,-9,-6,-4,-1,-1,-1
28106982954,1,10,6,-1,-4,-2,-3,-1
28106982954,-1,3,6,10,5,4,1,1
28107003577,-1,1,2,0,-1,0,-2,-2
28107003577,-6,-13,-6,-2,-2,-1,-2,-4
28107009931,1,10,2,-3,-3,-1,0,0
28107009931,-1,-11,-9,-6,-3,-1,-2,-1
28107018324,1,1,-3,0,-1,-1,-1,0
28107018324,1,14,6,2,1,1,2,0
28107025012,1,-5,-1,0,-1,0,-1,2
28107025012,-2,1,0,-2,-4,-3,-2,-2
28107041453,-1,-2,-6,-3,0,-4,-2,-1
28107041453,1,2,-2,-3,-3,-1,-1,-1
28107042968,0,4,6,4,1,1,0,-1
28107042968,1,7,13,1,1,-2,0,2
28107055014,-6,-10,-10,-4,-3,-2,-3,-3
28107055014,-2,-10,-8,-1,0,-1,0,0
28107063959,-1,6,-1,-2,-2,-1,1,-4
28107063959,-4,-12,-8,-4,-3,-1,-2,-2
28107078268,0,11,1,-2,-3,-3,-1,-1
28107078268,0,3,8,4,3,2,0,0
28107085131,-1,-10,1,1,0,-1,-1,0
28107085131,0,-4,-3,-2,-2,0,0,0
28107101423,0,-2,-2,-5,-3,-2,0,-1
28107101423,-3,-4,-5,-4,-3,-4,-3,-1
28107102943,-2,-3,-7,-1,-1,-1,-3,-2
28107102943,-6,-8,-4,1,0,0,-1,-2
28107124096,-1,0,-2,-1,-4,-3,-1,-2
28107124096,1,5,4,0,1,1,1,0
28107125489,3,3,3,0,-3,0,0,0
28107125489,1,1,-3,-3,0,-2,-1,0
28107138273,-3,-7,0,1,-1,1,-2,-1
28107138273,-1,-6,-8,-2,-2,-1,-1,-1
28107145079,-4,-12,-3,-1,-1,0,0,0
28107145079,1,-1,-1,-2,-1,-4,-1,0
28107161327,2,17,7,-1,-1,1,1,1
28107161327,0,0,7,2,0,-3,-2,-1
28107162926,-1,0,-11,-3,-1,2,0,0
28107162926,-2,-4,1,-1,-1,-7,-9,-5
28107183982,0,-2,-3,-1,-1,4,7,2
28107183982,-1,0,-1,0,-2,-6,-7,-4
28107185456,-3,-4,-3,-1,-3,-7,-18,-5
28107185456,1,-1,-7,0,2,20,35,9
28107198176,-2,0,1,0,-4,-4,-2,-3
28107198176,0,0,-1,-2,-2,-1,-2,-3
28107204959,-7,-7,-5,-5,-6,-14,-14,-6
28107204959,2,4,4,3,3,3,0,-1
28107221315,1,2,1,1,0,4,5,2
28107221315,0,0,-4,-2,-3,-5,0,-2
28107222909,-5,-5,-3,-4,-1,-1,-6,-1
28107222909,0,3,2,0,0,-3,-5,-2
28107244001,-2,-8,-8,-6,-1,-1,-3,-2
28107244001,-2,-3,2,0,-2,-3,-5,-1
28107245405,3,2,6,1,2,0,3,1
28107245405,-3,-4,-22,-7,-1,-3,-6,-2
28107258678,1,-2,17,5,-1,0,-4,-3
28107258678,-1,0,2,-1,1,-3,-3,-1
28107265123,0,1,-8,-5,-2,3,9,1
28107265123,-2,-3,-1,1,-1,0,0,-2
28107281438,1,7,2,1,-1,-8,-9,-4
28107281438,0,-1,-6,-3,-2,1,2,2
28107283004,1,-4,2,0,1,5,10,2
28107283004,-3,-6,-1,-2,-4,-7,-8,-5
28107303916,-1,5,1,4,2,-3,-5,-2
28107303916,-2,3,0,-2,0,7,8,1
28107305499,-1,1,5,2,2,2,4,0
28107305499,-3,-7,-19,-12,-7,-4,-6,-2
28107317591,-1,1,13,9,2,0,1,0
28107317591,-2,-4,9,3,-1,3,2,0
28107333983,-6,-10,-22,-10,-5,-3,-2,-3
28107333983,-2,-2,7,0,-3,-5,-5,-3
28107341471,-3,-9,-26,-11,-3,0,-2,1
28107341471,3,9,9,7,1,1,1,0
28107342960,4,2,-3,-2,0,-1,1,1
28107342960,-1,5,14,3,1,-1,-2,1
28107363869,-2,-6,0,3,1,1,0,-2
28107363869,-1,-5,-9,-2,1,-2,-2,-1
28107365435,1,3,7,2,0,2,1,1
28107365435,-2,2,0,-2,-3,-1,0,-2
28107377536,1,4,1,-3,-2,-3,-1,0
28107377536,-1,-7,-12,-6,-2,-1,0,0
28107386454,1,1,-13,-2,-1,-1,2,-1
28107386454,4,5,22,10,0,-1,-1,0
28107401415,-2,-9,-28,-12,-2,1,-2,-2
28107401415,3,9,49,16,2,3,2,2
28107402912,0,-2,-22,-4,2,2,1,1
28107402912,-3,0,5,0,0,-1,-3,-1
28107423924,-3,-5,0,-4,-1,-3,1,-2
28107423924,-1,-5,-25,-9,-2,-2,-2,-1
28107425445,-1,0,15,2,-2,0,-3,-1
28107425445,-1,0,-16,-7,-3,-2,-1,0
28107437584,0,3,21,11,2,0,1,1
28107437584,-3,-4,-19,-8,-1,-1,-1,-1
28107446461,-2,3,16,7,3,1,0,-2
28107446461,0,-4,-20,-9,-3,-2,-1,0
28107461492,-2,-3,-1,-6,-6,-2,-2,-1
28107461492,-1,5,1,5,3,2,1,-1
28107462927,-1,-4,6,1,-1,-3,-3,1
28107462927,0,6,8,6,-1,-2,-1,-2
28107484524,-1,-3,-7,-6,-4,0,-2,0
28107484524,-5,-12,-19,-8,-4,-3,-4,-3
28107485936,1,9,1,-1,0,-2,-1,-1
28107485936,-1,-2,-6,-2,-1,0,-2,-2
28107497461,0,6,32,4,0,-2,-1,0
28107497461,-2,-8,-18,-7,-1,-1,-2,-2
28107506485,-2,-6,-1,-3,-1,-1,-1,-1
28107506485,-1,-1,3,7,2,1,1,-1
28107521610,-1,-1,2,2,1,-1,1,0
28107521610,-3,-4,-20,-8,-3,-1,-1,-2
28107522960,-2,-1,12,1,-3,-1,-1,-1
28107522960,0,6,19,2,-1,0,-2,0
28107543895,-1,-6,-24,-2,3,3,0,-2
28107543895,-1,3,3,2,-2,-3,-1,-1
28107545402,-2,0,2,4,-3,-2,-2,-2
28107545402,-1,-6,-9,-6,-3,-1,-1,0
28107557472,3,8,-1,-2,-2,-3,-2,0
28107557472,-1,-4,5,-2,-2,-1,-2,-2
28107566511,-1,-4,3,-2,-1,0,0,-2
28107566511,-1,2,-3,0,0,-1,-4,-1
28107581409,1,3,2,1,1,-2,1,1
28107581409,1,8,-1,-3,-1,1,1,0
28107582986,-3,-7,-8,0,0,-1,-1,-3
28107582986,2,1,2,4,0,1,0,1
28107603951,-4,-9,-12,-3,-1,1,-1,-1
28107603951,-1,-1,15,2,-2,0,0,-2
28107605430,-1,-7,-8,-7,-2,-3,0,-1
28107605430,-2,-3,-16,-8,-4,-2,-1,-2
28107617590,0,0,-4,-5,-3,-2,-3,-2
28107617590,-1,-1,7,-1,1,0,0,0
28107626426,-2,1,-12,2,0,-1,-2,-2
28107626426,-3,-2,8,4,-1,-1,-3,-1
28107641343,-3,-5,-14,-6,-4,-2,0,-3
28107641343,-1,-5,-8,-6,-2,-1,-1,0
28107643507,0,-2,7,0,-1,-2,0,0
28107643507,-1,8,8,5,1,0,1,1
28107663958,0,-1,8,-1,-2,-1,0,-1
28107663958,-1,1,-4,-2,-2,1,0,2
28107665429,3,11,13,2,0,2,-1,0
28107665429,-1,-9,-11,-6,-3,-2,-1,1
28107686204,5,4,10,4,1,-1,-1,0
28107686204,0,1,-3,4,2,0,0,1
28107686915,-1,-4,-6,-4,-2,-2,-1,1
28107686915,-1,0,13,1,-2,-1,1,-2
28107700725,-2,-2,-10,-3,0,1,-1,1
28107700725,-1,0,5,2,-3,-2,0,0
28107701407,-4,-5,-8,-3,0,-1,-1,-2
28107701407,-1,-6,-9,-1,2,-2,-1,-1
28107723218,-2,0,2,-3,-3,-3,-1,-2
28107723218,-4,-17,-18,-11,-4,-2,-2,-2
28107723950,0,22,31,12,4,2,1,0
28107723950,5,10,10,9,0,-1,-2,-2
28107745687,1,-4,1,2,1,1,2,1
28107745687,5,5,-7,-7,-3,-1,-2,1
28107746444,-1,-18,-16,-5,-2,1,0,-3
28107746444,-2,-8,-10,-7,-1,-2,-1,0
28107760764,-1,-4,-5,-2,0,-5,-2,-3
28107760764,1,6,16,6,0,-1,-2,-1
28107761398,2,-1,-3,-3,-2,-1,-1,0
28107761398,-2,-2,3,-5,-1,0,-1,0
28107783266,-2,-5,-22,-6,-2,-1,-1,1
28107783266,-6,-4,3,-4,-3,-2,-1,-2
28107783915,-3,5,9,10,4,-3,-4,-4
28107783915,-5,-8,-11,-5,-4,0,-3,-3
28107805723,-1,8,-1,0,-1,-2,-2,-2
28107805723,-2,-4,-2,-1,-1,-2,-1,2
28107806438,-2,2,-10,-6,-5,-2,1,-4
28107806438,2,-1,0,0,-1,-1,0,1
28107820685,-2,0,3,0,1,0,-2,0
28107820685,-2,-2,-5,0,0,-2,-1,-2
28107821383,-3,-4,2,0,0,-2,0,4
28107821383,7,3,6,2,0,-3,-4,-2
28107843347,-5,8,5,2,0,0,1,-3
28107843347,1,3,9,3,2,1,-1,0
28107843940,-5,-5,-14,-8,-1,0,0,-4
28107843940,0,-9,-16,-10,-3,-2,0,0
28107865747,-3,0,19,11,2,0,-4,0
28107865747,1,4,-2,-3,-1,-1,-1,-3
28107866452,2,3,-6,-2,-3,-2,-3,1
28107866452,-2,0,8,3,2,1,2,-1
28107880770,-3,-6,-24,-6,-5,-3,-1,-2
28107880770,-5,-1,-3,-2,-1,-1,0,0
28107881446,1,2,6,4,0,0,-2,0
28107881446,-4,1,-13,-6,-2,-1,0,0
28107903244,-2,-6,10,0,1,1,-1,0
28107903244,-1,2,6,5,1,-2,-2,-1
28107903939,1,-2,-8,-3,0,0,0,-1
28107903939,-5,-2,-1,-1,-1,-1,-1,-2
28107925719,-1,-2,12,3,-1,1,2,0
28107925719,-2,-4,-9,-4,-2,-4,-3,-2
28107926425,1,2,3,1,-1,0,0,1
28107926425,-6,-7,-16,-7,-4,-2,-2,-3
28107940737,1,-1,6,-1,1,0,2,0
28107940737,1,2,11,4,0,-2,-2,-1
28107941444,-2,-2,-6,-3,-4,-5,-4,-2
28107941444,-1,2,8,1,2,4,4,4
28107963195,-2,-9,-21,-7,-3,-2,-4,-2
28107963195,-3,-2,-2,2,0,1,0,-1
28107963914,-3,-3,8,2,-1,0,-3,-3
28107963914,2,8,3,0,-2,-3,-4,-1
28107985804,0,0,4,-1,0,-1,-1,2
28107985804,-1,0,-2,-3,2,1,1,-2
28107986417,-7,-7,-11,-4,1,0,-1,-3
28107986417,-2,-4,6,3,-1,-2,0,-1
28108000652,3,2,-3,-3,-2,-2,-1,-1
28108000652,-2,-6,-7,0,-2,-1,-2,-1
28108001465,0,1,3,-1,-1,1,1,-1
28108001465,-1,-1,-1,-2,-1,0,-2,-1
28108023149,-2,-2,-1,0,0,-1,0,-2
28108023149,2,0,1,2,-1,1,2,0
28108023916,2,6,1,-2,0,-1,1,1
28108023916,-2,-4,-1,0,1,-1,-1,-2
28108045734,0,1,1,0,-1,0,-1,1
28108045734,3,1,2,-3,-3,-2,-1,-1
28108046420,-2,-4,1,-1,0,1,2,1
28108046420,0,-2,-12,-4,0,-1,-3,-2
28108060753,2,2,1,0,-1,-1,0,-2
28108060753,1,3,-1,-2,-2,0,-1,-3
28108061413,-4,-11,-6,-1,-1,-1,0,0
28108061413,6,5,-2,-6,-5,-4,-3,1
28108083234,-6,2,7,1,0,-1,-4,-1
28108083234,0,6,13,3,1,-2,-2,-1
28108083939,-1,-2,-10,-6,-4,-3,-3,1
28108083939,-6,-10,-7,-4,-2,0,0,-13
28108105731,-2,-11,-13,-3,0,2,0,-2
28108105731,-1,2,6,2,-1,-5,-4,-1
28108106390,1,3,3,-2,-2,-3,-4,-3
28108106390,-2,-3,-1,-1,1,1,4,0
28108120753,1,3,2,-1,-2,0,-1,-2
28108120753,1,-2,-5,-4,-2,0,1,0
28108121417,-2,-4,-5,-2,-2,-3,-2,-1
28108121417,0,-2,2,0,-1,-2,-4,2
