29473773177,0.0341796875,-0.5908203125,0.76708984375
29473787982,-0.078125,-0.58349609375,0.720703125
29473811750,-0.05517578125,-0.87451171875,1.390625
29473833168,0.595703125,-0.2490234375,0.9375
29473848097,0.72705078125,-0.28369140625,1.4072265625
29473871762,0.3603515625,-0.61962890625,1.4951171875
29473893120,-0.4111328125,-0.96728515625,0.69287109375
29473908207,-0.6357421875,-0.86376953125,-0.02978515625
29473947445,-0.0126953125,-0.4189453125,0.25927734375
29473955734,0.68408203125,-0.2294921875,1.2216796875
29473969438,0.5078125,-0.54248046875,1.56982421875
29473991782,0.34912109375,-0.80810546875,1.04638671875
29474012942,-0.07275390625,-0.53662109375,0.69921875
29474029499,0.03515625,-0.62548828125,0.74365234375
29474072987,0.0283203125,-0.6044921875,0.7646484375
29474083149,0.0341796875,-0.6015625,0.76025390625
29474089379,0.03076171875,-0.5966796875,0.724609375
29474111153,0.49658203125,-0.49755859375,0.78271484375
29474133669,-0.7666015625,-0.90234375,0.49853515625
29474157355,-0.6728515625,-0.943359375,0.1826171875
29474171684,-0.359375,-0.626953125,0.021484375
29474194968,0.4130859375,-0.2587890625,0.7470703125
29474217391,0.7197265625,-0.32568359375,1.51611328125
29474231732,0.15576171875,-0.75439453125,1.3251953125
29474254915,-0.5732421875,-0.99609375,0.39599609375
29474277441,-0.4912109375,-0.72119140625,-0.03759765625
29474291739,0.28076171875,-0.2998046875,0.6171875
29474314911,0.16650390625,-0.49169921875,0.59814453125
29474337391,0.044921875,-0.61376953125,0.7841796875
29474358531,0.04736328125,-0.62939453125,0.7734375
29474374976,0.0595703125,-0.6435546875,0.79052734375
29474397426,0.0380859375,-0.6416015625,0.7724609375
29474411731,0.046875,-0.64990234375,0.78564453125
29474434881,0.0439453125,-0.66552734375,0.77880859375
29474457398,0.0283203125,-0.6572265625,0.7734375
29474478442,0.01025390625,-0.66162109375,0.7646484375
29474494902,0.00732421875,-0.6630859375,0.76611328125
29474517419,0.0048828125,-0.6787109375,0.775390625
29474538543,-0.0048828125,-0.6337890625,0.7451171875
29474554935,-0.05615234375,-0.62841796875,0.77099609375
29474577460,-0.04345703125,-0.6416015625,0.7861328125
29474598479,-0.0517578125,-0.68994140625,0.8017578125
29474614929,-0.0322265625,-0.64599609375,0.78515625
29474637384,-0.0830078125,-0.64990234375,0.74560546875
29474658581,-0.072265625,-0.60986328125,0.775390625
29474674921,-0.0771484375,-0.66650390625,0.775390625
29474697395,-0.0849609375,-0.65673828125,0.77001953125
29474718397,-0.1025390625,-0.6787109375,0.7470703125
29474734869,-0.140625,-0.69677734375,0.74658203125
29474757400,-0.14306640625,-0.708984375,0.74853515625
29474778413,-0.1298828125,-0.6845703125,0.775390625
29474794897,-0.1640625,-0.62158203125,0.77685546875
29474817391,-0.203125,-0.5771484375,0.76416015625
29474838429,-0.22705078125,-0.583984375,0.7587890625
29474854218,-0.2412109375,-0.619140625,0.76953125
29474877368,-0.27978515625,-0.6142578125,0.7451171875
29474899922,-0.32373046875,-0.62158203125,0.72412109375
29474914918,-0.35107421875,-0.65966796875,0.7607421875
29474937331,-0.36865234375,-0.66015625,0.74072265625
29474959925,-0.392578125,-0.62890625,0.73388671875
29474975641,-0.4384765625,-0.59228515625,0.7548828125
29474997404,-0.47509765625,-0.56103515625,0.744140625
29475019927,-0.4765625,-0.54296875,0.70703125
29475034210,-0.51171875,-0.529296875,0.67626953125
29475063488,-0.5380859375,-0.50048828125,0.6591796875
29475079924,-0.546875,-0.494140625,0.6552734375
29475102355,-0.56884765625,-0.4765625,0.64013671875
29475123650,-0.583984375,-0.43896484375,0.599609375
29475139924,-0.5966796875,-0.47021484375,0.58251953125
29475162365,-0.60595703125,-0.41259765625,0.5556640625
29475183503,-0.65771484375,-0.39208984375,0.5615234375
29475199924,-0.67431640625,-0.35546875,0.5537109375
29475222368,-0.68701171875,-0.32177734375,0.52001953125
29475243531,-0.7275390625,-0.3017578125,0.50537109375
29475260347,-0.73095703125,-0.32373046875,0.5146484375
29475282377,-0.7373046875,-0.306640625,0.5087890625
29475303536,-0.76416015625,-0.259765625,0.50146484375
29475319226,-0.77490234375,-0.22802734375,0.46533203125
29475342369,-0.78076171875,-0.2568359375,0.45361328125
29475363519,-0.80126953125,-0.23193359375,0.4404296875
29475386046,-0.8037109375,-0.2138671875,0.447265625
29475402392,-0.82080078125,-0.19482421875,0.42578125
29475424951,-0.8271484375,-0.18896484375,0.4091796875
29475439232,-0.841796875,-0.15576171875,0.392578125
29475462345,-0.8447265625,-0.1650390625,0.390625
29475484914,-0.84716796875,-0.1513671875,0.4013671875
29475499217,-0.85009765625,-0.13330078125,0.3916015625
29475522354,-0.8701171875,-0.1171875,0.40478515625
29475544923,-0.8681640625,-0.10791015625,0.39697265625
29475559224,-0.87939453125,-0.06689453125,0.40478515625
29475582356,-0.857421875,-0.123046875,0.4248046875
29475604910,-0.8896484375,-0.048828125,0.3583984375
29475619245,-0.9248046875,-0.06103515625,0.3603515625
29475626765,-0.8837890625,-0.05712890625,0.3798828125
29475647763,-0.8974609375,-0.04345703125,0.37158203125
29475670407,-0.92822265625,-0.06884765625,0.36669921875
29475686728,-0.93017578125,-0.015625,0.35009765625
29475707903,-0.919921875,-0.01953125,0.34521484375
29475730353,-0.93603515625,-0.01025390625,0.3525390625
29475746679,-0.92138671875,-0.029296875,0.36669921875
29475767864,-0.93212890625,-0.005859375,0.33740234375
29475790390,-0.93701171875,0.0068359375,0.37255859375
29475806738,-0.9130859375,0.0048828125,0.38330078125
29475827873,-0.92529296875,-0.01025390625,0.3662109375
29475850432,-0.93994140625,0.00830078125,0.34716796875
29475865373,-0.939453125,-0.0029296875,0.353515625
29475887910,-0.927734375,-0.01904296875,0.345703125
29475910393,-0.935546875,0.001953125,0.3349609375
29475925275,-0.93310546875,0.0048828125,0.3447265625
29475947846,-0.92578125,0.01611328125,0.3544921875
29475970343,-0.9365234375,0.02197265625,0.3291015625
29475986697,-0.9326171875,0.015625,0.32568359375
29476007748,-0.92529296875,0.041015625,0.3193359375
29476030324,-0.9404296875,0.05029296875,0.326171875
29476046695,-0.94580078125,0.052734375,0.31982421875
29476067839,-0.9580078125,0.041015625,0.29248046875
29476090504,-0.9501953125,0.0224609375,0.302734375
29476106620,-0.9296875,0.0185546875,0.33349609375
29476127791,-0.94091796875,0.0302734375,0.34423828125
29476150530,-0.9462890625,0.01318359375,0.36865234375
29476166706,-0.95166015625,0.005859375,0.35302734375
29476187872,-0.9619140625,-0.00244140625,0.3505859375
29476218411,-0.96484375,0.02490234375,0.3408203125
29476226660,-0.958984375,0.005859375,0.35595703125
29476247707,-0.958984375,-0.00634765625,0.3330078125
29476270447,-0.9755859375,0.005859375,0.33154296875
29476286696,-0.95556640625,0.01513671875,0.33837890625
29476307828,-0.9267578125,-0.02587890625,0.353515625
29476330435,-0.95361328125,-0.02294921875,0.33544921875
29476348182,-0.94873046875,0.0283203125,0.3359375
29476367707,-0.931640625,0.0478515625,0.36572265625
29476390362,-0.916015625,0.033203125,0.3720703125
29476408158,-0.939453125,0.00048828125,0.3251953125
29476427855,-0.955078125,0.029296875,0.3173828125
29476450385,-0.90576171875,-0.0078125,0.375
29476468173,-0.93310546875,-0.00830078125,0.361328125
29476487796,-0.94873046875,-0.02001953125,0.3310546875
29476510496,-0.970703125,0.01904296875,0.32861328125
29476528152,-0.92529296875,0.013671875,0.3603515625
29476547865,-0.94677734375,-0.02294921875,0.3564453125
29476570357,-0.95703125,-0.00634765625,0.3212890625
29476588135,-0.94873046875,0.01611328125,0.3291015625
29476607735,-0.93115234375,0.0078125,0.36865234375
29476630354,-0.9453125,0.00146484375,0.34228515625
29476648157,-0.943359375,-0.00927734375,0.33544921875
29476667872,-0.93603515625,0.01806640625,0.35009765625
29476690354,-0.9287109375,-0.00390625,0.3662109375
29476708143,-0.92529296875,-0.0029296875,0.353515625
29476727693,-0.947265625,0.00634765625,0.32568359375
29476750422,-0.94580078125,0.0048828125,0.34326171875
29476768191,-0.92236328125,-0.005859375,0.35595703125
29476787847,-0.9365234375,-0.01904296875,0.34619140625
29476805629,-0.94580078125,-0.0244140625,0.35009765625
29476828130,-0.9482421875,0.00048828125,0.3466796875
29476850606,-0.943359375,-0.00537109375,0.365234375
29476865658,-0.9365234375,-0.02880859375,0.35888671875
29476888245,-0.95361328125,-0.03173828125,0.34814453125
29476908035,-0.9541015625,-0.0146484375,0.34765625
29476926150,-0.93994140625,-0.00390625,0.36669921875
29476948140,-0.93994140625,-0.00830078125,0.35400390625
29476969223,-0.9482421875,-0.0283203125,0.3349609375
29476985618,-0.94970703125,-0.00439453125,0.33447265625
29477008151,-0.93212890625,0.0029296875,0.3515625
29477029176,-0.93310546875,-0.01806640625,0.35693359375
29477045689,-0.9462890625,-0.02490234375,0.33935546875
29477068150,-0.95166015625,-0.01123046875,0.3408203125
29477089142,-0.93505859375,0.00439453125,0.34765625
29477105638,-0.9267578125,-0.00927734375,0.3466796875
29477128191,-0.94970703125,-0.025390625,0.3447265625
29477149171,-0.951171875,-0.01513671875,0.34423828125
29477165639,-0.94580078125,-0.00244140625,0.33740234375
29477188185,-0.943359375,0.00341796875,0.3564453125
29477209159,-0.9443359375,-0.00244140625,0.3486328125
29477224228,-0.9677734375,0.02587890625,0.3134765625
29477247328,-0.93212890625,0.00927734375,0.34228515625
29477268533,-0.92529296875,0.0048828125,0.34912109375
29477284822,-0.93408203125,-0.02978515625,0.36083984375
29477307373,-0.923828125,-0.02783203125,0.37060546875
29477329805,-0.9873046875,0.05126953125,0.2529296875
29477344785,-0.99072265625,0.01904296875,0.30517578125
29477367342,-0.9072265625,0.06689453125,0.35986328125
29477389804,-0.92236328125,-0.0361328125,0.357421875
29477404957,-0.95166015625,-0.0869140625,0.3642578125
29477427351,-0.94189453125,0.00634765625,0.3134765625
29477449807,-0.951171875,0.05615234375,0.3212890625
29477464201,-0.9306640625,0.02734375,0.33837890625
29477487347,-0.90966796875,-0.03173828125,0.359375
29477509817,-0.90283203125,-0.0712890625,0.37890625
29477524196,-0.91015625,-0.04931640625,0.369140625
29477547373,-0.927734375,-0.03076171875,0.36962890625
29477569921,-0.9111328125,-0.013671875,0.36767578125
29477590856,-0.89501953125,-0.02685546875,0.37109375
29477608792,-0.89111328125,-0.07373046875,0.384765625
29477629921,-0.8857421875,-0.0966796875,0.40234375
29477651056,-0.8603515625,-0.1142578125,0.42626953125
29477667372,-0.8583984375,-0.10400390625,0.4208984375
29477689923,-0.86279296875,-0.12109375,0.42431640625
29477711031,-0.84375,-0.1318359375,0.42236328125
29477727361,-0.84423828125,-0.13720703125,0.421875
29477749823,-0.82861328125,-0.13720703125,0.43359375
29477771046,-0.81201171875,-0.2060546875,0.4580078125
29477787342,-0.77392578125,-0.27001953125,0.49072265625
29477809822,-0.765625,-0.26025390625,0.48291015625
29477830984,-0.77685546875,-0.23583984375,0.482421875
29477847325,-0.7509765625,-0.2822265625,0.52001953125
29477869909,-0.69677734375,-0.33984375,0.55029296875
29477891055,-0.6962890625,-0.3623046875,0.54931640625
29477907393,-0.70068359375,-0.33642578125,0.5517578125
29477929964,-0.69482421875,-0.31884765625,0.54150390625
29477951058,-0.6474609375,-0.3828125,0.57958984375
29477967366,-0.61083984375,-0.419921875,0.60302734375
29477989923,-0.60888671875,-0.42138671875,0.6171875
29478011072,-0.609375,-0.35546875,0.6005859375
29478027345,-0.60400390625,-0.34326171875,0.57861328125
29478049850,-0.55712890625,-0.41064453125,0.60791015625
29478071004,-0.48193359375,-0.5234375,0.6337890625
29478087376,-0.4248046875,-0.58642578125,0.67724609375
29478109822,-0.38818359375,-0.580078125,0.673828125
29478131048,-0.349609375,-0.59130859375,0.71044921875
29478146646,-0.2998046875,-0.5859375,0.7236328125
29478169954,-0.306640625,-0.6044921875,0.7392578125
29478192321,-0.29345703125,-0.62939453125,0.76220703125
29478206689,-0.263671875,-0.640625,0.76416015625
29478229828,-0.21826171875,-0.65771484375,0.787109375
29478252349,-0.20654296875,-0.64794921875,0.78662109375
29478266671,-0.220703125,-0.6357421875,0.78515625
29478289819,-0.1923828125,-0.6552734375,0.798828125
29478312345,-0.15869140625,-0.66650390625,0.810546875
29478326690,-0.13427734375,-0.64501953125,0.80419921875
29478349805,-0.14892578125,-0.64013671875,0.798828125
29478372325,-0.134765625,-0.626953125,0.78564453125
29478386694,-0.103515625,-0.6376953125,0.80078125
29478409926,-0.09716796875,-0.63525390625,0.79638671875
29478432328,-0.1064453125,-0.60595703125,0.77685546875
29478446650,-0.1044921875,-0.58935546875,0.77294921875
29478469803,-0.0849609375,-0.60498046875,0.779296875
29478492339,-0.06005859375,-0.6044921875,0.79638671875
29478513535,-0.05908203125,-0.59521484375,0.80615234375
29478529807,-0.04443359375,-0.59130859375,0.80078125
29478552404,-0.02880859375,-0.57666015625,0.8017578125
29478573493,-0.03955078125,-0.5927734375,0.8056640625
29478589827,-0.04150390625,-0.5712890625,0.80712890625
29478612386,-0.03076171875,-0.56591796875,0.8095703125
29478633517,-0.0244140625,-0.55859375,0.8046875
29478649980,-0.01513671875,-0.5625,0.8193359375
29478672361,-0.00048828125,-0.55810546875,0.83349609375
29478693449,0.0048828125,-0.5595703125,0.82421875
29478709932,0.00048828125,-0.560546875,0.8408203125
29478732319,0.02294921875,-0.54541015625,0.83447265625
29478753458,0.03955078125,-0.537109375,0.8125
29478769851,0.03173828125,-0.55712890625,0.79443359375
29478792345,0.03125,-0.607421875,0.80712890625
29478813591,0.05224609375,-0.60302734375,0.81640625
29478829845,0.03271484375,-0.55712890625,0.76220703125
29478852343,0.021484375,-0.57373046875,0.78662109375
29478873414,0.03369140625,-0.53955078125,0.78564453125
29478889847,0.037109375,-0.50927734375,0.80029296875
29478912346,0.05322265625,-0.4697265625,0.8232421875
29478933123,0.0615234375,-0.4765625,0.85693359375
29478949767,0.0947265625,-0.466796875,0.9013671875
29478972327,0.11865234375,-0.43212890625,0.9013671875
29478993485,0.07861328125,-0.44677734375,0.86962890625
29479009803,0.091796875,-0.46728515625,0.88037109375
29479032340,0.09326171875,-0.4423828125,0.8427734375
29479053557,0.08984375,-0.45263671875,0.85009765625
29479069826,0.10888671875,-0.46728515625,0.85400390625
29479092293,0.11181640625,-0.4755859375,0.85986328125
29479113466,0.0966796875,-0.462890625,0.86767578125
29479129820,0.083984375,-0.4453125,0.8564453125
29479152294,0.08154296875,-0.45166015625,0.8505859375
29479174823,0.08203125,-0.453125,0.8447265625
29479189820,0.08837890625,-0.47216796875,0.8466796875
29479212293,0.08349609375,-0.482421875,0.84521484375
29479234848,0.0908203125,-0.4697265625,0.845703125
29479249850,0.09814453125,-0.45556640625,0.8515625
29479272321,0.0947265625,-0.44873046875,0.84521484375
29479294871,0.10009765625,-0.4521484375,0.84716796875
29479309833,0.0966796875,-0.45947265625,0.84521484375
29479332346,0.09814453125,-0.46728515625,0.84033203125
29479354864,0.0869140625,-0.47314453125,0.841796875
29479369187,0.06884765625,-0.49658203125,0.83154296875
29479392295,0.07421875,-0.4814453125,0.83544921875
29479414843,0.08740234375,-0.4814453125,0.8466796875
29479429153,0.09228515625,-0.462890625,0.8359375
29479452280,0.0810546875,-0.47216796875,0.83935546875
29479474914,0.08349609375,-0.478515625,0.84375
29479495961,0.07568359375,-0.4765625,0.8310546875
29479512313,0.06689453125,-0.4765625,0.83642578125
29479534799,0.07275390625,-0.47265625,0.8388671875
29479549173,0.07373046875,-0.46435546875,0.845703125
29479572391,0.0615234375,-0.4755859375,0.83837890625
29479594796,0.08984375,-0.48828125,0.85009765625
29479615922,0.0732421875,-0.498046875,0.84375
29479632286,0.04443359375,-0.513671875,0.83154296875
29479654817,0.05126953125,-0.54345703125,0.818359375
29479675952,0.02587890625,-0.537109375,0.78564453125
29479692294,0.0166015625,-0.560546875,0.76611328125
29479714823,0.029296875,-0.591796875,0.74072265625
29479735973,0.07666015625,-0.61865234375,0.755859375
29479752317,0.07861328125,-0.63427734375,0.765625
29479774774,0.080078125,-0.63916015625,0.77294921875
29479795987,0.06640625,-0.603515625,0.76416015625
29479812327,0.048828125,-0.55615234375,0.7744140625
29479834793,0.04833984375,-0.53271484375,0.7919921875
29479855945,0.04638671875,-0.52099609375,0.80859375
29479872388,0.05029296875,-0.537109375,0.80078125
29479902261,0.05517578125,-0.53955078125,0.7939453125
29479915955,0.04833984375,-0.576171875,0.7880859375
29479932292,0.06787109375,-0.5830078125,0.783203125
29479954801,0.060546875,-0.578125,0.783203125
