29538114578,-0.305847167969,-0.00732421875,-0.0413818359375,0.951110839844
29538129511,-0.305847167969,-0.00732421875,-0.0413818359375,0.951110839844
29538153265,-0.305603027344,-0.0028076171875,-0.041015625,0.951232910156
29538159625,-0.308349609375,0.002197265625,-0.039794921875,0.950439453125
29538183279,-0.312561035156,0.00897216796875,-0.0375366210938,0.949096679688
29538198066,-0.312683105469,0.0089111328125,-0.03759765625,0.949035644531
29538220617,-0.306884765625,0.000732421875,-0.040283203125,0.950866699219
29538241898,-0.302185058594,-0.0042724609375,-0.0421142578125,0.952270507812
29538257055,-0.305358886719,0.000732421875,-0.0405883789062,0.951354980469
29538302633,-0.311218261719,0.00811767578125,-0.0381469726562,0.949523925781
29538303465,-0.311218261719,0.0079345703125,-0.0382080078125,0.949523925781
29538317629,-0.305053710938,-0.00030517578125,-0.041015625,0.951416015625
29538341354,-0.305236816406,0.0050048828125,-0.040283203125,0.951416015625
29538362771,-0.304931640625,0.00567626953125,-0.0408935546875,0.951477050781
29538386321,-0.304748535156,0.00555419921875,-0.0410766601562,0.951538085938
29538414417,-0.304443359375,0.00531005859375,-0.041259765625,0.951599121094
29538424426,-0.304077148438,0.00506591796875,-0.0413818359375,0.951721191406
29538438138,-0.303466796875,0.00604248046875,-0.041015625,0.951904296875
29538459406,-0.303588867188,0.0079345703125,-0.0399780273438,0.951904296875
29538475702,-0.298400878906,-0.00067138671875,-0.0428466796875,0.953491210938
29538498215,-0.294921875,-0.00482177734375,-0.0443725585938,0.954467773438
29538519355,-0.298583984375,0.0003662109375,-0.0428466796875,0.953369140625
29538537157,-0.304504394531,0.00762939453125,-0.0405883789062,0.951599121094
29538559705,-0.304260253906,0.00714111328125,-0.0407104492188,0.95166015625
29538579352,-0.302551269531,0.0050048828125,-0.0413818359375,0.952209472656
29538597149,-0.30029296875,0.00311279296875,-0.0421752929688,0.952880859375
29538619626,-0.306030273438,0.0103759765625,-0.0398559570312,0.951110839844
29538639256,-0.307678222656,0.0164794921875,-0.0382080078125,0.950561523438
29538657166,-0.30712890625,0.0165405273438,-0.03759765625,0.950744628906
29538679639,-0.30712890625,0.016357421875,-0.0376586914062,0.950744628906
29538699351,-0.307250976562,0.0159912109375,-0.037841796875,0.95068359375
29538717187,-0.307800292969,0.0157470703125,-0.0379638671875,0.950561523438
29538739605,-0.308410644531,0.015625,-0.0380859375,0.950317382812
29538759256,-0.308898925781,0.0155029296875,-0.038330078125,0.9501953125
29538777156,-0.309143066406,0.0154418945312,-0.0386352539062,0.950073242188
29538799626,-0.309448242188,0.0155029296875,-0.038818359375,0.949951171875
29538819407,-0.309753417969,0.015625,-0.0391235351562,0.949829101562
29538837176,-0.310180664062,0.0156860351562,-0.0394897460938,0.94970703125
29538859650,-0.310546875,0.0159301757812,-0.0399169921875,0.949584960938
29538879249,-0.310363769531,0.0165405273438,-0.040283203125,0.949584960938
29538897133,-0.310180664062,0.0172729492188,-0.0405883789062,0.949645996094
29538919619,-0.309997558594,0.0181884765625,-0.0408325195312,0.949645996094
29538939223,-0.309814453125,0.01953125,-0.0409545898438,0.94970703125
29538957159,-0.309875488281,0.0211791992188,-0.0408935546875,0.949645996094
29538979651,-0.310241699219,0.0230712890625,-0.0405883789062,0.949462890625
29538999296,-0.310119628906,0.02490234375,-0.040283203125,0.949462890625
29539017083,-0.310668945312,0.0269165039062,-0.039794921875,0.949279785156
29539039651,-0.312194824219,0.0289306640625,-0.0390014648438,0.94873046875
29539060670,-0.314086914062,0.0311279296875,-0.0380249023438,0.948120117188
29539077128,-0.316040039062,0.033447265625,-0.037109375,0.947387695312
29539099673,-0.316650390625,0.0367431640625,-0.035888671875,0.947143554688
29539120671,-0.316284179688,0.0397338867188,-0.0353393554688,0.947143554688
29539141740,-0.316345214844,0.0431518554688,-0.034423828125,0.947021484375
29539158895,-0.317321777344,0.0469970703125,-0.032958984375,0.946533203125
29539179945,-0.318603515625,0.0509643554688,-0.0313720703125,0.945983886719
29539195679,-0.319641113281,0.0551147460938,-0.0299682617188,0.945434570312
29539218909,-0.3203125,0.0595703125,-0.0285034179688,0.945007324219
29539239923,-0.321411132812,0.0643310546875,-0.0266723632812,0.9443359375
29539262507,-0.322998046875,0.0692749023438,-0.0243530273438,0.943542480469
29539278824,-0.324462890625,0.0745849609375,-0.0217895507812,0.942687988281
29539300074,-0.326477050781,0.0804443359375,-0.018798828125,0.941589355469
29539316289,-0.330017089844,0.087158203125,-0.0154418945312,0.939819335938
29539338843,-0.335510253906,0.0946655273438,-0.0114135742188,0.937194824219
29539360017,-0.342468261719,0.103210449219,-0.0064697265625,0.933776855469
29539376316,-0.351989746094,0.1123046875,-0.00048828125,0.92919921875
29539405061,-0.363342285156,0.121459960938,0.00665283203125,0.923645019531
29539421340,-0.374694824219,0.131103515625,0.0150756835938,0.917663574219
29539443789,-0.385925292969,0.141296386719,0.0245361328125,0.911254882812
29539465066,-0.396545410156,0.151916503906,0.0352172851562,0.904663085938
29539481325,-0.40625,0.162963867188,0.0465698242188,0.897888183594
29539503830,-0.414367675781,0.174194335938,0.0580444335938,0.891357421875
29539525008,-0.421081542969,0.185607910156,0.0695190429688,0.885070800781
29539541280,-0.427490234375,0.197265625,0.0816650390625,0.87841796875
29539564315,-0.434997558594,0.208679199219,0.0947265625,0.870788574219
29539585000,-0.442932128906,0.219299316406,0.108642578125,0.862487792969
29539601312,-0.450561523438,0.229248046875,0.123046875,0.853942871094
29539623919,-0.457641601562,0.238403320312,0.137634277344,0.845458984375
29539645147,-0.464050292969,0.246948242188,0.152038574219,0.836975097656
29539661306,-0.468444824219,0.254699707031,0.166259765625,0.829467773438
29539683814,-0.470886230469,0.261840820312,0.18017578125,0.822937011719
29539705019,-0.47412109375,0.267944335938,0.193969726562,0.81591796875
29539721393,-0.477416992188,0.27392578125,0.208190917969,0.808471679688
29539743767,-0.48046875,0.279663085938,0.22265625,0.80078125
29539764908,-0.484375,0.284790039062,0.23681640625,0.792602539062
29539781345,-0.487670898438,0.289489746094,0.250732421875,0.784484863281
29539803842,-0.489379882812,0.2939453125,0.264221191406,0.77734375
29539824900,-0.490417480469,0.297790527344,0.277038574219,0.770690917969
29539841297,-0.490844726562,0.301391601562,0.28857421875,0.764831542969
29539863820,-0.490173339844,0.305236816406,0.299072265625,0.759643554688
29539885040,-0.488464355469,0.309387207031,0.308654785156,0.755249023438
29539900789,-0.487121582031,0.312622070312,0.317687988281,0.751037597656
29539923806,-0.486694335938,0.314819335938,0.326293945312,0.746643066406
29539944978,-0.486511230469,0.316833496094,0.334350585938,0.742370605469
29539960667,-0.485717773438,0.318481445312,0.341857910156,0.738708496094
29539983824,-0.483947753906,0.319885253906,0.348754882812,0.736083984375
29540006298,-0.481811523438,0.320922851562,0.355224609375,0.733947753906
29540020651,-0.480773925781,0.321105957031,0.361511230469,0.7314453125
29540043919,-0.479675292969,0.321044921875,0.367858886719,0.72900390625
29540066318,-0.478332519531,0.320434570312,0.373352050781,0.727416992188
29540080661,-0.475341796875,0.320190429688,0.37841796875,0.726806640625
29540103803,-0.4716796875,0.320495605469,0.382507324219,0.726928710938
29540126353,-0.468627929688,0.320861816406,0.386108398438,0.726867675781
29540140643,-0.465881347656,0.3212890625,0.389831542969,0.726379394531
29540163781,-0.463989257812,0.320922851562,0.393188476562,0.726013183594
29540186333,-0.46240234375,0.320678710938,0.395751953125,0.725708007812
29540200658,-0.4609375,0.321044921875,0.397827148438,0.725402832031
29540223806,-0.459167480469,0.321044921875,0.399719238281,0.725402832031
29540246254,-0.456970214844,0.321044921875,0.401611328125,0.725769042969
29540260625,-0.454833984375,0.320922851562,0.402954101562,0.726440429688
29540283825,-0.453674316406,0.320617675781,0.403869628906,0.726745605469
29540307799,-0.454040527344,0.31982421875,0.40478515625,0.726379394531
29540320618,-0.455261230469,0.318176269531,0.405639648438,0.725830078125
29540343794,-0.455200195312,0.317443847656,0.405822753906,0.726135253906
29540366352,-0.454528808594,0.317749023438,0.404724121094,0.72705078125
29540380639,-0.455688476562,0.317565917969,0.403747558594,0.726928710938
29540403788,-0.45849609375,0.31591796875,0.403442382812,0.726013183594
29540426314,-0.46044921875,0.314270019531,0.402954101562,0.725769042969
29540440685,-0.460998535156,0.31298828125,0.402038574219,0.726501464844
29540463801,-0.460510253906,0.312927246094,0.400756835938,0.7275390625
29540486293,-0.461975097656,0.312316894531,0.399780273438,0.727416992188
29540507536,-0.464050292969,0.310607910156,0.400085449219,0.726684570312
29540523823,-0.4658203125,0.308959960938,0.400207519531,0.726196289062
29540546290,-0.46630859375,0.308044433594,0.400146484375,0.726318359375
29540567440,-0.466491699219,0.307434082031,0.399963378906,0.7265625
29540583832,-0.467407226562,0.306640625,0.400390625,0.72607421875
29540606293,-0.468811035156,0.3046875,0.4013671875,0.725402832031
29540627407,-0.469848632812,0.302978515625,0.401733398438,0.725219726562
29540643757,-0.469787597656,0.30224609375,0.401794433594,0.7255859375
29540666340,-0.469421386719,0.301879882812,0.402038574219,0.725830078125
29540687349,-0.469848632812,0.300537109375,0.402770996094,0.725708007812
29540703841,-0.469787597656,0.299072265625,0.403747558594,0.725769042969
29540726322,-0.469665527344,0.29833984375,0.404113769531,0.725952148438
29540747344,-0.469665527344,0.297546386719,0.404479980469,0.72607421875
29540763799,-0.470458984375,0.296142578125,0.404968261719,0.725891113281
29540786302,-0.470825195312,0.295043945312,0.405212402344,0.725952148438
29540807500,-0.471069335938,0.294250488281,0.405029296875,0.726196289062
29540823827,-0.471496582031,0.293579101562,0.404602050781,0.726440429688
29540846319,-0.471984863281,0.29296875,0.404113769531,0.726623535156
29540867488,-0.472778320312,0.292297363281,0.403747558594,0.726623535156
29540883774,-0.473876953125,0.291137695312,0.403503417969,0.726501464844
29540906330,-0.474792480469,0.289978027344,0.403198242188,0.726501464844
29540928779,-0.474792480469,0.289367675781,0.402893066406,0.726928710938
29540951301,-0.474975585938,0.289001464844,0.402770996094,0.72705078125
29540966300,-0.475708007812,0.288269042969,0.4033203125,0.7265625
29540988830,-0.476440429688,0.286987304688,0.40380859375,0.726318359375
29541003848,-0.476257324219,0.28662109375,0.403381347656,0.726806640625
29541026294,-0.476989746094,0.286010742188,0.402770996094,0.726928710938
29541048806,-0.477233886719,0.285888671875,0.402648925781,0.726867675781
29541063143,-0.477722167969,0.285034179688,0.402648925781,0.726867675781
29541086293,-0.477600097656,0.284423828125,0.402526855469,0.727294921875
29541108773,-0.476989746094,0.284240722656,0.402160644531,0.727966308594
29541123148,-0.477416992188,0.28369140625,0.401977539062,0.727966308594
29541146304,-0.478515625,0.28271484375,0.401916503906,0.727661132812
29541168774,-0.479125976562,0.281982421875,0.401672363281,0.727661132812
29541183192,-0.479064941406,0.281616210938,0.401123046875,0.728149414062
29541206340,-0.478698730469,0.281555175781,0.400817871094,0.728576660156
29541228864,-0.479064941406,0.281127929688,0.400695800781,0.728637695312
29541243126,-0.479431152344,0.280700683594,0.400268554688,0.728759765625
29541266290,-0.478942871094,0.281005859375,0.399658203125,0.729309082031
29541288812,-0.47900390625,0.281127929688,0.399047851562,0.729553222656
29541303591,-0.479614257812,0.280700683594,0.398986816406,0.729370117188
29541326293,-0.479797363281,0.280456542969,0.39892578125,0.729370117188
29541348817,-0.479370117188,0.280700683594,0.3984375,0.729797363281
29541363146,-0.479614257812,0.28076171875,0.39794921875,0.729858398438
29541386295,-0.480407714844,0.280395507812,0.397827148438,0.729553222656
29541408791,-0.481018066406,0.280029296875,0.397583007812,0.729431152344
29541429974,-0.480834960938,0.280090332031,0.397216796875,0.729736328125
29541446330,-0.480773925781,0.280212402344,0.396728515625,0.72998046875
29541468832,-0.480773925781,0.280212402344,0.396667480469,0.72998046875
29541489935,-0.480834960938,0.280151367188,0.396606445312,0.730041503906
29541506270,-0.480773925781,0.280639648438,0.396423339844,0.730041503906
29541528800,-0.480529785156,0.281433105469,0.396301269531,0.729919433594
29541549992,-0.480895996094,0.282409667969,0.396179199219,0.729370117188
29541566271,-0.481689453125,0.284240722656,0.395568847656,0.728515625
29541588854,-0.482788085938,0.286376953125,0.394592285156,0.727416992188
29541611421,-0.485290527344,0.287475585938,0.393615722656,0.725891113281
29541626290,-0.486083984375,0.289428710938,0.391906738281,0.725463867188
29541631774,-0.483520507812,0.292053222656,0.38818359375,0.728088378906
29541654379,-0.476196289062,0.296508789062,0.3828125,0.733947753906
29541676806,-0.467407226562,0.302062988281,0.376770019531,0.740478515625
29541691772,-0.461303710938,0.305847167969,0.372009277344,0.7451171875
29541714326,-0.45849609375,0.306640625,0.368591308594,0.748229980469
29541736769,-0.455322265625,0.306396484375,0.364868164062,0.752075195312
29541751792,-0.449890136719,0.306701660156,0.359375,0.7578125
29541774285,-0.443908691406,0.307556152344,0.351806640625,0.764526367188
29541796715,-0.437744140625,0.30908203125,0.342834472656,0.771545410156
29541811871,-0.431091308594,0.310546875,0.3330078125,0.778991699219
29541834182,-0.4248046875,0.311218261719,0.322448730469,0.786560058594
29541859600,-0.418518066406,0.310974121094,0.311218261719,0.794494628906
29541871738,-0.412231445312,0.309936523438,0.29931640625,0.802734375
29541894436,-0.40625,0.30810546875,0.287109375,0.810913085938
29541916770,-0.401062011719,0.305236816406,0.274475097656,0.818908691406
29541931798,-0.395874023438,0.301940917969,0.26123046875,0.826965332031
29541954280,-0.388793945312,0.298278808594,0.246765136719,0.835998535156
29541976772,-0.379028320312,0.294555664062,0.231018066406,0.846252441406
29541991866,-0.367858886719,0.290405273438,0.214538574219,0.856872558594
29542014319,-0.356628417969,0.285705566406,0.197875976562,0.8671875
29542036775,-0.346923828125,0.280029296875,0.181396484375,0.876525878906
29542059255,-0.338317871094,0.273315429688,0.164855957031,0.885192871094
29542074278,-0.328979492188,0.265686035156,0.148315429688,0.893920898438
29542096748,-0.318664550781,0.257568359375,0.132080078125,0.902526855469
29542111806,-0.309326171875,0.249145507812,0.116271972656,0.910339355469
29542134296,-0.30224609375,0.240234375,0.10107421875,0.916870117188
29542156832,-0.297485351562,0.230407714844,0.086669921875,0.922424316406
29542171841,-0.293823242188,0.219787597656,0.072998046875,0.927368164062
29542194249,-0.289489746094,0.209167480469,0.0593872070312,0.93212890625
29542216700,-0.284423828125,0.198486328125,0.0459594726562,0.936767578125
29542231597,-0.279663085938,0.187683105469,0.0328369140625,0.940979003906
29542254173,-0.275573730469,0.176696777344,0.0206909179688,0.944641113281
29542276797,-0.271667480469,0.165893554688,0.009765625,0.947875976562
29542291828,-0.269287109375,0.154907226562,-0.000244140625,0.950500488281
29542314218,-0.268249511719,0.143676757812,-0.009765625,0.952514648438
29542339583,-0.268005371094,0.132507324219,-0.0186767578125,0.954040527344
29542351806,-0.26708984375,0.121887207031,-0.0267944335938,0.95556640625
29542374288,-0.265930175781,0.111755371094,-0.0341796875,0.956848144531
29542392067,-0.263732910156,0.102233886719,-0.0407104492188,0.958251953125
29542411730,-0.260498046875,0.0933227539062,-0.046630859375,0.959777832031
29542434315,-0.258056640625,0.0851440429688,-0.0516967773438,0.9609375
29542452115,-0.256042480469,0.07763671875,-0.055908203125,0.9619140625
29542473123,-0.253112792969,0.0706176757812,-0.0597534179688,0.962951660156
29542494273,-0.250122070312,0.0642700195312,-0.063232421875,0.963989257812
29542512080,-0.247619628906,0.05859375,-0.0665283203125,0.964782714844
29542533116,-0.24560546875,0.0534057617188,-0.069580078125,0.965393066406
29542554331,-0.243713378906,0.04833984375,-0.0725708007812,0.965881347656
29542572120,-0.241577148438,0.0435791015625,-0.0753784179688,0.966430664062
29542593128,-0.239196777344,0.038818359375,-0.0780029296875,0.967041015625
29542614279,-0.237854003906,0.0343017578125,-0.08056640625,0.967346191406
29542632068,-0.237365722656,0.0302124023438,-0.082763671875,0.967407226562
29542653116,-0.237182617188,0.0265502929688,-0.0843505859375,0.967407226562
29542674253,-0.2373046875,0.0228271484375,-0.0858154296875,0.967346191406
29542692545,-0.237548828125,0.01904296875,-0.0872192382812,0.967224121094
29542713107,-0.237548828125,0.0151977539062,-0.0883178710938,0.967224121094
29542734303,-0.237182617188,0.011474609375,-0.0894775390625,0.967224121094
29542752062,-0.236450195312,0.00787353515625,-0.0908203125,0.967346191406
29542773070,-0.231079101562,0.00518798828125,-0.0911254882812,0.968627929688
29542794246,-0.229431152344,0.00262451171875,-0.0929565429688,0.968872070312
29542812023,-0.229614257812,0.00030517578125,-0.0929565429688,0.968811035156
29542834589,-0.230224609375,-0.0015869140625,-0.0927124023438,0.968688964844
29542854254,-0.229736328125,-0.00384521484375,-0.0925903320312,0.968811035156
29542872047,-0.228088378906,-0.0064697265625,-0.0927734375,0.969177246094
29542894570,-0.226318359375,-0.009033203125,-0.0932006835938,0.969543457031
29542914280,-0.225280761719,-0.0115356445312,-0.09375,0.969665527344
29542932070,-0.223999023438,-0.0145263671875,-0.0947875976562,0.969848632812
29542954529,-0.2236328125,-0.0172119140625,-0.095703125,0.969787597656
29542974292,-0.224365234375,-0.0202026367188,-0.097412109375,0.969421386719
29542992084,-0.226379394531,-0.022705078125,-0.0980224609375,0.968811035156
29543014541,-0.227233886719,-0.0247802734375,-0.0977783203125,0.968566894531
29543034180,-0.224487304688,-0.0266723632812,-0.0972900390625,0.96923828125
29543052071,-0.220703125,-0.02783203125,-0.0970458984375,0.970092773438
29543074839,-0.217956542969,-0.02880859375,-0.0969848632812,0.970703125
29543094312,-0.215454101562,-0.0292358398438,-0.096923828125,0.971252441406
29543112238,-0.21484375,-0.0288696289062,-0.096923828125,0.971374511719
29543134811,-0.21630859375,-0.0283203125,-0.0967407226562,0.971069335938
29543154205,-0.218505859375,-0.0283813476562,-0.096435546875,0.970642089844
29543172058,-0.220153808594,-0.028076171875,-0.0961303710938,0.970275878906
29543194601,-0.22119140625,-0.027587890625,-0.095703125,0.970092773438
29543214172,-0.221618652344,-0.02734375,-0.095458984375,0.970031738281
29543231270,-0.221862792969,-0.02685546875,-0.0950927734375,0.970031738281
29543253718,-0.222351074219,-0.0261840820312,-0.0946044921875,0.969970703125
29543274942,-0.223205566406,-0.025146484375,-0.0939331054688,0.969909667969
29543291330,-0.224426269531,-0.0240478515625,-0.0932006835938,0.9697265625
29543313746,-0.225891113281,-0.0228881835938,-0.09228515625,0.969482421875
29543334947,-0.227661132812,-0.0217895507812,-0.0912475585938,0.969177246094
29543351199,-0.229675292969,-0.0205688476562,-0.0897216796875,0.968872070312
29543373747,-0.232238769531,-0.0191650390625,-0.0873413085938,0.968505859375
29543394888,-0.236572265625,-0.0175170898438,-0.0835571289062,0.967834472656
