28512476482,-0.0794067382812,0.252990722656,-0.925354003906,0.27099609375
28512483354,-0.079345703125,0.252807617188,-0.925415039062,0.270935058594
28512507152,-0.079345703125,0.252807617188,-0.925415039062,0.270935058594
28512528543,-0.0748291015625,0.253662109375,-0.925415039062,0.271423339844
28512537148,-0.0759887695312,0.253173828125,-0.925659179688,0.270812988281
28512552751,-0.0761108398438,0.253234863281,-0.925598144531,0.270812988281
28512573472,-0.0775146484375,0.252197265625,-0.925903320312,0.270385742188
28512597114,-0.0784912109375,0.251342773438,-0.926147460938,0.270141601562
28512612174,-0.0738525390625,0.254089355469,-0.925415039062,0.271301269531
28512666125,-0.06884765625,0.258056640625,-0.92431640625,0.272644042969
28512666819,-0.0697021484375,0.257568359375,-0.924438476562,0.272399902344
28512675091,-0.0755004882812,0.252807617188,-0.92578125,0.270751953125
28512694108,-0.0748901367188,0.253234863281,-0.925720214844,0.270935058594
28512717789,-0.0753784179688,0.251647949219,-0.926147460938,0.270751953125
28512740497,-0.0746459960938,0.251586914062,-0.926147460938,0.270935058594
28512793394,-0.0746459960938,0.251586914062,-0.926147460938,0.270935058594
28512794059,-0.07470703125,0.251586914062,-0.926147460938,0.270935058594
28512800220,-0.07470703125,0.251586914062,-0.926147460938,0.270874023438
28512813899,-0.075927734375,0.251525878906,-0.926086425781,0.270935058594
28512836401,-0.0746459960938,0.251586914062,-0.926147460938,0.270935058594
28512850723,-0.0731811523438,0.252746582031,-0.925842285156,0.271301269531
28512873138,-0.0726318359375,0.253295898438,-0.925720214844,0.271484375
28512895730,-0.077392578125,0.24951171875,-0.9267578125,0.269958496094
28512910612,-0.0814208984375,0.245422363281,-0.927917480469,0.268676757812
28512933092,-0.07666015625,0.247741699219,-0.927368164062,0.269714355469
28512955753,-0.0703125,0.251586914062,-0.926330566406,0.271423339844
28512970721,-0.0717163085938,0.249633789062,-0.926879882812,0.270935058594
28512993249,-0.0751953125,0.244262695312,-0.928405761719,0.269775390625
28513015783,-0.0765991210938,0.241516113281,-0.929077148438,0.269592285156
28513030767,-0.0718383789062,0.241638183594,-0.929138183594,0.270568847656
28513053137,-0.0659790039062,0.242919921875,-0.928649902344,0.2724609375
28513075769,-0.0593872070312,0.244750976562,-0.928100585938,0.274353027344
28513090768,-0.0518188476562,0.24658203125,-0.927612304688,0.27587890625
28513113279,-0.04296875,0.248840332031,-0.926635742188,0.278564453125
28513135743,-0.0316772460938,0.249267578125,-0.926147460938,0.281311035156
28513150777,-0.018798828125,0.249816894531,-0.925598144531,0.283813476562
28513173109,-0.0047607421875,0.252075195312,-0.924133300781,0.287109375
28513195743,0.0115966796875,0.253540039062,-0.922424316406,0.291015625
28513210798,0.0327758789062,0.252136230469,-0.920776367188,0.295837402344
28513233270,0.0567626953125,0.246826171875,-0.91943359375,0.300903320312
28513264582,0.081787109375,0.242736816406,-0.917724609375,0.303649902344
28513270637,0.107788085938,0.240051269531,-0.91455078125,0.307189941406
28513293164,0.133422851562,0.241333007812,-0.909545898438,0.310974121094
28513315753,0.156311035156,0.247985839844,-0.902404785156,0.315795898438
28513330785,0.17626953125,0.258422851562,-0.893737792969,0.321594238281
28513353174,0.195007324219,0.268615722656,-0.884094238281,0.328857421875
28513375759,0.216369628906,0.271179199219,-0.873840332031,0.340698242188
28513390744,0.235717773438,0.275024414062,-0.865112304688,0.347045898438
28513413314,0.251037597656,0.275268554688,-0.856994628906,0.356018066406
28513435628,0.264221191406,0.273071289062,-0.849304199219,0.366516113281
28513452095,0.27587890625,0.268371582031,-0.842041015625,0.3779296875
28513473249,0.286010742188,0.260620117188,-0.835510253906,0.39013671875
28513495694,0.294067382812,0.2509765625,-0.828857421875,0.404357910156
28513510756,0.299377441406,0.239013671875,-0.822265625,0.420837402344
28513533121,0.302734375,0.223388671875,-0.816284179688,0.438354492188
28513555695,0.303894042969,0.203430175781,-0.8115234375,0.455749511719
28513570752,0.302917480469,0.180419921875,-0.807861328125,0.472229003906
28513593229,0.300598144531,0.155822753906,-0.805236816406,0.48681640625
28513615693,0.296081542969,0.12939453125,-0.803955078125,0.499206542969
28513630737,0.29052734375,0.104309082031,-0.804016113281,0.508239746094
28513653107,0.28466796875,0.0816650390625,-0.8056640625,0.513061523438
28513675730,0.279174804688,0.062744140625,-0.809204101562,0.513122558594
28513690630,0.275024414062,0.0472412109375,-0.814819335938,0.508117675781
28513713219,0.273498535156,0.0352172851562,-0.821533203125,0.4990234375
28513737055,0.273315429688,0.0267333984375,-0.829467773438,0.486389160156
28513752036,0.273681640625,0.02099609375,-0.838623046875,0.470520019531
28513775252,0.274169921875,0.0171508789062,-0.848815917969,0.451782226562
28513796406,0.273864746094,0.0162353515625,-0.859802246094,0.430603027344
28513814204,0.272827148438,0.0177001953125,-0.870788574219,0.408569335938
28513835215,0.27099609375,0.0213012695312,-0.881469726562,0.386169433594
28513856315,0.268615722656,0.02685546875,-0.891967773438,0.362731933594
28513872807,0.266784667969,0.0335083007812,-0.901611328125,0.338928222656
28513895289,0.264709472656,0.0423583984375,-0.910217285156,0.315673828125
28513916430,0.263061523438,0.0524291992188,-0.917602539062,0.29345703125
28513940205,0.261352539062,0.0636596679688,-0.923828125,0.2724609375
28513955217,0.259643554688,0.076171875,-0.928833007812,0.253051757812
28513976417,0.256958007812,0.0905151367188,-0.932556152344,0.236877441406
28513992672,0.254943847656,0.108825683594,-0.934387207031,0.223815917969
28514015231,0.252624511719,0.126831054688,-0.934997558594,0.214111328125
28514036388,0.248901367188,0.142700195312,-0.935180664062,0.207763671875
28514052730,0.243041992188,0.155944824219,-0.935180664062,0.205017089844
28514075240,0.236267089844,0.16552734375,-0.934936523438,0.206604003906
28514096411,0.229187011719,0.172668457031,-0.934020996094,0.212890625
28514112728,0.221008300781,0.177734375,-0.932861328125,0.222045898438
28514142745,0.211608886719,0.180786132812,-0.931701660156,0.233520507812
28514156394,0.201904296875,0.181640625,-0.929870605469,0.248229980469
28514172792,0.191650390625,0.179382324219,-0.927551269531,0.266052246094
28514195218,0.179504394531,0.173400878906,-0.925354003906,0.285461425781
28514218195,0.167663574219,0.165222167969,-0.922790527344,0.305053710938
28514232701,0.156372070312,0.155700683594,-0.919799804688,0.324523925781
28514255180,0.1455078125,0.145629882812,-0.916198730469,0.343811035156
28514276331,0.134948730469,0.135375976562,-0.912048339844,0.362731933594
28514292744,0.124206542969,0.122802734375,-0.908020019531,0.380737304688
28514315246,0.112609863281,0.111083984375,-0.904357910156,0.396484375
28514336409,0.1005859375,0.100463867188,-0.901245117188,0.409362792969
28514352705,0.0897216796875,0.0912475585938,-0.898742675781,0.41943359375
28514375246,0.0799560546875,0.0836181640625,-0.896911621094,0.426818847656
28514396410,0.0714111328125,0.0763549804688,-0.896301269531,0.431030273438
28514412735,0.0645141601562,0.069580078125,-0.897216796875,0.431335449219
28514435210,0.0586547851562,0.0646362304688,-0.899536132812,0.428039550781
28514456402,0.0521240234375,0.0634155273438,-0.90283203125,0.422119140625
28514472719,0.0457763671875,0.0639038085938,-0.906921386719,0.413879394531
28514495662,0.0401611328125,0.0654907226562,-0.911560058594,0.403930664062
28514516411,0.0364379882812,0.0662841796875,-0.916625976562,0.392517089844
28514532072,0.0343627929688,0.0657958984375,-0.922180175781,0.379699707031
28514555246,0.0318603515625,0.0660400390625,-0.927795410156,0.365905761719
28514576382,0.02880859375,0.0665893554688,-0.933410644531,0.351501464844
28514592057,0.0253295898438,0.0684814453125,-0.938659667969,0.337036132812
28514615194,0.0224609375,0.06884765625,-0.944091796875,0.321655273438
28514636400,0.0201416015625,0.069091796875,-0.949279785156,0.306091308594
28514652074,0.0167236328125,0.0702514648438,-0.953918457031,0.291320800781
28514675226,0.011962890625,0.0732421875,-0.957824707031,0.277648925781
28514697708,0.0067138671875,0.0775756835938,-0.960998535156,0.265380859375
28514712024,0.00244140625,0.07958984375,-0.963989257812,0.253784179688
28514735246,-0.00091552734375,0.0801391601562,-0.966674804688,0.243286132812
28514757705,-0.0048828125,0.0813598632812,-0.96875,0.234375
28514772553,-0.00970458984375,0.0850219726562,-0.970092773438,0.227172851562
28514795195,-0.014404296875,0.0890502929688,-0.970825195312,0.22216796875
28514817729,-0.01806640625,0.09130859375,-0.971252441406,0.21923828125
28514832120,-0.0203247070312,0.091064453125,-0.971618652344,0.217590332031
28514855223,-0.0214233398438,0.0888671875,-0.971923828125,0.216857910156
28514877745,-0.0216674804688,0.0864868164062,-0.972106933594,0.217102050781
28514898919,-0.0206909179688,0.0831909179688,-0.972290039062,0.217712402344
28514921293,-0.0208129882812,0.0791625976562,-0.972351074219,0.21875
28514937668,-0.0213623046875,0.0773315429688,-0.972106933594,0.220458984375
28514958852,-0.0220947265625,0.0779418945312,-0.971618652344,0.222351074219
28514975193,-0.0230102539062,0.0780029296875,-0.971008300781,0.224914550781
28514997725,-0.0217895507812,0.077392578125,-0.97021484375,0.228637695312
28515018796,-0.0206909179688,0.0776977539062,-0.969421386719,0.231994628906
28515035275,-0.0191650390625,0.0780639648438,-0.968627929688,0.235168457031
28515057695,-0.0170288085938,0.0775756835938,-0.968139648438,0.237609863281
28515078820,-0.0154418945312,0.0765991210938,-0.967712402344,0.239624023438
28515095385,-0.0143432617188,0.0761108398438,-0.96728515625,0.24169921875
28515117843,-0.0138549804688,0.0761108398438,-0.966857910156,0.243469238281
28515132162,-0.013916015625,0.0771484375,-0.966430664062,0.244750976562
28515155218,-0.0145263671875,0.0789794921875,-0.966003417969,0.245788574219
28515177719,-0.0156860351562,0.0806274414062,-0.965698242188,0.246459960938
28515198932,-0.017333984375,0.0820922851562,-0.965454101562,0.246826171875
28515215227,-0.0193481445312,0.0839233398438,-0.96533203125,0.246398925781
28515237722,-0.0220336914062,0.0865478515625,-0.96533203125,0.245239257812
28515258829,-0.0250854492188,0.0886840820312,-0.965393066406,0.244079589844
28515275196,-0.0286865234375,0.0888671875,-0.965637207031,0.242614746094
28515297700,-0.0321655273438,0.0892944335938,-0.965942382812,0.240905761719
28515319276,-0.036376953125,0.0917358398438,-0.966064453125,0.23876953125
28515335222,-0.0404052734375,0.0943603515625,-0.966125488281,0.236755371094
28515357717,-0.0438842773438,0.095947265625,-0.966247558594,0.235046386719
28515381610,-0.0468139648438,0.0970458984375,-0.966369628906,0.233581542969
28515402609,-0.0491333007812,0.0980224609375,-0.966430664062,0.232421875
28515417678,-0.0512084960938,0.09912109375,-0.966491699219,0.231323242188
28515439162,-0.0532836914062,0.100036621094,-0.966552734375,0.230102539062
28515455139,-0.0554809570312,0.100646972656,-0.966796875,0.228393554688
28515477696,-0.0572509765625,0.100524902344,-0.967041015625,0.226867675781
28515506293,-0.058837890625,0.0985717773438,-0.967468261719,0.225524902344
28515515195,-0.0601196289062,0.0955200195312,-0.967956542969,0.224304199219
28515537701,-0.0615844726562,0.0933837890625,-0.968383789062,0.223205566406
28515558886,-0.0634155273438,0.0929565429688,-0.968505859375,0.222106933594
28515575197,-0.065185546875,0.0942993164062,-0.968444824219,0.221435546875
28515597681,-0.066650390625,0.0963134765625,-0.968139648438,0.221313476562
28515620202,-0.068115234375,0.0982666015625,-0.967895507812,0.22119140625
28515635189,-0.0697021484375,0.10009765625,-0.967712402344,0.220642089844
28515657729,-0.0699462890625,0.0997314453125,-0.967956542969,0.2197265625
28515680182,-0.0706176757812,0.100219726562,-0.967956542969,0.219177246094
28515695198,-0.070556640625,0.102844238281,-0.967834472656,0.218627929688
28515717701,-0.0706176757812,0.105834960938,-0.967590332031,0.21826171875
28515747688,-0.0704345703125,0.109069824219,-0.967102050781,0.218933105469
28515754486,-0.0702514648438,0.112670898438,-0.966491699219,0.219787597656
28515777691,-0.0694580078125,0.1162109375,-0.966125488281,0.219665527344
28515800267,-0.0689086914062,0.11962890625,-0.966003417969,0.218627929688
28515828863,-0.0690307617188,0.124084472656,-0.9658203125,0.216918945312
28515837629,-0.0689086914062,0.130004882812,-0.965270996094,0.215942382812
