29770265397,0.07373046875,-0.552734375,0.7900390625
29770288223,0.07275390625,-0.5517578125,0.79296875
29770303098,-0.03076171875,-0.5341796875,0.68603515625
29770326838,-0.4453125,-0.91845703125,1.1982421875
29770348156,0.75732421875,-0.50634765625,1.30078125
29770363074,0.357421875,-0.7373046875,1.37255859375
29770386842,-0.435546875,-0.95458984375,0.7041015625
29770408151,-0.47998046875,-0.6103515625,0.1162109375
29770423203,0.369140625,-0.1826171875,0.6103515625
29770462518,0.7353515625,-0.40380859375,1.416015625
29770470128,-0.02978515625,-0.91162109375,1.14892578125
29770484519,-0.6162109375,-0.830078125,0.2587890625
29770506815,-0.52978515625,-0.55322265625,0.6220703125
29770528123,0.08935546875,-0.62890625,0.76416015625
29770544592,0.078125,-0.54833984375,0.7724609375
29770587982,0.06884765625,-0.57275390625,0.7783203125
29770598052,0.07421875,-0.5693359375,0.79150390625
29770604271,0.09375,-0.572265625,0.798828125
29770626125,-0.1298828125,-0.7958984375,1.19970703125
29770648634,0.2744140625,-0.2490234375,0.4208984375
29770672450,0.43310546875,-0.1728515625,0.6455078125
29770686792,0.7626953125,-0.353515625,1.3427734375
29770709925,0.171875,-0.83935546875,1.27001953125
29770732469,-0.57958984375,-0.91943359375,0.43017578125
29770746802,-0.26025390625,-0.4248046875,0.15234375
29770769920,0.62109375,-0.162109375,0.9462890625
29770792921,0.5732421875,-0.58251953125,1.474609375
29770806775,-0.27587890625,-0.97509765625,0.849609375
29770829949,0.0107421875,-0.642578125,0.9208984375
29770852471,0.07373046875,-0.57373046875,0.77978515625
29770866827,0.07763671875,-0.55810546875,0.78125
29770889961,0.07568359375,-0.5673828125,0.7890625
29770912420,0.07080078125,-0.57470703125,0.78466796875
29770926789,0.0751953125,-0.58251953125,0.7841796875
29770949960,0.06982421875,-0.5556640625,0.77783203125
29770972479,0.07470703125,-0.5693359375,0.78076171875
29770993563,0.0712890625,-0.580078125,0.79345703125
29771009942,0.07177734375,-0.576171875,0.7900390625
29771032472,0.06689453125,-0.57470703125,0.78466796875
29771053620,0.06494140625,-0.576171875,0.78466796875
29771069940,0.06884765625,-0.5830078125,0.76708984375
29771092495,0.07421875,-0.57568359375,0.783203125
29771113621,0.06884765625,-0.5703125,0.787109375
29771129971,0.0673828125,-0.5654296875,0.78515625
29771152445,0.05908203125,-0.57958984375,0.77734375
29771173604,0.06787109375,-0.59033203125,0.779296875
29771189922,0.06298828125,-0.58203125,0.78125
29771212488,0.05810546875,-0.57470703125,0.77587890625
29771233563,0.0634765625,-0.58251953125,0.77978515625
29771249957,0.06640625,-0.5771484375,0.77685546875
29771272446,0.05859375,-0.58203125,0.78564453125
29771293594,0.06298828125,-0.5859375,0.78173828125
29771309964,0.06640625,-0.6005859375,0.77734375
29771332426,0.05615234375,-0.58984375,0.76611328125
29771353716,0.05224609375,-0.59033203125,0.7783203125
29771369972,0.05908203125,-0.61572265625,0.78173828125
29771392418,0.06396484375,-0.64111328125,0.77880859375
29771414942,0.05029296875,-0.6279296875,0.7880859375
29771429942,0.0517578125,-0.62255859375,0.783203125
29771452421,0.052734375,-0.626953125,0.791015625
29771475013,0.041015625,-0.6181640625,0.77392578125
29771489263,0.02880859375,-0.65478515625,0.771484375
29771512492,0.0166015625,-0.67626953125,0.7666015625
29771534973,0.02099609375,-0.65625,0.75439453125
29771549295,-0.0126953125,-0.63134765625,0.7646484375
29771578561,-0.0263671875,-0.62890625,0.787109375
29771594980,-0.01953125,-0.65625,0.79443359375
29771617440,-0.00634765625,-0.6552734375,0.798828125
29771638625,-0.0263671875,-0.63232421875,0.77880859375
29771654278,-0.052734375,-0.634765625,0.77880859375
29771677445,-0.08544921875,-0.68115234375,0.8017578125
29771698581,-0.12939453125,-0.72412109375,0.8212890625
29771714891,-0.021484375,-0.7041015625,0.8134765625
29771737449,-0.02880859375,-0.55908203125,0.78955078125
29771758573,-0.12841796875,-0.5126953125,0.7822265625
29771774950,-0.16064453125,-0.5146484375,0.78271484375
29771797424,-0.13818359375,-0.55810546875,0.81201171875
29771818427,-0.1611328125,-0.5869140625,0.80810546875
29771834306,-0.185546875,-0.59716796875,0.794921875
29771857441,-0.21337890625,-0.60009765625,0.76318359375
29771878716,-0.22900390625,-0.62451171875,0.7578125
29771900976,-0.2392578125,-0.6259765625,0.74658203125
29771917420,-0.2734375,-0.60986328125,0.74462890625
29771939939,-0.29296875,-0.5849609375,0.751953125
29771954269,-0.31298828125,-0.5615234375,0.7451171875
29771977419,-0.3369140625,-0.54443359375,0.7392578125
29771999924,-0.35888671875,-0.54150390625,0.7373046875
29772014300,-0.38818359375,-0.52734375,0.71337890625
29772021758,-0.39697265625,-0.529296875,0.69482421875
29772042959,-0.40087890625,-0.5419921875,0.69091796875
29772065455,-0.43212890625,-0.537109375,0.7021484375
29772081729,-0.484375,-0.4912109375,0.669921875
29772102850,-0.55615234375,-0.46044921875,0.63818359375
29772125543,-0.60205078125,-0.51220703125,0.65380859375
29772141782,-0.62158203125,-0.4931640625,0.66259765625
29772162928,-0.62841796875,-0.48193359375,0.67724609375
29772185513,-0.6064453125,-0.47216796875,0.677734375
29772201819,-0.6279296875,-0.462890625,0.68359375
29772222789,-0.65283203125,-0.4375,0.66845703125
29772245505,-0.658203125,-0.412109375,0.654296875
29772261775,-0.66015625,-0.3662109375,0.64501953125
29772282902,-0.6708984375,-0.34765625,0.64501953125
29772305403,-0.68017578125,-0.35302734375,0.63427734375
29772321819,-0.6953125,-0.34912109375,0.638671875
29772342917,-0.70849609375,-0.30859375,0.61474609375
29772365441,-0.724609375,-0.28515625,0.5927734375
29772381756,-0.7333984375,-0.25341796875,0.59423828125
29772402934,-0.7431640625,-0.25244140625,0.6103515625
29772425375,-0.75927734375,-0.2333984375,0.57470703125
29772441754,-0.78173828125,-0.24560546875,0.5908203125
29772462895,-0.76416015625,-0.1923828125,0.5419921875
29772485563,-0.78759765625,-0.15380859375,0.546875
29772501741,-0.791015625,-0.11962890625,0.5263671875
29772522955,-0.78515625,-0.16259765625,0.54443359375
29772545427,-0.7744140625,-0.14697265625,0.56787109375
29772561744,-0.7744140625,-0.10009765625,0.564453125
29772582954,-0.76611328125,-0.05126953125,0.53662109375
29772605415,-0.78759765625,-0.046875,0.53857421875
29772621771,-0.7822265625,-0.00341796875,0.5341796875
29772642955,-0.78125,-0.00634765625,0.55908203125
29772665571,-0.783203125,0.03662109375,0.544921875
29772681782,-0.79833984375,0.037109375,0.5283203125
29772702956,-0.76220703125,-0.0029296875,0.5126953125
29772725267,-0.78369140625,0.03271484375,0.5078125
29772741773,-0.794921875,0.06591796875,0.51611328125
29772762775,-0.7666015625,0.048828125,0.5439453125
29772785405,-0.75732421875,0.06103515625,0.552734375
29772801782,-0.78515625,0.07177734375,0.52392578125
29772822895,-0.79638671875,0.07275390625,0.4990234375
29772845500,-0.7919921875,0.068359375,0.556640625
29772863187,-0.76953125,0.08544921875,0.564453125
29772882914,-0.78515625,0.0859375,0.54736328125
29772905433,-0.77490234375,0.083984375,0.5625
29772923267,-0.76904296875,0.0986328125,0.57958984375
29772942904,-0.78955078125,0.1259765625,0.57275390625
29772965491,-0.78759765625,0.13330078125,0.55859375
29772983201,-0.79931640625,0.146484375,0.58154296875
29773002906,-0.79931640625,0.14501953125,0.57373046875
29773025340,-0.80029296875,0.14306640625,0.5791015625
29773043281,-0.78466796875,0.1572265625,0.57421875
29773062900,-0.76220703125,0.189453125,0.5849609375
29773085427,-0.7421875,0.19091796875,0.5849609375
29773103199,-0.75537109375,0.177734375,0.56005859375
29773122877,-0.7333984375,0.18017578125,0.59228515625
29773145339,-0.70751953125,0.19091796875,0.59716796875
29773163249,-0.71240234375,0.220703125,0.57568359375
29773182913,-0.7021484375,0.228515625,0.5830078125
29773205403,-0.7099609375,0.232421875,0.57666015625
29773223282,-0.70849609375,0.23681640625,0.57958984375
29773242921,-0.71142578125,0.2685546875,0.57421875
29773265370,-0.708984375,0.24658203125,0.59765625
29773283223,-0.70849609375,0.25341796875,0.61474609375
29773304265,-0.70263671875,0.279296875,0.5849609375
29773325400,-0.70166015625,0.2216796875,0.6220703125
29773343242,-0.68994140625,0.23974609375,0.6298828125
29773362914,-0.70947265625,0.22509765625,0.63037109375
29773380683,-0.6865234375,0.21435546875,0.6640625
29773403224,-0.6982421875,0.166015625,0.6728515625
29773422842,-0.70263671875,0.15771484375,0.6552734375
29773440718,-0.70556640625,0.17333984375,0.6279296875
29773463141,-0.7099609375,0.20849609375,0.66064453125
29773484233,-0.712890625,0.1640625,0.69482421875
29773500703,-0.7255859375,0.1689453125,0.64697265625
29773523179,-0.72314453125,0.13671875,0.6396484375
29773544220,-0.71142578125,0.1513671875,0.67919921875
29773560715,-0.724609375,0.185546875,0.67138671875
29773583199,-0.7255859375,0.2080078125,0.63427734375
29773603484,-0.712890625,0.15625,0.64794921875
29773619930,-0.71435546875,0.1396484375,0.6455078125
29773642390,-0.720703125,0.1708984375,0.6572265625
29773663531,-0.71142578125,0.17041015625,0.64794921875
29773679944,-0.708984375,0.15087890625,0.66357421875
29773702435,-0.73095703125,0.13330078125,0.6650390625
29773723543,-0.72509765625,0.1357421875,0.6162109375
29773739919,-0.697265625,0.1162109375,0.642578125
29773762374,-0.73046875,0.1201171875,0.6865234375
29773783567,-0.73291015625,0.158203125,0.6650390625
29773799923,-0.7060546875,0.15283203125,0.62744140625
29773822400,-0.70654296875,0.154296875,0.65869140625
29773844917,-0.71240234375,0.1474609375,0.66259765625
29773859938,-0.6845703125,0.140625,0.63671875
29773882362,-0.6484375,0.12255859375,0.63427734375
29773904921,-0.640625,0.14404296875,0.650390625
29773919922,-0.7021484375,0.18505859375,0.625
29773942392,-0.7451171875,0.18359375,0.6279296875
29773964922,-0.7861328125,0.158203125,0.6123046875
29773979214,-0.8291015625,0.0869140625,0.60791015625
29774002386,-0.82861328125,0.06640625,0.6376953125
29774024930,-0.8251953125,0.0693359375,0.65625
29774039254,-0.77734375,0.10888671875,0.63818359375
29774062390,-0.75146484375,0.0966796875,0.65087890625
29774084917,-0.72314453125,0.06982421875,0.66650390625
29774099205,-0.71142578125,0.060546875,0.673828125
29774122391,-0.7021484375,0.05859375,0.66455078125
29774144920,-0.693359375,0.0615234375,0.6640625
29774159187,-0.69775390625,0.09423828125,0.658203125
29774182429,-0.7158203125,0.0888671875,0.66357421875
29774204916,-0.72119140625,0.09130859375,0.65625
29774219182,-0.7236328125,0.068359375,0.6474609375
29774242392,-0.7255859375,0.07861328125,0.65869140625
29774264918,-0.73193359375,0.0712890625,0.677734375
29774279218,-0.7314453125,0.06884765625,0.66845703125
29774302356,-0.71240234375,0.0615234375,0.66748046875
29774324922,-0.7392578125,0.06103515625,0.681640625
29774346129,-0.736328125,0.08984375,0.6748046875
29774363066,-0.72314453125,0.08056640625,0.6953125
29774384921,-0.72802734375,0.0595703125,0.69287109375
29774406073,-0.734375,0.05517578125,0.689453125
29774422395,-0.72119140625,0.10546875,0.65283203125
29774444928,-0.703125,0.07080078125,0.66748046875
29774466046,-0.6953125,-0.0556640625,0.712890625
29774482365,-0.7021484375,-0.0712890625,0.69482421875
29774504924,-0.68603515625,-0.03515625,0.67138671875
29774526142,-0.703125,0.02294921875,0.6689453125
29774542363,-0.73095703125,0.11328125,0.64453125
29774564929,-0.73388671875,0.11962890625,0.62890625
29774586059,-0.736328125,0.06201171875,0.60791015625
29774602354,-0.72998046875,0.0283203125,0.6015625
29774624921,-0.7470703125,0.01708984375,0.63330078125
29774646037,-0.763671875,0.06689453125,0.6103515625
29774661727,-0.75048828125,0.0849609375,0.58203125
29774684964,-0.75439453125,0.076171875,0.60205078125
29774707348,-0.76611328125,0.056640625,0.61083984375
29774722394,-0.771484375,0.04833984375,0.611328125
29774744919,-0.759765625,0.03466796875,0.61962890625
29774767395,-0.763671875,0.0478515625,0.6220703125
29774782390,-0.76123046875,0.05859375,0.62353515625
29774804917,-0.75439453125,0.025390625,0.6083984375
29774827417,-0.7705078125,0.0322265625,0.5927734375
29774841724,-0.78125,0.09423828125,0.64453125
29774864930,-0.75927734375,0.14453125,0.69775390625
29774887343,-0.75927734375,0.1123046875,0.73095703125
29774901741,-0.74853515625,0.05908203125,0.6953125
29774924920,-0.76953125,0.03076171875,0.64111328125
29774954920,-0.80322265625,0.04345703125,0.60205078125
29774961733,-0.7734375,0.05859375,0.60400390625
29774984964,-0.76220703125,-0.01513671875,0.65087890625
29775007406,-0.75830078125,-0.001953125,0.6689453125
29775028518,-0.75146484375,0.00439453125,0.6171875
29775044932,-0.771484375,0.00146484375,0.5869140625
29775067363,-0.7734375,0.01513671875,0.5751953125
29775088427,-0.76318359375,0.02880859375,0.58740234375
29775104964,-0.771484375,0.05908203125,0.5908203125
29775127424,-0.755859375,0.02294921875,0.57763671875
29775148339,-0.75830078125,-0.03369140625,0.57568359375
29775164946,-0.76318359375,-0.04052734375,0.55517578125
29775187369,-0.7587890625,-0.00537109375,0.57373046875
29775208535,-0.7529296875,0.01611328125,0.58056640625
29775232369,-0.73828125,0.00048828125,0.58837890625
29775247372,-0.7451171875,-0.0458984375,0.57666015625
29775268523,-0.74951171875,-0.05810546875,0.58544921875
29775286322,-0.7451171875,-0.05224609375,0.59375
29775307397,-0.73974609375,-0.0771484375,0.5810546875
29775328541,-0.7490234375,-0.072265625,0.5810546875
29775344947,-0.75634765625,-0.07275390625,0.5869140625
29775367348,-0.76123046875,-0.08935546875,0.59375
29775388574,-0.736328125,-0.1240234375,0.60888671875
29775404918,-0.71142578125,-0.15576171875,0.609375
29775427345,-0.70654296875,-0.166015625,0.595703125
29775448502,-0.70166015625,-0.16845703125,0.59375
29775464926,-0.69580078125,-0.203125,0.57080078125
29775487408,-0.6826171875,-0.2294921875,0.59423828125
29775508588,-0.62646484375,-0.25634765625,0.62158203125
29775524925,-0.60693359375,-0.27001953125,0.625
29775547369,-0.62353515625,-0.26123046875,0.62548828125
29775568537,-0.59423828125,-0.2685546875,0.65380859375
29775584923,-0.54296875,-0.31494140625,0.65625
29775607387,-0.5498046875,-0.32421875,0.658203125
29775628557,-0.55078125,-0.318359375,0.66455078125
29775644215,-0.50048828125,-0.3427734375,0.701171875
29775667375,-0.4609375,-0.42578125,0.7255859375
29775689828,-0.43310546875,-0.4560546875,0.72998046875
29775711107,-0.43359375,-0.43408203125,0.74072265625
29775727349,-0.42138671875,-0.42529296875,0.7392578125
29775749910,-0.37744140625,-0.43603515625,0.74560546875
29775771105,-0.3486328125,-0.45068359375,0.755859375
29775787368,-0.33447265625,-0.46875,0.77685546875
29775809914,-0.29248046875,-0.49365234375,0.80322265625
29775824247,-0.26806640625,-0.4892578125,0.8173828125
29775847341,-0.24853515625,-0.4873046875,0.822265625
29775869922,-0.2353515625,-0.51171875,0.82470703125
29775884190,-0.20166015625,-0.54296875,0.85546875
29775907340,-0.150390625,-0.59033203125,0.89697265625
29775929915,-0.11962890625,-0.55419921875,0.89453125
29775951061,-0.11865234375,-0.51806640625,0.890625
29775967395,-0.11181640625,-0.5146484375,0.90869140625
29775989889,-0.06884765625,-0.53076171875,0.91455078125
29776011057,-0.052734375,-0.5390625,0.927734375
29776027355,-0.01904296875,-0.5068359375,0.8974609375
29776049921,-0.025390625,-0.4580078125,0.8564453125
29776071075,-0.01318359375,-0.44580078125,0.83984375
29776087303,0.0107421875,-0.4501953125,0.822265625
29776109937,0.00439453125,-0.47216796875,0.83251953125
29776130999,0.03125,-0.49169921875,0.85205078125
29776147347,0.05712890625,-0.4775390625,0.86376953125
29776169918,0.0380859375,-0.43701171875,0.86376953125
29776191049,0.00146484375,-0.4130859375,0.89794921875
29776207364,-0.0556640625,-0.53125,1.14111328125
29776229925,0.03076171875,-0.544921875,1.056640625
29776250916,0.1650390625,-0.521484375,0.8984375
29776267370,0.1533203125,-0.35009765625,0.8876953125
29776289817,0.05224609375,-0.30322265625,0.923828125
29776310985,0.06494140625,-0.39990234375,0.9091796875
29776327420,0.0830078125,-0.548828125,0.92431640625
29776349925,0.03955078125,-0.57275390625,0.8955078125
29776371040,0.0283203125,-0.53759765625,0.8115234375
29776387320,0.041015625,-0.49267578125,0.7998046875
29776409920,0.03369140625,-0.50146484375,0.8369140625
29776431081,0.05859375,-0.51611328125,0.8759765625
29776447330,0.0673828125,-0.4365234375,0.8515625
29776469983,0.03271484375,-0.40625,0.82958984375
29776491197,0.029296875,-0.49365234375,0.86083984375
29776507345,0.0361328125,-0.498046875,0.85595703125
29776529897,0.017578125,-0.4736328125,0.8388671875
29776551070,0.0126953125,-0.5087890625,0.82666015625
29776566672,0.00390625,-0.52880859375,0.80029296875
29776589914,0.00732421875,-0.5576171875,0.76513671875
29776612308,0.0400390625,-0.62548828125,0.76953125
29776626686,0.0361328125,-0.60986328125,0.779296875
29776649916,0.04248046875,-0.6064453125,0.7939453125
29776672343,0.04345703125,-0.58251953125,0.8115234375
29776686720,0.05126953125,-0.54541015625,0.8173828125
29776709823,0.06103515625,-0.51611328125,0.81298828125
29776732354,0.07666015625,-0.49658203125,0.810546875
29776747371,0.06201171875,-0.47509765625,0.818359375
29776769975,0.0537109375,-0.486328125,0.81982421875
29776792354,0.05224609375,-0.51025390625,0.82177734375
29776806672,0.04296875,-0.53125,0.81005859375
29776829844,0.046875,-0.54541015625,0.80517578125
29776852341,0.0478515625,-0.560546875,0.7890625
29776866695,0.05126953125,-0.56494140625,0.7822265625
29776889814,0.0576171875,-0.583984375,0.796875
29776912371,0.05126953125,-0.59716796875,0.78662109375
29776926724,0.0439453125,-0.58642578125,0.787109375
29776949918,0.04736328125,-0.580078125,0.77880859375
29776955344,0.052734375,-0.55810546875,0.7939453125
29776977908,0.06005859375,-0.5615234375,0.794921875
29776994197,0.0576171875,-0.5615234375,0.78076171875
29777015259,0.060546875,-0.572265625,0.78857421875
29777037714,0.056640625,-0.5703125,0.7919921875
29777055620,0.06201171875,-0.556640625,0.787109375
29777075363,0.0693359375,-0.564453125,0.78564453125
29777097758,0.05810546875,-0.58447265625,0.79638671875
29777114373,0.0517578125,-0.57421875,0.783203125
29777135272,0.04296875,-0.5771484375,0.78857421875
