27944110684,2,1,-3,-2,0,-2,-3,0
27944110684,-2,1,2,0,-1,-5,-7,-1
27944114742,1,-9,-5,-2,-1,0,0,0
27944114742,2,4,2,1,1,3,6,-1
27944116294,0,9,0,0,-2,-4,-9,2
27944116294,3,9,3,0,-1,3,11,17
27944118481,-14,-7,1,1,0,2,3,-27
27944118481,-6,-8,-8,-5,-5,-9,-6,-3
27944121937,11,-6,-2,-2,2,12,13,13
27944121937,-2,-4,-3,-2,-1,-2,-2,-1
27944135603,-1,2,-3,0,0,-3,-4,4
27944135603,-3,0,3,0,-1,-1,-2,-4
27944146957,-4,-7,-2,-2,-3,-4,-2,-3
27944146957,1,0,-6,-2,-2,-1,-1,-5
27944150568,2,3,-1,-6,-3,-3,-3,-2
27944150568,2,-6,3,1,0,-1,-2,5
27944165594,-1,9,1,1,0,-2,-3,-3
27944165594,5,2,5,1,1,0,1,3
27944182071,5,4,0,0,0,2,3,8
27944182071,-4,-10,-6,-2,-1,0,-3,-4
27944183519,-2,-3,-1,-2,-2,-11,-16,-5
27944183519,-4,-3,-6,0,2,10,16,1
27944228762,0,-10,-2,1,1,1,6,5
27944228762,0,11,5,-2,-4,-4,-4,-5
27944229570,4,6,1,-1,0,-5,-5,2
27944229570,3,4,2,2,3,6,6,3
27944230409,-1,-4,-7,-1,-1,1,0,-2
27944230409,-5,-12,-8,-2,0,-1,0,1
27944232867,0,-5,1,-2,-2,-2,-3,1
27944232867,1,7,-7,-5,-4,-6,-5,-2
27944240992,-1,7,9,-1,-3,-5,-6,-6
27944240992,-4,-3,0,-2,-1,-3,-3,-1
27944247897,0,-7,-2,1,0,5,6,5
27944247897,-3,-4,-2,-3,-2,-2,-5,-3
27944255405,-5,-6,-3,0,1,3,5,-5
27944255405,-4,-3,-1,0,0,-1,-2,0
27944270424,-7,3,0,-2,-2,-4,-4,-8
27944270424,12,-1,-3,-1,-1,-4,-6,5
27944278564,-6,-4,-2,-3,0,5,5,1
27944278564,0,1,1,1,1,0,1,1
27944302076,-2,3,-1,0,1,2,1,0
27944302076,-5,-2,10,3,1,0,-1,-3
27944302929,0,0,-2,1,-1,-9,-16,-9
27944302929,7,5,1,-3,-3,2,9,17
27944315972,0,-6,0,-4,-1,2,8,3
27944315972,-3,12,0,1,-1,-3,-11,-1
27944316704,2,2,3,0,0,1,0,2
27944316704,-5,0,1,1,0,2,-2,-6
27944339170,0,-4,-5,-3,-3,-4,-3,-3
27944339170,-11,-8,-3,0,-1,-2,2,-2
27944339906,14,-2,-4,-2,-2,-1,-4,12
27944339906,0,9,7,2,3,5,4,-8
27944361750,-3,-5,-6,-3,-2,-3,-3,6
27944361750,-6,-7,-1,0,0,-2,-2,-5
27944362441,-3,5,1,-2,0,1,5,1
27944362441,3,-3,-2,-2,-1,-3,1,7
27944376070,2,3,-3,-2,1,0,-4,-4
27944376070,-2,-2,-7,-6,-4,1,4,-1
27944376740,-2,-1,6,3,0,-2,-3,-1
27944376740,0,7,4,1,-1,-2,-5,-1
27944399374,-5,-5,-1,0,0,2,0,-5
27944399374,2,-8,-6,-2,-2,-2,-3,-2
27944399916,-1,0,0,-4,-2,-2,1,-8
27944399916,2,-7,-14,-4,0,-1,-3,3
27944421600,-3,1,11,3,-1,1,-1,-2
27944421600,6,7,6,1,2,1,3,0
27944422391,-2,-3,-7,-5,-3,-5,-2,6
27944422391,-3,-5,-2,1,0,-1,-2,-6
27944435913,-5,0,1,3,-1,1,-2,-4
27944435913,-1,-4,-2,-3,-3,-2,0,-3
27944436662,0,3,-1,1,-1,1,3,5
27944436662,-2,-2,-6,-4,-2,-1,-1,-6
27944459081,0,-3,-12,-8,-1,0,-1,2
27944459081,-4,1,17,11,1,1,2,-5
27944459896,1,5,6,1,-1,-2,-3,-5
27944459896,-6,-10,-2,-5,-2,-2,-2,-4
27944481784,5,2,-4,4,0,-2,-1,1
27944481784,-5,-1,-3,-2,2,-1,1,0
27944482438,-7,-3,0,0,-1,-4,-12,-4
27944482438,-6,-2,4,1,0,-1,-11,-14
27944496045,5,1,1,-1,3,10,35,26
27944496045,4,-3,-8,-4,-3,-3,1,0
27944496730,2,2,2,2,0,-3,-1,1
27944496730,-8,1,-3,-3,-1,3,-7,-4
27944519252,-2,3,6,-2,-1,-4,-14,-14
27944519252,-4,-8,-13,-5,-4,0,1,4
27944519917,8,4,6,-1,-1,-4,-7,-1
27944519917,-5,-7,-5,1,-1,-6,-6,6
27944541765,-4,-3,1,1,0,-1,-2,-2
27944541765,4,4,3,0,0,-3,-3,13
27944542396,-11,-9,-8,-8,-5,1,-1,-20
27944542396,-2,-1,0,1,-1,0,5,-5
27944556054,-2,-4,-4,0,-1,-4,-3,-7
27944556054,-2,-1,1,-5,-1,1,-2,-5
27944556704,-8,-7,-12,-1,0,-3,-3,-2
27944556704,24,32,37,6,-4,-5,1,2
27944579336,-5,-8,-6,-2,-3,-7,-13,-1
27944579336,-3,-8,-5,-4,2,10,7,-1
27944579949,0,-4,-10,-3,2,8,15,4
27944579949,0,3,5,3,1,-2,1,2
27944601865,-2,3,1,-1,-2,-5,-10,-13
27944601865,-4,-5,3,-1,-2,-4,-4,-1
27944602386,-4,1,-6,-3,-4,-4,-7,5
27944602386,6,-2,-4,1,1,7,15,7
27944615417,7,5,0,-2,-2,-2,-3,5
27944615417,0,4,-1,0,0,0,0,-5
27944623487,-12,-19,-24,-7,-2,-2,-7,-16
27944623487,1,-4,16,1,-3,-4,-3,5
27944639103,5,22,14,4,1,1,0,-2
27944639103,-5,-5,-2,0,0,-5,-4,-9
27944640713,8,3,1,0,-2,0,5,14
27944640713,-8,-12,-13,-3,1,-1,-4,-3
27944669245,-6,-15,-14,-4,-1,3,3,-7
27944669245,0,7,13,6,1,0,-1,1
27944670715,0,6,4,-5,-1,-2,0,-1
27944670715,-5,-6,-13,0,-1,-3,-3,-4
27944675269,-6,-8,-3,0,0,-2,-4,0
27944675269,0,-5,-3,-4,-2,-3,-4,-7
27944684262,5,15,14,4,-1,-1,2,7
27944684262,-4,-7,-8,-3,0,0,1,-2
27944699083,0,2,2,-1,-1,-2,-1,4
27944699083,4,-7,-13,-5,-3,-4,-3,2
27944700671,2,-1,5,2,2,2,2,2
27944700671,3,7,5,-4,-3,-3,-5,-4
27944721706,-1,-2,-1,2,-2,-3,-5,-3
27944721706,-5,-7,-20,-8,-5,-2,0,2
27944723797,7,7,15,3,-1,-2,-2,1
27944723797,-7,-9,-13,-4,-2,-1,0,-3
27944735327,0,-9,-3,-4,-2,-1,-2,-2
27944735327,4,17,14,3,-2,-3,-1,0
27944744262,-8,-9,-8,1,2,1,-1,-3
27944744262,-1,-1,-3,-2,0,2,-1,-2
27944759227,1,-5,-7,-6,-2,-3,0,0
27944759227,-1,-8,-10,-4,-3,-1,0,-1
27944760754,3,12,11,-1,-1,-3,1,1
27944760754,-3,-4,-8,-7,-6,-4,-3,-1
27944781769,-2,1,-2,5,3,0,-1,-1
27944781769,-7,-24,-24,-11,-7,-1,-3,-1
27944783256,5,23,1,6,8,2,1,1
27944783256,2,7,20,3,-10,-4,-2,0
27944795833,2,-6,1,5,11,4,2,2
27944795833,2,2,7,11,2,7,5,1
27944804289,-3,-2,23,32,18,6,4,-1
27944804289,-13,-63,-35,-10,-4,-5,-2,-1
27944819357,22,101,39,-5,-9,-6,-4,1
27944819357,-3,-5,-12,-23,-12,-7,-5,-2
27944820735,-6,-8,-9,-15,-15,-7,-5,-5
27944820735,2,-7,6,7,7,3,0,0
27944841734,-10,-24,-26,-16,-12,-4,-3,-4
27944841734,-3,9,21,10,4,0,-1,-1
27944843204,3,6,-1,-3,-3,-4,-3,-1
27944843204,-5,-5,-45,-20,-8,-3,-4,-2
27944855366,-5,-12,19,-2,-7,-4,0,-2
27944855366,5,16,7,14,11,3,0,0
27944864281,-5,-19,3,-11,-12,-4,-4,-4
27944864281,4,20,18,26,16,7,1,0
27944878617,-5,-22,-19,-16,-8,-4,-3,-2
27944878617,-2,-13,-6,0,-2,-2,-1,0
27944885353,2,10,8,23,15,6,4,1
27944885353,1,4,-32,-30,-12,-6,-3,-1
27944901630,-1,-3,51,43,24,12,5,0
27944901630,1,5,-13,-12,-7,-5,-2,-3
27944903280,-4,-12,-15,-13,-10,-4,-2,-4
27944903280,1,12,4,5,2,2,0,1
27944915271,-7,-20,-25,-3,-3,-3,-2,-3
27944915271,-3,-1,9,-12,-9,-6,-2,0
27944924320,0,-5,-8,-1,5,3,2,1
27944924320,3,0,7,22,13,6,2,0
27944938422,0,16,9,9,6,1,1,-1
27944938422,0,-5,-8,-2,1,2,1,-2
27944945201,-8,-12,-21,-28,-19,-11,-5,-5
27944945201,-6,1,19,1,-3,-3,-2,-3
27944962034,16,20,22,28,10,4,3,3
27944962034,6,9,-3,-15,-14,-9,-3,-1
27944963661,-5,-10,9,40,32,16,5,1
27944963661,7,1,13,7,6,3,1,1
27944975358,-24,-24,-23,-20,-10,-4,-3,-3
27944975358,-6,-1,-2,-8,-5,-4,-1,0
27944984225,13,-7,-21,-26,-20,-8,-5,1
27944984225,-36,10,-3,-16,-16,-13,-9,-11
27944998590,29,-1,-4,0,6,8,3,7
27944998590,-4,-13,-10,-12,-12,-7,-5,-3
27945005435,-28,4,-1,4,-4,-3,-4,-8
27945005435,3,-7,2,-10,-12,-3,-1,2
27945021755,29,13,-22,-25,-15,-10,-3,3
27945021755,-40,-26,9,16,4,3,1,-7
27945023273,9,-2,-28,-14,4,2,-1,0
27945023273,25,29,34,20,3,2,3,4
27945044143,-3,-12,14,3,-5,-6,-6,-3
27945044143,13,7,-5,10,12,6,3,3
27945045711,-10,14,13,-5,-12,-6,-3,-6
27945045711,-18,-21,-6,-1,5,1,0,-4
27945058545,-8,-20,-38,-38,-14,-7,-2,-4
27945058545,9,12,19,25,11,2,0,1
27945065429,4,19,30,12,4,3,0,-1
27945065429,3,-7,-11,5,10,5,3,4
27945081930,-9,-5,6,16,8,1,-1,-4
27945081930,-2,5,-11,-15,2,2,-1,-2
27945083256,-2,-8,-6,2,-1,-2,1,3
27945083256,22,14,10,-2,-5,-4,-3,2
27945104072,-28,-21,-6,-6,-10,-5,-2,-5
27945104072,16,22,8,11,8,3,0,1
27945105731,-7,-8,4,-3,3,2,0,2
27945105731,14,5,-24,-3,8,1,0,3
27945126768,-8,3,10,15,9,9,1,-1
27945126768,-7,-4,0,-10,-7,-4,-2,-3
27945128257,6,-10,-2,-4,-7,-3,-3,1
27945128257,-12,-6,-3,1,1,-3,0,-2
27945141677,3,-1,-35,-25,-6,-3,-2,0
27945141677,1,0,5,16,-1,-3,-4,-1
27945143220,-2,2,14,10,1,-5,-5,-3
27945143220,-13,-6,-4,-32,-24,-10,-6,-4
27945164227,-4,-9,-25,9,10,4,2,1
27945164227,6,3,9,-7,-7,-3,-2,-1
27945165704,-3,-5,-1,15,14,4,2,0
27945165704,5,2,-1,-15,-18,-10,-5,-4
27945178587,-2,5,-5,0,2,3,1,1
27945178587,9,1,-12,7,10,-3,-1,1
27945185397,-3,-6,8,-7,-5,3,2,0
27945185397,8,11,-10,4,6,6,1,1
27945200430,-20,-15,-12,-22,-15,-6,-2,-2
27945200430,10,10,15,9,-3,-3,0,2
27945215365,1,-11,-15,-13,-4,-3,-1,1
27945215365,-8,1,17,9,-4,-4,-10,-5
27945224197,5,2,3,8,0,0,6,3
27945224197,-4,-1,-21,-19,-8,-3,-6,-6
27945225701,3,3,-5,1,10,5,2,1
27945225701,-3,-12,-24,-11,3,6,17,9
27945246750,2,13,62,32,10,1,-6,-2
27945246750,-11,-14,-6,-4,-3,-1,6,-1
27945248234,16,25,5,-12,-15,-4,-4,3
27945248234,-5,-14,-15,2,9,-1,-19,-9
27945260353,-2,3,-1,-4,-3,-5,-1,-4
27945260353,1,-8,-2,3,6,2,-37,-9
27945269253,-2,-8,-4,0,-6,6,80,29
27945269253,5,6,17,-3,-6,1,3,3
27945283470,-1,-1,-16,-4,0,-6,-2,-5
27945283470,-20,-12,29,31,16,9,3,-2
27945290232,6,5,-4,-10,-8,-7,-35,-14
27945290232,6,6,-9,0,4,2,10,2
27945306812,-8,-16,-33,-18,-8,-3,3,0
27945306812,8,26,58,15,2,1,3,-2
27945308217,-3,-4,14,13,7,-8,-33,-11
27945308217,-5,3,12,3,2,0,-9,-3
27945320419,-5,-13,4,11,-1,-5,-23,-7
27945320419,3,-4,-36,-7,2,16,77,28
27945329236,7,14,23,2,-2,5,29,11
27945329236,-12,3,7,2,-5,-9,-12,-8
27945351588,-5,-8,-17,-10,-9,-21,-88,-30
27945351588,-3,-9,-17,-17,-9,3,34,9
27945353234,1,-2,-2,3,-4,-10,-14,0
27945353234,-5,-14,-6,-10,-3,0,27,1
27945366752,-3,-4,-9,-19,-12,0,22,15
27945366752,9,-5,3,24,17,9,-6,-2
27945368203,2,24,-3,-8,1,-4,-27,-7
27945368203,-9,-19,25,18,2,-1,-6,-3
27945380386,-9,6,14,16,11,9,16,0
27945380386,-3,-10,-19,-29,-19,-22,-53,-15
27945396773,-22,-39,-12,-8,-5,1,0,-13
27945396773,25,20,-8,10,13,16,47,25
27945403420,27,37,23,-3,-9,1,24,9
27945403420,-25,-27,-20,1,8,-2,-29,-10
27945417808,7,-2,-5,1,-2,-1,15,0
27945417808,4,5,-2,-6,-8,-5,-26,-8
27945426559,-14,-13,-30,-14,-3,-8,-33,-26
27945426559,-1,5,28,8,-3,-1,20,10
27945428162,7,6,36,14,6,2,-8,10
27945428162,-13,-15,-4,-6,-5,0,-7,-3
27945440236,4,5,-2,3,0,1,14,6
27945440236,-10,-8,-33,-26,-11,-13,-45,-26
27945449253,-7,-25,-37,-21,-8,-4,-11,-6
27945449253,9,32,17,4,-3,5,39,27
27945463434,6,5,13,8,4,0,-4,0
27945463434,-4,4,-24,-24,-17,-10,-7,-8
27945470347,-2,-3,13,8,8,-1,-7,-5
27945470347,-11,-19,-11,3,0,-3,-21,-13
27945486767,-4,-3,-18,-3,3,5,14,6
27945486767,18,2,-18,-16,-5,2,4,-3
27945488229,12,16,43,19,-1,-5,5,6
27945488229,-15,-11,-6,-5,1,-7,-48,-16
27945500423,1,-4,7,7,4,6,29,5
27945500423,-9,-17,0,2,5,7,7,4
27945509230,3,11,-20,-14,-5,1,21,12
27945509230,-6,-11,-38,-11,0,0,-6,-18
27945523599,5,13,0,-9,-10,-6,3,20
27945523599,11,16,1,17,7,-6,-47,-23
27945530440,-28,-19,48,12,-6,-3,10,-18
27945530440,8,-5,-10,-7,-3,-1,30,29
27945546727,-7,2,10,5,6,6,-4,-20
27945546727,-3,-10,4,6,-2,-2,9,16
27945548202,-2,0,-30,-9,2,1,-16,-13
27945548202,4,7,7,4,-3,-6,-16,-3
27945569235,-7,-23,-12,-7,1,3,8,-1
27945569235,-5,25,33,8,-4,-4,-20,-14
27945570733,2,-2,-5,7,7,1,6,3
27945570733,7,11,10,3,2,-2,-21,-8
27945583512,2,6,7,-2,-1,2,11,7
27945583512,-5,-17,-43,-18,-9,0,21,21
27945607399,3,-8,-36,-12,-1,-3,-21,-10
27945607399,-7,12,41,18,4,1,14,2
27945608035,4,-18,-6,1,3,-3,-19,-15
27945608035,10,10,18,6,2,6,29,18
27945609643,2,-17,-40,-14,-6,0,-11,-4
27945609643,18,23,24,18,11,2,-33,8
27945629298,-10,-3,-3,-14,-11,-4,36,-7
27945629298,-14,-19,-13,-5,1,-2,-22,0
27945630707,13,35,22,9,1,6,29,-1
27945630707,8,-10,-12,-9,-4,-3,5,10
27945643553,1,-7,1,4,-2,-8,-53,-19
27945643553,4,20,-18,-5,5,12,69,15
27945650446,7,3,20,6,-1,-4,-17,3
27945650446,-3,-8,-8,-11,-11,-7,-3,-3
27945666612,7,44,95,44,13,5,5,0
27945666612,-10,-29,-27,-11,-5,-11,-20,-10
27945668252,-19,-40,5,0,-1,-1,-29,-10
27945668252,5,12,-22,-13,-5,5,58,10
27945689085,-8,2,-25,-15,-6,-5,-19,-11
27945689085,-2,-9,38,17,3,5,7,13
27945690700,3,-23,-28,-11,-3,-2,3,2
27945690700,-10,20,11,12,6,1,-12,-23
27945702710,-5,-13,-11,-12,-6,-2,4,8
27945702710,-11,-36,-14,-8,-8,-11,-34,-18
27945711720,13,-11,-47,-24,-12,-9,-10,26
27945711720,1,43,31,13,11,13,26,-16
27945726679,-11,0,-1,2,-1,-3,-10,0
27945726679,2,-64,-44,-12,-6,-3,-12,-7
27945728218,8,85,39,9,0,-4,-15,-6
27945728218,1,-9,-22,-6,-3,-6,-11,-6
27945749078,-26,-66,-33,-3,7,11,37,21
27945749078,18,-27,11,19,17,13,4,1
27945750710,-16,-86,-34,-12,-4,5,18,4
27945750710,12,61,67,23,8,-2,-30,-5
27945764189,2,-53,-15,11,3,0,15,-3
27945764189,-2,-56,-30,-22,-10,-3,-4,5
27945777866,15,64,57,-1,6,13,37,16
27945777866,-27,-79,-55,-40,-18,-12,-30,-19
27945786726,15,2,-2,8,2,-2,2,9
27945786726,7,67,64,23,7,0,0,5
27945788190,7,81,45,12,6,2,-6,-17
27945788190,-27,-82,-68,-34,-19,-14,-20,-11
27945809229,16,123,42,6,-4,-10,-27,-2
27945809229,6,-47,-17,-17,-8,-7,1,-10
27945810710,-13,-44,-41,-10,1,10,42,4
27945810710,-7,8,0,-3,-7,-6,0,10
27945822890,-28,-80,-23,25,22,8,-14,-9
27945822890,-16,38,-16,-5,2,-7,-32,-15
27945831731,50,67,81,63,24,13,21,14
27945831731,-22,-128,-51,-12,-6,-3,8,-1
27945854203,22,6,11,-22,-19,-5,6,8
27945854203,-37,-32,-51,-16,-8,-7,-6,-17
27945855711,-18,-24,28,12,0,-8,-18,-2
27945855711,3,-14,-7,-12,-2,4,6,9
27945869246,7,-44,-44,27,31,22,14,9
27945869246,-18,-10,0,-42,-34,-17,3,-9
27945870738,7,49,26,27,3,-4,-25,-10
27945870738,12,6,11,-26,-12,-16,-14,-6
27945882795,24,62,53,-3,-24,-10,-10,-3
27945882795,20,9,43,71,65,35,19,16
27945907381,-30,-66,-62,-56,-38,-28,-10,-22
27945907381,-7,-22,-54,-4,2,8,12,7
27945908059,43,75,58,-16,-23,-9,15,6
27945908059,19,-34,-17,-4,-8,-3,-13,-4
27945909697,15,-37,-29,-7,-1,5,21,22
27945909697,-7,-18,0,10,8,7,11,-11
27945929107,-56,-114,-121,-46,-8,0,35,23
27945929107,52,123,127,54,19,13,-4,-3
27945930721,-13,-22,-67,-27,-6,-7,-33,-5
27945930721,-19,-78,-41,-26,-14,5,62,13
27945942835,-19,-64,-25,2,7,4,-4,0
27945942835,-31,-89,-20,-11,-14,-18,-23,-18
27945957882,-35,-106,-74,-31,-19,-13,-3,-10
27945957882,5,9,3,16,12,9,-6,8
27945966654,25,85,48,-2,-12,-12,-18,-6
27945966654,-39,-77,-74,-29,-19,-10,6,-4
27945968245,-8,-84,10,33,26,11,-12,-4
27945968245,13,10,23,25,8,-1,-13,-2
27945989164,25,55,14,7,10,9,16,8
27945989164,11,22,-66,-112,-84,-40,-10,-3
27945990740,-29,-38,21,94,79,38,3,-5
27945990740,-3,11,34,53,27,3,-25,-8
27946002895,-4,-50,-28,-9,10,13,23,4
27946002895,26,99,46,-6,-2,-2,17,17
27946011728,-10,6,-3,-20,-23,-22,-42,-22
27946011728,8,33,24,-9,-20,-15,-8,-10
27946026501,17,-27,10,16,16,21,53,19
27946026501,-6,-75,-25,-6,11,31,62,55
27946032810,24,114,27,-21,-30,-23,-23,-9
27946032810,8,16,-2,-1,-1,-8,-26,-21
27946049084,14,3,10,3,-5,-12,-36,-7
27946049084,-17,4,5,19,14,6,-12,-14
27946050725,26,-5,12,-11,-5,5,29,14
27946050725,-24,-23,-23,-11,0,1,-5,-1
27946062770,4,66,28,-12,-13,-12,-18,-8
27946062770,-3,39,18,-32,-25,-20,-27,-17
27946071769,-7,-38,-17,-3,-16,-5,-5,-7
27946071769,21,40,26,52,51,27,15,11
27946086699,-33,-83,-25,-15,-2,-6,-30,-16
27946086699,4,-21,-24,-11,-3,-7,7,-8
27946088245,15,41,-19,-30,-32,-18,0,10
27946088245,-13,-68,-32,-3,-6,-5,19,7
27946109078,-37,-78,16,54,35,5,-46,-42
27946109078,-1,41,9,15,9,8,33,21
27946110800,0,-16,-39,-36,-15,-6,4,9
27946110800,4,27,20,-8,-11,-6,-13,-4
27946122818,-20,-56,-31,-6,-2,-6,-22,-23
27946122818,13,34,15,13,3,-5,-33,-13
27946131707,-16,-52,-27,-8,9,13,15,2
27946131707,-6,-41,-2,-11,-15,-16,-15,-10
27946146635,13,74,34,-14,-19,-10,-3,9
27946146635,1,-19,-24,15,5,-2,-1,-9
27946148225,-15,-2,12,9,10,5,0,-1
27946148225,27,6,3,-10,-6,0,2,5
27946169236,-4,-19,-8,-11,-7,-4,-7,-2
27946169236,12,37,8,6,8,7,13,9
27946170708,-8,-38,31,-13,-13,-5,-5,-7
27946170708,-6,47,45,65,43,20,5,0
27946183354,-2,-19,-2,14,11,7,-14,4
27946183354,6,-33,-26,10,13,15,45,18
27946191711,-3,17,6,0,13,12,10,-1
27946191711,2,51,-21,-62,-51,-26,-14,0
27946206581,18,70,16,26,12,9,22,14
27946206581,0,-19,18,19,11,0,-10,-10
27946208196,-10,-15,-11,-11,-4,-4,7,24
27946208196,21,62,34,-1,-3,-2,-11,-4
27946229217,-4,-7,-19,-17,-11,-10,-20,1
27946229217,-11,-24,7,-1,-1,6,19,0
27946230708,-18,-48,-16,5,2,-2,-13,-22
27946230708,32,55,5,2,7,14,4,11
27946242815,-30,-77,-78,-48,-28,-11,28,1
27946242815,5,3,22,25,19,15,6,3
27946251741,7,86,34,5,0,-4,-20,-10
27946251741,3,-1,3,-3,-7,0,3,0
27946266614,0,-16,-11,-7,0,-1,-6,-17
27946266614,-20,-68,-31,-37,-31,-12,13,25
27946268194,29,23,51,103,94,54,31,17
27946268194,-12,37,25,-17,-19,-14,-13,-9
27946289222,6,-3,1,-4,-2,-3,7,6
27946289222,4,25,12,-5,-6,-4,8,-1
27946290709,0,-1,-32,-35,-31,-19,-15,-2
27946290709,-16,-90,-56,-7,7,8,6,0
27946302846,7,28,31,4,-5,-1,12,16
27946302846,16,81,21,-1,-1,-3,-9,-17
27946311730,-6,-18,-13,-13,-13,-8,0,-2
27946311730,-29,-41,8,9,-2,-6,3,-2
27946326658,-17,-23,-33,-29,-23,-19,-28,-31
27946326658,-14,-40,-7,7,5,1,-9,10
27946328164,18,81,36,-31,-27,-13,-2,-10
27946328164,-5,-21,29,53,29,6,-16,-10
27946349175,2,-9,3,-3,4,16,51,32
27946349175,-9,-14,2,-5,-3,-9,-33,-22
27946350697,-7,-24,-10,-5,-13,-19,-22,-14
27946350697,17,-8,-60,-46,-26,0,25,21
27946362840,8,67,24,42,25,13,4,-7
27946362840,-4,-19,-19,-8,-1,0,18,12
27946371760,-15,-52,0,-31,-24,-10,5,17
27946371760,-5,0,-46,-26,-10,-8,-11,-9
27946386071,-8,-15,44,6,-6,-10,-11,-23
27946386071,2,24,23,13,4,-5,-28,-4
27946392751,-13,-16,-26,-4,-2,-5,-11,-12
27946392751,7,-27,-9,-3,5,12,32,15
27946409217,7,10,-24,-3,2,-1,-10,-8
27946409217,-11,7,19,12,4,-13,-48,-37
27946410719,12,-2,-2,0,-4,0,24,18
27946410719,-12,-39,-18,-4,2,3,12,13
27946422724,13,-20,-20,-16,-14,-3,11,22
27946422724,16,44,18,18,8,7,-4,4
27946431722,-16,-69,-59,-12,-2,4,7,-9
27946431722,18,54,37,-17,-12,-4,2,2
27946446016,6,19,31,34,27,14,-13,7
27946446016,-11,7,2,8,-2,-5,-23,-37
27946460368,2,-49,-24,-4,4,6,11,39
27946460368,-24,-54,-48,-30,-19,-19,-30,-19
27946469177,4,12,63,30,15,10,-9,-6
27946469177,-11,-32,-5,-9,-9,-7,-15,-8
27946470686,7,11,-29,-15,2,17,51,8
27946470686,-8,-7,-21,-9,-5,-7,-14,-3
27946499211,1,-7,3,-13,-11,-5,8,9
27946499211,-15,-49,-29,1,-3,-8,-17,-25
27946500694,6,22,18,13,11,6,-3,10
27946500694,2,43,27,7,0,0,-16,-1
27946506091,-2,-17,-18,-14,-5,1,37,5
27946506091,-3,22,32,4,-8,-10,-5,-7
27946512812,-19,-24,-18,4,2,-1,-9,-21
27946512812,-5,-1,27,19,14,6,-7,-7
27946529300,0,-33,-57,-33,-19,-13,-10,5
27946529300,20,38,-26,0,10,17,34,43
27946530698,-3,-15,-6,-3,-7,-14,-28,-17
27946530698,21,86,112,46,14,11,25,8
27946551755,-5,-34,-37,-14,-7,-1,17,-1
27946551755,0,5,5,-9,-2,0,2,-2
27946553232,10,-12,-40,-42,-21,-8,-7,-4
27946553232,16,30,56,72,46,23,7,3
27946566053,-6,13,31,2,-10,-20,-56,-19
27946566053,-9,-39,-37,-32,-12,-3,2,6
27946572837,3,60,36,20,2,2,18,-5
27946572837,-6,-54,-49,-29,-14,-2,4,5
27946589190,2,38,21,10,5,-2,-33,-29
27946589190,-7,-7,-17,1,11,20,50,33
27946590711,15,27,28,3,-3,-2,-5,22
27946590711,-1,-18,-40,-22,-11,-11,-20,2
27946611680,6,25,-20,-19,-12,-9,2,1
27946611680,-3,27,41,-2,-13,-7,12,-3
27946613189,-9,-6,-4,25,18,7,-8,2
27946613189,9,14,9,9,10,15,41,4
27946625972,-21,-59,-68,-42,-23,-23,-32,-9
27946625972,7,-14,6,-24,-19,-1,18,1
27946632759,-8,28,75,102,62,20,-14,-26
27946632759,3,-5,17,-1,-2,-10,-16,-14
27946649136,0,-9,1,7,4,0,-20,7
27946649136,-21,-34,-55,-36,-18,-10,-11,-17
27946650706,18,34,-53,-49,-30,-4,25,28
27946650706,-1,-9,-15,-6,1,6,-6,20
27946671866,1,26,66,39,16,14,37,-5
27946671866,3,-15,66,31,16,7,7,4
27946673179,-14,-10,-28,-39,-31,-31,-49,-25
27946673179,-15,-38,-57,-32,-15,-14,-25,-13
27946685282,20,44,4,-9,-11,5,24,20
27946685282,19,15,3,42,35,12,-16,0
27946694206,-20,29,53,23,9,-4,-33,-47
27946694206,41,39,0,-8,5,9,56,46
27946709138,-31,-67,-65,-30,-19,-16,-34,-21
27946709138,1,-22,47,62,40,20,17,15
27946710654,26,50,16,-21,-12,-8,-14,-9
27946710654,-16,8,16,5,1,-7,-21,-26
27946731869,-19,9,19,-2,-8,-5,-9,-13
27946731869,8,-4,-4,11,6,9,25,6
27946733203,6,-71,-20,3,8,8,9,10
27946733203,-12,-27,-100,-35,-13,-5,-13,-3
27946746045,-24,-50,14,2,8,13,24,4
27946746045,4,28,-14,4,-3,-9,-28,-10
27946752720,-5,30,64,15,0,-4,-4,-28
27946752720,16,-22,-27,-34,-25,-11,-1,25
27946776688,8,43,19,13,12,14,36,16
27946776688,-9,1,-1,12,4,0,-15,-25
27946778195,-27,-60,-74,-27,-12,-6,0,5
27946778195,5,-8,-27,-19,-8,-9,-15,-7
27946791744,16,44,89,22,-8,-9,-7,-1
27946791744,9,28,38,3,-2,8,43,36
27946793209,-17,-29,-59,-37,-16,0,25,8
27946793209,-31,-32,27,10,-7,0,1,-20
27946806044,2,12,-30,10,17,11,14,15
27946806044,26,-13,-2,26,19,0,-18,-5
27946812828,8,68,20,5,-4,-10,-17,1
27946812828,-6,-61,-54,-33,-19,0,19,-6
27946836599,20,82,43,2,1,2,6,17
27946836599,-28,-52,0,-6,-8,-11,-22,-10
27946838137,-10,-33,-18,-12,-6,-3,3,-1
27946838137,-9,10,16,16,9,-3,-19,-17
27946851730,12,-15,30,7,3,9,33,37
27946851730,-28,-21,-64,-41,-26,-19,-24,-21
27946853194,34,-16,-37,-31,-13,1,12,12
27946853194,-33,15,115,50,6,-7,-21,-8
27946865949,25,6,-48,30,36,25,37,0
27946865949,-25,-4,4,-21,-15,-10,-9,-3
27946872815,16,16,20,-23,-29,-23,-37,-7
27946872815,-12,-42,-61,-28,-18,-9,3,-14
27946889356,-3,-1,31,33,24,5,-31,-15
27946889356,2,-3,-25,-14,-2,10,35,18
27946890702,-15,-9,-9,-1,5,4,-1,-12
27946890702,18,19,-12,-6,-6,-5,2,10
27946911723,-4,-7,-24,-22,-12,-2,7,11
27946911723,8,-9,-41,-35,-21,-10,-15,-9
27946913162,-4,16,66,70,48,24,11,0
27946913162,-38,0,49,28,19,12,17,13
27946925967,16,-21,-52,-19,-4,-6,-40,-17
27946925967,24,45,18,4,2,3,25,24
27946932884,-6,13,10,-9,-11,-7,-13,-6
27946932884,10,6,10,21,19,24,37,14
27946949336,-12,-46,-35,-23,-13,-7,12,0
27946949336,-9,15,16,0,-2,-7,-25,3
27946950695,13,-32,-38,-6,-6,-4,12,8
27946950695,7,27,60,14,7,6,4,8
27946971799,-16,-38,-49,-28,-20,-16,-23,-18
27946971799,5,40,2,10,1,1,3,-14
27946973185,-11,-53,4,50,43,24,14,13
27946973185,22,39,-50,-30,-24,-26,-27,-12
27946985399,4,51,52,-14,-15,-13,-3,-22
27946985399,-17,1,21,5,-2,-9,-44,-32
27946994209,3,-26,-12,-12,-4,8,38,24
27946994209,4,-2,2,2,3,0,-10,-10
27947009191,-18,-14,15,-9,-12,-10,-7,-10
27947009191,-9,-25,-32,1,6,0,-13,-10
27947010661,-5,8,-6,33,19,5,-6,-10
27947010661,14,39,58,18,6,-1,1,17
27947031780,5,25,29,4,-2,3,26,12
27947031780,-30,-65,-14,-3,7,6,-1,-4
27947033233,45,40,-53,-50,-28,-9,-3,7
27947033233,-11,-6,15,20,6,-3,-22,-15
27947045375,-9,-6,-24,43,34,12,-7,-2
27947045375,7,11,29,-5,-8,-2,11,-1
27947054203,-6,69,90,19,0,1,-8,-7
27947054203,-5,-53,-62,-38,-21,-14,-14,-8
27947069994,4,28,-41,-33,-24,-12,-19,3
27947069994,35,53,60,31,19,8,17,21
27947071583,-55,-81,-54,-29,-21,-17,-7,-13
27947071583,-8,-31,2,2,4,9,31,10
27947091714,10,42,27,-6,-8,-3,-14,-9
27947091714,8,-24,-69,-6,1,-2,-13,5
27947093247,-6,-12,28,-2,-2,3,17,-4
27947093247,13,80,35,14,4,1,-6,-3
27947105278,-19,-65,1,19,16,3,-4,-4
27947105278,0,2,-5,-25,-23,-10,5,-3
27947114210,-16,32,19,1,-2,-5,-23,-14
27947114210,22,-49,-48,-12,7,10,21,3
27947129288,-24,8,-20,-17,-12,-5,0,2
27947129288,20,12,53,27,15,11,0,-10
27947130681,-1,-8,-12,2,-1,-9,-33,-9
27947130681,-14,13,25,10,7,7,23,13
27947150944,6,-49,-56,-23,-11,-2,17,6
27947150944,-20,6,12,0,-5,-11,-25,-12
27947151650,-5,-57,-28,2,10,13,35,16
27947151650,-3,-32,-63,-15,-7,-7,-22,-11
27947173518,7,24,66,23,8,-3,-17,-9
27947173518,-26,-33,-52,-24,-13,-2,19,17
27947174191,6,7,35,-22,-21,-11,-6,-3
27947174191,-8,-47,-23,16,2,-2,-8,-5
27947188462,-4,-5,10,6,6,3,0,4
27947188462,13,-10,-117,-50,-11,-5,-5,-4
27947189151,29,86,107,76,32,14,3,9
27947189151,-32,-24,-53,17,10,1,-8,-18
27947211070,21,12,-29,-10,-8,-7,-17,-9
27947211070,-14,-3,-24,-3,-7,0,29,9
27947211691,-6,-41,-41,-42,-17,0,16,13
27947211691,16,35,19,-3,1,4,23,14
27947233438,-1,0,16,1,-12,-21,-46,-26
27947233438,-11,-61,-27,-27,-12,-1,21,6
27947234184,22,42,-5,-2,-4,-5,-3,16
27947234184,11,27,15,14,13,4,-6,0
27947248523,-16,-3,23,6,7,8,10,1
27947248523,-3,-20,-4,4,-3,-10,-28,-18
27947249192,1,28,22,22,10,5,-2,-3
27947249192,10,-3,-21,-20,-11,-7,-18,-7
27947271015,2,-15,24,-2,2,5,12,11
27947271015,14,23,24,4,-2,-5,-17,-5
27947271691,-12,-6,-24,-10,-14,-8,-6,-5
27947271691,1,26,56,14,5,5,16,0
27947294172,-17,-115,-91,-34,-2,5,4,2
27947294172,13,119,64,45,21,8,-2,-6
27947294920,-13,12,49,17,15,7,4,-1
27947294920,-11,-18,-12,-31,-22,-12,-9,-8
27947308464,-27,-41,-57,-20,-16,-12,-4,-12
27947308464,26,13,0,-10,-6,0,17,13
27947309173,-19,-9,-10,-16,-12,-14,-20,-18
27947309173,-4,-15,-10,8,20,26,44,15
27947331037,-10,-2,-29,-1,-5,-1,28,1
27947331037,3,7,21,-2,-4,-6,-10,-3
27947331598,10,6,22,1,-1,0,0,-4
27947331598,-19,-36,-42,-21,-11,-8,-19,-14
27947361670,40,43,12,33,19,5,-23,14
27947361670,14,16,48,10,5,6,22,14
27947362348,-20,-35,-70,-25,-8,3,3,-11
27947362348,11,5,13,-8,-13,-17,-24,-11
27947368925,-9,13,30,2,-5,-3,-7,-7
27947368925,-4,-21,1,11,2,0,-10,-6
27947400510,25,-4,24,29,28,11,1,11
27947400510,-20,8,-2,-4,1,-1,-8,-4
27947402006,11,30,-16,-30,-24,-13,1,-8
27947402006,-1,-8,-26,-2,7,1,-10,5
27947403022,-15,-17,12,-8,-9,-4,-4,-12
27947403022,7,14,37,15,6,8,26,20
27947414193,-2,41,14,-6,-3,0,7,8
27947414193,17,1,-50,-18,-8,-5,-8,-2
27947414958,-3,1,36,9,-2,-4,4,9
27947414958,-3,-20,-13,-8,-10,-12,-24,-19
27947428385,-26,-55,-50,-23,-11,0,20,-4
27947428385,1,34,20,-33,-28,-12,4,9
27947429162,-5,-18,9,76,49,19,1,-4
27947429162,-15,-4,35,1,-4,-7,-6,-4
27947450993,8,36,-5,-16,-2,-2,-5,2
27947450993,-5,-42,-108,-47,-24,-12,-11,-9
27947451741,29,32,45,17,1,-1,3,5
27947451741,-17,11,-82,1,7,-6,-43,-30
27947474067,6,-21,83,33,9,6,10,16
27947474067,-11,6,44,33,15,8,17,7
27947474940,2,-2,-63,-58,-31,-18,-20,-12
27947474940,-2,-25,-40,-22,-16,-12,-18,-11
27947488365,-19,-31,17,29,14,-2,-26,-12
27947488365,7,-1,22,8,3,-3,-3,5
27947489280,-24,-35,-55,-28,-16,-12,-3,-15
27947489280,32,23,27,-11,-8,0,6,20
27947510993,-13,-68,-40,9,12,12,5,-9
27947510993,29,63,86,55,36,21,8,5
27947511732,-6,14,-51,-25,-14,-11,-33,-4
27947511732,9,30,76,2,-12,-8,12,1
27947541667,-20,-33,-48,-12,-4,4,11,6
27947541667,-10,-61,-32,4,8,4,-9,-3
27947542370,-23,-24,-24,-24,-17,-7,-3,-5
27947542370,-4,-25,-57,-43,-22,-8,-4,-5
27947549097,25,64,68,34,19,9,1,11
27947549097,-17,-24,-2,29,18,10,6,-3
27947572791,2,25,10,-2,-6,-8,-5,-3
27947572791,7,52,75,11,-6,-6,-4,1
27947574259,-5,6,-39,-16,0,2,11,-17
27947574259,-11,-47,-40,-35,-35,-23,-25,-7
27947586021,13,-4,-3,3,0,11,35,22
27947586021,-11,-35,-14,4,10,5,-11,-3
27947593424,1,16,15,-6,-7,-8,-10,2
27947593424,-10,-50,-71,-41,-18,-11,-2,1
27947594175,37,80,78,45,21,13,15,4
27947594175,-11,-10,12,11,7,-2,-6,3
27947608465,-17,-40,-32,-18,-13,-6,-1,1
27947608465,1,51,75,25,8,-2,-1,-5
27947609165,-19,-49,-40,-28,-19,-7,-9,-3
27947609165,6,34,21,48,38,23,18,3
27947631093,21,2,-1,-10,-20,-20,-12,1
27947631093,-8,-28,-39,-25,-15,-9,-16,-38
27947631667,-13,-14,10,-7,-4,4,29,42
27947631667,0,-15,-27,18,18,10,-4,-5
27947670391,48,69,72,34,23,22,27,9
27947670391,-55,-17,-4,-5,-4,-3,0,-14
27947671139,20,-43,-97,-26,-1,2,-4,10
27947671139,-22,40,68,-2,-13,-10,-18,-27
27947672763,57,34,-26,-7,-9,-3,4,16
27947672763,-66,-64,-39,-17,-15,-24,-19,-23
27947675990,1,46,-3,4,10,9,5,-11
27947675990,31,28,33,13,17,24,26,25
27947745463,-2,25,13,-3,2,-1,-10,-7
27947745463,6,-34,15,17,5,8,3,7
27947746125,0,22,0,0,1,-2,-5,-10
27947746125,11,-4,-1,-7,-7,-7,-4,1
27947747773,-5,-20,11,28,32,25,1,6
27947747773,10,43,20,-1,1,6,9,7
27947753020,1,-19,4,8,3,-1,-3,-5
27947753020,-12,-12,-23,-4,-1,3,8,-5
27947754521,-13,-2,-2,-9,-7,-11,-15,-7
27947754521,22,13,-16,-13,-6,-5,1,6
27947755301,-16,-7,-15,-9,-4,-5,-4,-15
27947755301,16,35,29,12,11,12,25,26
27947774844,-15,-7,44,16,-2,-7,-5,-13
27947774844,-12,-41,-42,-16,-9,-7,-20,-5
27947776307,-14,-21,-14,-6,-3,2,21,6
27947776307,19,8,-20,-11,-3,-1,2,1
27947777127,-25,-59,-16,-6,-4,-2,-8,-13
27947777127,16,15,0,19,18,6,5,12
27947788423,-11,-5,3,2,-8,-7,-11,-5
27947788423,18,86,43,1,2,1,-8,1
27947789157,2,-12,-8,7,-1,-7,-4,-2
27947789157,-2,-17,-6,-12,-9,-4,5,-2
27947811037,-2,5,-7,-3,-2,-3,-2,0
27947811037,-8,-41,-19,-2,-2,-6,-9,-9
27947811762,-3,-1,-1,-9,-6,-3,-4,-11
27947811762,15,13,-12,-8,-9,-1,11,20
27947834057,0,-2,-9,-7,-2,-3,-5,0
27947834057,-2,-4,17,4,1,1,-2,-1
27947834915,-1,13,-1,-2,0,-2,-3,-4
27947834915,-5,-2,17,5,2,1,2,-5
27947848947,-11,-16,-19,-10,-6,-4,-2,-3
27947848947,0,6,6,9,4,1,-2,-11
27947849637,14,19,3,3,4,2,-1,9
27947849637,2,-16,-8,-7,-6,-4,5,3
27947872362,4,7,2,-5,-4,-4,-2,10
27947872362,-2,8,6,8,4,2,3,-7
27947873182,12,3,-3,4,3,0,-3,0
27947873182,-2,-5,-1,-7,-6,-3,-3,-2
27947902163,-6,7,-1,-1,-1,-3,-6,-11
27947902163,11,1,9,5,-1,-2,-2,11
27947925502,1,-3,-8,-4,-4,-1,3,13
27947925502,-19,-25,-12,-9,-6,-4,-3,-5
27947926974,-1,2,0,2,1,0,-1,-7
27947926974,4,-9,-4,4,3,3,2,7
27947927816,-11,-7,-10,-7,-6,-2,-3,-8
27947927816,5,-10,-10,-10,-7,-4,-2,-1
27947932383,-8,21,3,-5,-4,-4,-2,1
27947932383,3,6,19,25,12,5,1,4
27947933230,7,31,10,6,3,1,0,-6
27947933230,-4,-10,-1,-4,-5,-3,-1,0
27947954198,-4,-16,-13,-12,-8,-6,-6,-6
27947954198,0,-6,-8,-8,-7,-4,-3,1
27947954931,-1,0,-3,-2,-1,-2,-1,-3
27947954931,-5,2,1,2,3,1,0,-1
27947969158,9,6,0,-8,-4,-2,-3,1
27947969158,-8,-14,2,20,11,6,2,-3
27947976098,-6,-48,-18,4,4,2,0,1
27947976098,14,60,24,-2,-5,-3,1,5
27947990963,-1,-3,-2,4,2,-1,-1,1
27947990963,-2,-2,-6,-17,-10,-5,-3,-2
27947991666,-5,-15,-11,-8,-5,-2,-3,-6
27947991666,-2,-19,-10,-2,-2,-1,-2,-2
27948014209,-1,5,4,-1,-1,-1,0,1
27948014209,-4,-8,-11,-13,-6,-1,-1,-1
27948014915,2,17,5,-1,-5,-3,-2,-1
27948014915,3,-5,1,6,3,2,1,-2
27948027817,5,10,11,17,10,6,4,5
27948027817,-2,2,-4,-7,-3,-5,-3,-4
27948036048,-3,0,2,-8,-4,-4,0,-1
27948036048,-1,-6,-9,-13,-12,-8,-4,-2
27948051047,-16,-41,-21,-17,-7,-4,-4,-4
27948051047,9,26,23,38,20,8,2,4
27948051673,10,37,23,18,12,4,3,4
27948051673,0,-5,4,5,2,0,-2,-2
27948081608,-3,-6,-2,0,-1,-2,-3,-2
27948081608,-9,-18,-18,-26,-14,-6,-4,-5
27948082378,1,-9,-7,-7,-6,-1,-3,-3
27948082378,-2,-9,-6,-1,0,0,-1,0
27948096724,0,5,-1,-5,-5,-3,-1,-2
27948096724,-2,1,-2,-10,-7,-3,-2,-1
27948097368,-4,-11,-4,6,3,-1,1,0
27948097368,1,5,3,3,4,3,1,0
27948111082,1,0,-2,-6,-4,-3,-1,0
27948111082,-5,-7,-7,-11,-9,-7,-3,-2
27948111708,-2,2,4,-1,3,4,1,2
27948111708,-2,-2,3,12,10,3,0,-1
27948134114,2,3,7,11,5,2,0,0
27948134114,-3,-3,-6,-6,-4,-3,0,-1
27948134942,-2,-6,-10,-18,-15,-8,-3,-2
27948134942,1,0,0,-1,0,1,0,-1
27948147733,0,1,4,6,2,0,1,0
27948147733,3,0,-3,-4,-3,-1,-1,2
27948156012,-10,-1,-1,2,0,0,-2,-4
27948156012,5,3,-2,0,1,0,-3,2
27948170970,1,-3,-3,-2,0,-1,1,4
27948170970,2,2,1,1,0,0,3,3
27948171663,0,2,1,4,4,-1,0,1
27948171663,-4,-8,-3,-4,-6,-3,-4,-4
27948193254,8,5,-1,-3,-5,-1,-2,0
27948193254,-1,3,5,4,1,1,0,-1
27948200958,0,-2,-8,-3,-3,-2,-2,-2
27948200958,-5,-2,2,-6,-5,-3,-1,-2
27948207820,0,18,7,8,3,3,0,-1
27948207820,-2,-22,-7,7,7,3,0,-3
27948216048,2,25,9,1,-1,0,-3,-2
27948216048,-2,-4,-2,0,3,2,1,-1
27948230961,-5,-5,-4,-2,-1,-2,0,-2
27948230961,-3,-17,-3,-3,-1,0,-1,-1
27948231649,-2,3,3,-4,-4,-5,-2,-2
27948231649,1,1,-3,1,1,1,1,0
27948254072,-4,-8,-3,-5,-4,-1,-2,-3
27948254072,-1,2,-3,1,0,0,-1,-3
27948254899,4,12,4,3,1,-1,-2,0
27948254899,-6,-7,-2,-1,-2,-2,-1,-1
27948267816,-5,-6,-1,1,2,-1,-1,-4
27948267816,3,-4,-5,-7,-2,0,0,-1
27948276043,1,-8,-2,2,0,-1,0,-1
27948276043,1,3,2,1,2,1,1,-1
27948290777,-4,-5,-8,-12,-7,-4,-4,-4
27948290777,-3,3,2,3,1,-2,-1,-2
27948298527,1,-7,-2,-2,2,3,2,1
27948298527,-3,7,3,8,0,-1,-1,-2
27948314069,-2,-25,-9,-4,0,-1,-2,0
27948314069,-3,18,5,-9,-8,-5,-3,-4
27948314906,6,23,6,-8,-2,-2,0,1
27948314906,-3,-10,-5,11,6,2,0,-1
27948328295,1,4,1,-2,-1,-2,-1,-2
27948328295,-2,-7,-5,-6,-5,-4,-2,0
27948335978,-7,-20,-8,-3,-4,-2,-2,-4
27948335978,0,4,4,3,2,0,0,1
27948359636,1,5,7,13,9,3,2,1
27948359636,-1,2,-1,-2,-1,-1,-1,0
27948360318,-4,-11,-6,-11,-8,-3,-1,-1
27948360318,0,3,-7,-15,-11,-5,-2,-1
27948374187,-3,-9,-2,-3,-2,0,-1,-1
27948374187,1,11,7,-1,0,0,0,0
27948374950,-1,-9,-2,7,1,0,-1,0
27948374950,-1,-2,0,1,1,0,-1,-2
27948404173,0,5,1,1,0,-1,0,-2
27948404173,-3,-3,-1,0,0,0,-1,-3
27948404914,-2,-5,-2,-3,-4,-2,-2,1
27948404914,-2,-7,-2,-6,-4,-3,-2,-2
27948410917,2,8,4,-1,-3,-4,-3,-1
27948410917,-2,-2,-7,-3,-4,-3,-2,-1
27948411648,0,-2,-3,2,1,1,0,0
27948411648,-4,-5,-2,-4,-3,-2,-2,-3
27948434060,-1,3,4,4,1,-1,0,0
27948434060,0,2,8,2,2,0,0,1
27948434901,-4,-12,-14,-8,-4,-3,-1,-3
27948434901,3,6,3,7,4,1,1,1
27948456965,2,5,5,3,2,2,0,0
27948456965,-2,-4,-5,4,0,-1,-1,-1
27948457748,-4,-2,2,0,2,-2,-2,-3
27948457748,-1,-4,-4,-9,-7,-5,0,-1
27948470904,-1,-6,-6,1,-1,-1,-1,-1
27948470904,-4,-9,-8,-9,-6,-3,-1,-1
27948471600,0,3,5,-2,-2,-1,-1,-1
27948471600,3,2,1,7,5,0,1,0
27948494150,-3,-2,-6,-14,-10,-5,-3,1
27948494150,-1,-3,-1,3,1,3,1,0
27948494927,2,1,3,13,12,6,2,1
27948494927,1,6,-2,-5,-4,-1,-2,0
27948516646,1,-4,-4,0,1,3,2,-2
27948516646,-1,0,-3,-7,-5,-4,-3,-1
27948517328,-3,-6,-8,-15,-10,-4,-2,0
27948517328,2,2,13,31,16,6,3,3
27948530951,-4,1,2,0,-3,-4,-2,-3
27948530951,2,8,6,6,3,-1,0,0
27948531692,-3,-4,0,1,1,1,-2,0
27948531692,-3,-8,-11,-16,-8,-4,-4,-2
27948554244,-3,-7,-9,-6,-5,-3,-3,-4
27948554244,3,4,-3,0,2,0,1,0
27948554946,-3,-2,-5,-5,-6,-3,-1,-2
27948554946,-1,-2,-3,-13,-5,-3,-2,-3
27948576642,2,1,7,19,16,10,4,3
27948576642,1,5,12,20,14,6,2,1
27948577344,-1,-4,-3,0,-2,-1,0,-1
27948577344,-3,-7,-9,-12,-9,-5,-2,-1
27948591662,-3,-3,-9,-18,-12,-6,-2,-2
27948591662,0,-2,-1,-7,-7,-5,-2,0
27948592314,2,1,5,11,8,1,1,0
27948592314,0,3,9,5,2,1,1,-1
27948614177,-1,-4,-5,1,-1,-2,-2,-3
27948614177,-1,1,-6,-9,-5,-3,-2,0
27948614892,-3,-4,1,5,4,1,0,-1
27948614892,-1,1,-5,-9,-7,-2,-2,-1
27948636668,0,5,6,4,1,2,1,-1
27948636668,-3,-7,1,-2,-2,-2,-4,-2
27948638178,-3,-6,-4,-4,-2,0,-1,-1
27948638178,-4,-15,-10,-8,-5,-3,-2,-4
27948650955,4,16,4,7,1,-2,-1,0
27948650955,1,1,7,14,9,4,1,0
27948651619,3,9,0,-4,-3,-2,-3,-1
27948651619,0,0,0,-4,-3,-2,0,-1
27948681647,-2,-5,-1,-4,-2,-2,-2,0
27948681647,-3,-7,-16,-14,-9,-6,-5,-3
27948682438,0,1,2,9,3,1,0,-1
27948682438,0,1,-1,-9,-5,-1,1,0
27948696581,-2,-4,1,4,-1,0,0,0
27948696581,-1,2,5,3,2,0,-1,-2
27948697386,-1,-6,-5,-4,0,0,0,0
27948697386,1,2,1,7,4,2,0,-1
27948710303,-4,-5,1,-1,2,-1,-1,-1
27948710303,1,0,-1,-6,-5,-1,-1,-1
27948719209,-1,0,-3,-8,-7,-6,-2,-2
27948719209,-1,-2,-3,2,-1,-1,1,-2
27948734110,2,3,3,0,2,-1,0,1
27948734110,-2,2,5,5,2,-2,-1,-1
27948735669,1,-1,0,-3,0,0,-2,-2
27948735669,-4,-5,-2,-1,-2,-2,-2,-2
27948756627,-2,-5,-3,-3,-1,-1,-1,-1
27948756627,0,1,0,-1,-2,0,0,0
27948758146,0,1,0,1,1,1,1,1
27948758146,-2,1,1,1,-1,-1,-2,-1
27948770239,0,-3,-3,-2,-2,-1,-1,-2
27948770239,0,0,0,-3,-2,-2,0,0
27948779211,-1,-1,-3,-6,-3,-4,-1,-2
27948779211,-1,-1,-3,-2,1,0,0,-1
27948794189,-2,-1,-2,1,-2,-1,-2,-2
27948794189,-2,0,-5,-7,-1,0,0,-2
27948795677,-2,-4,-5,1,-4,-2,-1,-1
27948795677,0,7,7,10,6,2,0,1
27948816650,-3,-11,7,6,4,0,-1,-1
27948816650,1,2,-15,-10,-7,-4,-3,-2
27948818181,-2,-6,1,1,3,0,-2,-1
27948818181,-2,-3,-15,-15,-9,-6,-3,-1
27948830360,3,6,3,6,1,3,1,2
27948830360,-2,-2,8,2,1,0,-1,0
27948839161,1,2,4,2,0,-3,-2,-2
27948839161,-2,-3,-3,-3,-2,0,-1,-1
27948854058,-1,-4,-10,-13,-8,-5,-3,-2
27948854058,-1,-4,-1,0,1,-1,-1,-1
27948855632,0,-1,-3,-1,1,2,3,-1
27948855632,-1,-2,4,5,2,2,-2,-2
27948876394,-2,-2,-6,-5,-3,-3,-1,0
27948876394,1,2,1,2,1,-1,-1,-1
27948882948,-2,-1,0,-3,-3,-4,-3,0
27948882948,0,-3,-2,-2,-4,-4,-2,-1
27948890298,-2,-2,-2,-1,1,0,-2,-2
27948890298,-1,-3,1,8,4,3,1,-2
27948899206,1,1,0,-1,0,-1,-2,-2
27948899206,-4,-10,-4,-2,-3,-3,-1,-1
27948914162,0,5,-1,-9,-11,-5,-3,-2
27948914162,4,9,15,19,11,4,3,3
27948915654,-4,1,-10,4,5,2,0,-3
27948915654,-4,-6,0,0,0,-3,-1,-2
27948944045,-2,-4,-1,-6,-3,-1,-1,-1
27948944045,-3,-1,-8,-14,-12,-5,-4,-3
27948945629,1,1,14,6,0,0,0,-1
27948945629,3,2,-3,-2,3,2,0,0
27948959152,-3,-9,-3,0,2,-2,0,-1
27948959152,-1,0,1,-3,0,0,0,0
27948960612,0,-1,-4,-2,-3,-3,-1,0
27948960612,-2,-3,-5,-5,-2,-3,-3,-1
27948974146,1,7,2,0,-1,1,-1,-1
27948974146,-2,-2,-2,1,-1,-2,-3,-2
27948975594,-3,-2,-4,-12,-6,-2,-2,-1
27948975594,0,0,7,10,2,-1,-1,-1
27948996700,-1,-2,-7,-5,0,-1,0,0
27948996700,-2,-6,-1,4,2,1,1,-1
27948998170,-4,-20,-4,1,1,1,1,1
27948998170,4,31,10,-5,-3,-1,-1,1
27949010310,0,10,-4,-4,-2,-2,-1,-1
27949010310,-5,-18,-13,-6,-3,-4,-1,-3
27949019193,1,7,18,-1,-3,-1,-2,0
27949019193,-5,-15,-16,-3,-1,0,-1,-2
27949034088,-2,-6,-6,1,1,0,-2,-2
27949034088,-1,-3,-4,-7,-6,-2,-1,-1
27949035653,-1,-9,-3,-2,-2,-4,0,0
27949035653,1,11,-9,-1,-1,-1,0,-1
27949056618,-1,4,7,2,0,1,1,-1
27949056618,-1,-5,-6,-2,0,-1,-1,-1
27949058137,-2,6,6,5,0,0,0,-1
27949058137,-1,-5,4,1,0,0,-1,-1
27949070295,0,-6,-5,-2,1,-2,1,0
27949070295,-2,4,6,0,-1,1,-1,1
27949079215,1,0,-1,-3,-2,-2,-1,-1
27949079215,-2,-6,-16,-8,-6,-3,-1,-2
27949094175,0,-1,11,4,0,-1,-1,0
27949094175,-2,-2,4,5,4,2,0,-2
27949095657,-2,1,-4,-8,-4,-2,-2,-3
27949095657,1,-3,0,-3,-6,-2,-1,0
27949116618,-2,-4,2,5,5,1,-8,-6
27949116618,-1,1,-9,-2,0,-2,3,4
27949118140,-1,1,1,3,0,1,-1,-1
27949118140,2,3,5,-4,-2,-1,0,1
27949130318,-3,-1,-4,-3,-7,-3,-2,-2
27949130318,-1,4,5,2,0,-3,-3,-5
27949139152,-2,-6,-19,-7,-3,-3,0,-3
27949139152,-1,1,14,4,0,-1,0,0
27949154093,-4,-7,1,-1,-1,0,0,1
27949154093,3,8,-2,-2,-2,-1,-5,-4
27949155792,0,4,-1,-1,-1,0,3,6
27949155792,1,0,6,3,0,-2,-1,4
27949176680,-4,-4,-1,-2,0,-1,0,-4
27949176680,-1,-10,-15,-4,-1,2,1,-1
27949178159,-1,7,7,-4,-4,-3,-2,-3
27949178159,-1,-3,-1,3,5,3,-2,-2
27949190350,0,-1,-13,-15,-8,-8,-2,1
27949190350,1,2,8,10,4,4,2,1
27949199180,1,0,2,5,2,2,-3,0
27949199180,-2,-2,2,1,-2,0,0,-1
27949213503,-1,0,-9,-6,-1,-2,0,0
27949213503,-4,-5,-1,-15,-11,-7,-3,-2
27949220321,1,2,2,7,4,1,-1,1
27949220321,-1,-5,4,3,1,1,1,-1
