29979624702,-0.313049316406,-0.0291748046875,-0.187805175781,0.930541992188
29979648344,-0.312561035156,-0.0289916992188,-0.18798828125,0.9306640625
29979669542,-0.312133789062,-0.028076171875,-0.188293457031,0.930786132812
29979684671,-0.313842773438,-0.0247192382812,-0.1875,0.930419921875
29979708387,-0.315734863281,-0.0220947265625,-0.186706542969,0.930053710938
29979729747,-0.314025878906,-0.0270385742188,-0.188598632812,0.930053710938
29979744651,-0.310180664062,-0.033447265625,-0.191223144531,0.9306640625
29979768407,-0.309265136719,-0.0311889648438,-0.19091796875,0.931091308594
29979822344,-0.311889648438,-0.0242309570312,-0.188537597656,0.930908203125
29979822984,-0.312194824219,-0.0242919921875,-0.188537597656,0.930786132812
29979830373,-0.311401367188,-0.026123046875,-0.189208984375,0.930847167969
29979850328,-0.310852050781,-0.0267944335938,-0.189453125,0.930969238281
29979865400,-0.311157226562,-0.023681640625,-0.189147949219,0.931030273438
29979888400,-0.311218261719,-0.0238037109375,-0.189208984375,0.930969238281
29979931851,-0.310852050781,-0.0239868164062,-0.189331054688,0.931091308594
29979949574,-0.310241699219,-0.0243530273438,-0.189514160156,0.931213378906
29979956463,-0.309875488281,-0.0245361328125,-0.189697265625,0.931335449219
29979963347,-0.3095703125,-0.0221557617188,-0.189453125,0.931518554688
29979985825,-0.311584472656,-0.0144653320312,-0.18701171875,0.931518554688
29980015143,-0.311767578125,-0.0133666992188,-0.186645507812,0.931518554688
29980031476,-0.314575195312,-0.00604248046875,-0.184143066406,0.93115234375
29980053983,-0.31640625,-0.004150390625,-0.183471679688,0.9306640625
29980076447,-0.313659667969,-0.011474609375,-0.186279296875,0.931030273438
29980091517,-0.31005859375,-0.015869140625,-0.188049316406,0.931762695312
29980113993,-0.311157226562,-0.00994873046875,-0.18603515625,0.931884765625
29980136460,-0.314086914062,-0.00482177734375,-0.184143066406,0.931335449219
29980151479,-0.313049316406,-0.0100708007812,-0.185913085938,0.931274414062
29980173991,-0.312683105469,-0.01171875,-0.186340332031,0.931335449219
29980196470,-0.312438964844,-0.0126953125,-0.186401367188,0.931396484375
29980210846,-0.311828613281,-0.0123901367188,-0.186401367188,0.931579589844
29980234002,-0.310974121094,-0.0117797851562,-0.186157226562,0.931945800781
29980256460,-0.309997558594,-0.0106201171875,-0.185668945312,0.932373046875
29980270800,-0.30908203125,-0.009033203125,-0.184875488281,0.932861328125
29980300253,-0.308044433594,-0.00775146484375,-0.1845703125,0.933227539062
29980316489,-0.306701660156,-0.00634765625,-0.184448242188,0.933715820312
29980330828,-0.30517578125,-0.00494384765625,-0.18408203125,0.934326171875
29980354012,-0.3037109375,-0.00390625,-0.183898925781,0.934814453125
29980376448,-0.303161621094,-0.0030517578125,-0.183959960938,0.934997558594
29980390805,-0.304016113281,-0.0025634765625,-0.184143066406,0.934692382812
29980413995,-0.305236816406,-0.00250244140625,-0.1845703125,0.934204101562
29980436488,-0.305419921875,-0.00250244140625,-0.184875488281,0.93408203125
29980450797,-0.304260253906,-0.0025634765625,-0.185241699219,0.934387207031
29980473945,-0.302551269531,-0.00244140625,-0.185668945312,0.934875488281
29980496470,-0.301147460938,-0.002197265625,-0.186096191406,0.935241699219
29980510821,-0.299987792969,-0.00189208984375,-0.186584472656,0.935485839844
29980533977,-0.298950195312,-0.00140380859375,-0.187133789062,0.935729980469
29980556496,-0.2978515625,-0.00054931640625,-0.187561035156,0.935974121094
29980578936,-0.297241210938,0.0006103515625,-0.187927246094,0.936096191406
29980593916,-0.297180175781,0.00189208984375,-0.187805175781,0.936157226562
29980607045,-0.298278808594,0.0028076171875,-0.187683105469,0.935852050781
29980621928,-0.300048828125,0.00482177734375,-0.187072753906,0.935363769531
29980644480,-0.302490234375,0.00823974609375,-0.185913085938,0.934814453125
29980667064,-0.305603027344,0.0125732421875,-0.184631347656,0.933959960938
29980681928,-0.310363769531,0.0172119140625,-0.183349609375,0.9326171875
29980704506,-0.316162109375,0.0225830078125,-0.181823730469,0.930847167969
29980726943,-0.322204589844,0.0289916992188,-0.1796875,0.929016113281
29980742078,-0.328552246094,0.0361328125,-0.177062988281,0.927001953125
29980764504,-0.334228515625,0.04345703125,-0.174621582031,0.925109863281
29980786888,-0.339050292969,0.0512084960938,-0.171936035156,0.923522949219
29980801984,-0.343444824219,0.05908203125,-0.168762207031,0.921997070312
29980824480,-0.348571777344,0.0670776367188,-0.165161132812,0.920166015625
29980846979,-0.353820800781,0.0753173828125,-0.161193847656,0.918212890625
29980861892,-0.359069824219,0.0833129882812,-0.157104492188,0.916198730469
29980884471,-0.363830566406,0.0910034179688,-0.153503417969,0.914184570312
29980906973,-0.368896484375,0.0979614257812,-0.149719238281,0.912048339844
29980923337,-0.375183105469,0.105407714844,-0.145202636719,0.909362792969
29980944478,-0.381469726562,0.113098144531,-0.140319824219,0.906616210938
29980966906,-0.386413574219,0.121154785156,-0.135009765625,0.904296875
29980981993,-0.390625,0.12939453125,-0.130187988281,0.902038574219
29981004404,-0.394409179688,0.137634277344,-0.125366210938,0.899841308594
29981027050,-0.396911621094,0.145629882812,-0.120300292969,0.898193359375
29981042107,-0.397033691406,0.15283203125,-0.116577148438,0.8974609375
29981064484,-0.396606445312,0.160339355469,-0.112609863281,0.896789550781
29981086826,-0.397277832031,0.168151855469,-0.107421875,0.895690917969
29981101968,-0.39990234375,0.176513671875,-0.100769042969,0.893737792969
29981124459,-0.403015136719,0.18505859375,-0.09375,0.891357421875
29981147073,-0.405334472656,0.193725585938,-0.0868530273438,0.88916015625
29981163296,-0.406921386719,0.202453613281,-0.0800170898438,0.887145996094
29981184454,-0.407592773438,0.211059570312,-0.0733032226562,0.885375976562
29981207044,-0.407775878906,0.2197265625,-0.0660400390625,0.8837890625
29981223340,-0.407165527344,0.227844238281,-0.0584106445312,0.882507324219
29981244447,-0.406921386719,0.235412597656,-0.0504150390625,0.881164550781
29981267018,-0.407165527344,0.242492675781,-0.0418090820312,0.879516601562
29981283292,-0.407409667969,0.249267578125,-0.0325317382812,0.8779296875
29981304420,-0.407348632812,0.255432128906,-0.02294921875,0.876525878906
29981326989,-0.40625,0.261291503906,-0.0131225585938,0.87548828125
29981343307,-0.405090332031,0.265441894531,-0.004638671875,0.874877929688
29981364505,-0.4033203125,0.270202636719,0.00360107421875,0.874206542969
29981386963,-0.402282714844,0.27490234375,0.0122680664062,0.873168945312
29981403274,-0.401916503906,0.279296875,0.0210571289062,0.871765136719
29981424492,-0.401977539062,0.283386230469,0.0298461914062,0.870178222656
29981447010,-0.401550292969,0.287414550781,0.0380859375,0.868713378906
29981464760,-0.400146484375,0.291442871094,0.0457763671875,0.867614746094
29981484441,-0.398254394531,0.295654296875,0.0526123046875,0.86669921875
29981506987,-0.396362304688,0.299743652344,0.0591430664062,0.86572265625
29981524772,-0.395080566406,0.303649902344,0.0659790039062,0.864440917969
29981544471,-0.393798828125,0.307373046875,0.072998046875,0.863159179688
29981567003,-0.392944335938,0.310607910156,0.0799560546875,0.861755371094
29981584741,-0.392456054688,0.313415527344,0.0866088867188,0.8603515625
29981604446,-0.391723632812,0.316101074219,0.0928955078125,0.859008789062
29981626946,-0.391052246094,0.318603515625,0.0987548828125,0.857788085938
29981644748,-0.390502929688,0.3212890625,0.104248046875,0.856384277344
29981664477,-0.389953613281,0.32373046875,0.108825683594,0.855102539062
29981688338,-0.3896484375,0.326354980469,0.112915039062,0.853698730469
29981704780,-0.389465332031,0.328674316406,0.117065429688,0.852355957031
29981724413,-0.389831542969,0.330749511719,0.120971679688,0.850891113281
29981747066,-0.390380859375,0.332580566406,0.124572753906,0.849365234375
29981764735,-0.390808105469,0.334289550781,0.128112792969,0.847961425781
29981784440,-0.390869140625,0.335876464844,0.131530761719,0.846801757812
29981807018,-0.390930175781,0.337097167969,0.134887695312,0.845764160156
29981824801,-0.391235351562,0.338073730469,0.138305664062,0.844665527344
29981844472,-0.391418457031,0.338806152344,0.141540527344,0.84375
29981862274,-0.391540527344,0.339172363281,0.144714355469,0.843017578125
29981886217,-0.391906738281,0.33935546875,0.148010253906,0.842224121094
29981904424,-0.391967773438,0.339294433594,0.151306152344,0.841613769531
29981929778,-0.392028808594,0.339172363281,0.154235839844,0.841125488281
29981944782,-0.392822265625,0.338928222656,0.157470703125,0.840209960938
29981964432,-0.394226074219,0.338623046875,0.161010742188,0.839050292969
29981982215,-0.394470214844,0.33837890625,0.163757324219,0.838439941406
29982004746,-0.394592285156,0.338195800781,0.165954589844,0.838073730469
29982024410,-0.394958496094,0.337768554688,0.16845703125,0.837585449219
29982042239,-0.395690917969,0.337036132812,0.170959472656,0.836975097656
29982064758,-0.396728515625,0.335998535156,0.173095703125,0.836486816406
29982084313,-0.397705078125,0.335021972656,0.175170898438,0.8359375
29982102267,-0.39892578125,0.334106445312,0.177307128906,0.835327148438
29982124742,-0.399719238281,0.333312988281,0.179321289062,0.834838867188
29982145802,-0.399841308594,0.332702636719,0.181030273438,0.834655761719
29982169779,-0.399597167969,0.332214355469,0.182373046875,0.834655761719
29982184737,-0.39990234375,0.331787109375,0.183410644531,0.83447265625
29982205073,-0.400268554688,0.331604003906,0.184020996094,0.834228515625
29982221486,-0.401062011719,0.331298828125,0.183776855469,0.833984375
29982243946,-0.402282714844,0.330993652344,0.183166503906,0.833679199219
29982265074,-0.403686523438,0.330810546875,0.182434082031,0.833251953125
29982281425,-0.404663085938,0.330932617188,0.181701660156,0.832885742188
29982303942,-0.405212402344,0.331237792969,0.181213378906,0.832580566406
29982325070,-0.405151367188,0.331604003906,0.181091308594,0.832458496094
29982341447,-0.405151367188,0.331665039062,0.18115234375,0.832458496094
29982363994,-0.405700683594,0.331848144531,0.181213378906,0.832092285156
29982385104,-0.407104492188,0.33154296875,0.181518554688,0.831481933594
29982401439,-0.408203125,0.331237792969,0.181823730469,0.830993652344
29982423926,-0.408203125,0.331298828125,0.182250976562,0.830871582031
29982446516,-0.408447265625,0.330993652344,0.182800292969,0.830749511719
29982461444,-0.409301757812,0.330139160156,0.183532714844,0.830505371094
29982483970,-0.410400390625,0.329162597656,0.184753417969,0.830078125
29982506448,-0.411254882812,0.328308105469,0.185180664062,0.829895019531
29982521417,-0.411682128906,0.327697753906,0.184753417969,0.830017089844
29982543968,-0.412109375,0.327209472656,0.184448242188,0.830078125
29982566432,-0.412475585938,0.326599121094,0.184631347656,0.830078125
29982581415,-0.412963867188,0.326110839844,0.185180664062,0.829956054688
29982603923,-0.413024902344,0.325866699219,0.185546875,0.829895019531
29982626424,-0.412353515625,0.325622558594,0.185607910156,0.830322265625
29982640753,-0.412353515625,0.325500488281,0.185791015625,0.830322265625
29982664595,-0.413269042969,0.3251953125,0.186157226562,0.829895019531
29982686448,-0.413391113281,0.325073242188,0.185913085938,0.829956054688
29982700769,-0.413391113281,0.3251953125,0.185485839844,0.830017089844
29982723922,-0.413940429688,0.325134277344,0.185424804688,0.829772949219
29982746443,-0.414428710938,0.325256347656,0.18505859375,0.829528808594
29982760737,-0.414306640625,0.325439453125,0.1845703125,0.829650878906
29982783979,-0.414184570312,0.325439453125,0.184143066406,0.829833984375
29982806476,-0.415100097656,0.324890136719,0.184020996094,0.82958984375
29982827646,-0.416259765625,0.324096679688,0.183898925781,0.829345703125
29982843963,-0.416320800781,0.32373046875,0.183471679688,0.829528808594
29982866422,-0.416259765625,0.323425292969,0.183227539062,0.829772949219
29982880794,-0.417114257812,0.322814941406,0.183410644531,0.829528808594
29982903951,-0.417724609375,0.322265625,0.183471679688,0.829406738281
29982926413,-0.418151855469,0.321899414062,0.183227539062,0.829406738281
29982940770,-0.418151855469,0.321838378906,0.183227539062,0.829406738281
29982963968,-0.418212890625,0.321899414062,0.183166503906,0.829345703125
29982986446,-0.418823242188,0.321716308594,0.183227539062,0.8291015625
29983007609,-0.419006347656,0.32177734375,0.183288574219,0.828979492188
29983023921,-0.419128417969,0.322021484375,0.183471679688,0.828796386719
29983046506,-0.418701171875,0.322326660156,0.183227539062,0.828918457031
29983067616,-0.41845703125,0.322570800781,0.182922363281,0.829040527344
29983083926,-0.41845703125,0.32275390625,0.18310546875,0.828918457031
29983106494,-0.418395996094,0.322998046875,0.183166503906,0.828857421875
29983127721,-0.418701171875,0.323364257812,0.183044433594,0.82861328125
29983143948,-0.418823242188,0.323486328125,0.18310546875,0.828491210938
29983166417,-0.418640136719,0.323791503906,0.182739257812,0.828491210938
29983187638,-0.417907714844,0.324279785156,0.182067871094,0.828857421875
29983203956,-0.418090820312,0.324523925781,0.181518554688,0.828796386719
29983226433,-0.418151855469,0.324340820312,0.181274414062,0.828857421875
29983247579,-0.418395996094,0.324279785156,0.180603027344,0.828918457031
29983263962,-0.418029785156,0.32470703125,0.179748535156,0.829162597656
29983286476,-0.417724609375,0.325561523438,0.179016113281,0.8291015625
29983307588,-0.416198730469,0.325927734375,0.17724609375,0.830078125
29983324736,-0.414367675781,0.325866699219,0.175109863281,0.831481933594
29983346421,-0.412963867188,0.325744628906,0.173217773438,0.832641601562
29983367646,-0.411560058594,0.325622558594,0.170532226562,0.833923339844
29983383288,-0.408264160156,0.32568359375,0.166259765625,0.836364746094
29983406440,-0.404174804688,0.325439453125,0.160217285156,0.839660644531
29983428916,-0.402526855469,0.324096679688,0.153991699219,0.842102050781
29983443263,-0.403381347656,0.322143554688,0.147705078125,0.843566894531
29983466454,-0.402221679688,0.320617675781,0.140258789062,0.846008300781
29983488896,-0.399658203125,0.3193359375,0.131225585938,0.84912109375
29983503257,-0.397155761719,0.31787109375,0.121398925781,0.852294921875
29983526391,-0.395935058594,0.3154296875,0.111267089844,0.855163574219
29983548948,-0.392456054688,0.312561035156,0.099853515625,0.859252929688
29983563272,-0.385375976562,0.308898925781,0.0872802734375,0.865112304688
29983586420,-0.377319335938,0.303955078125,0.0733642578125,0.871643066406
29983608940,-0.369262695312,0.296569824219,0.0576782226562,0.878784179688
29983623270,-0.360290527344,0.285400390625,0.039306640625,0.88720703125
29983646424,-0.348876953125,0.271362304688,0.0201416015625,0.896789550781
29983668918,-0.334899902344,0.255432128906,0.0003662109375,0.906982421875
29983690120,-0.320434570312,0.23876953125,-0.020263671875,0.916442871094
29983706520,-0.306579589844,0.221801757812,-0.0413818359375,0.924682617188
29983728939,-0.296142578125,0.205200195312,-0.0612182617188,0.930786132812
29983750094,-0.290161132812,0.18896484375,-0.0779418945312,0.934875488281
29983766417,-0.289306640625,0.172973632812,-0.09130859375,0.93701171875
29983788955,-0.293579101562,0.157348632812,-0.103393554688,0.937194824219
29983810082,-0.298034667969,0.142272949219,-0.114990234375,0.936828613281
29983826400,-0.300415039062,0.128601074219,-0.125854492188,0.936645507812
29983848946,-0.300537109375,0.115417480469,-0.13671875,0.936828613281
29983870074,-0.299865722656,0.102905273438,-0.148193359375,0.936767578125
29983886400,-0.297729492188,0.091552734375,-0.158081054688,0.93701171875
29983908928,-0.295166015625,0.0810546875,-0.165893554688,0.937377929688
29983929984,-0.294677734375,0.0715942382812,-0.173034667969,0.937072753906
29983946424,-0.296508789062,0.0632934570312,-0.179016113281,0.935974121094
29983968928,-0.297607421875,0.0562133789062,-0.183349609375,0.935241699219
29983990135,-0.297912597656,0.0497436523438,-0.186889648438,0.934814453125
29984006444,-0.297973632812,0.0435791015625,-0.190124511719,0.934448242188
29984028919,-0.297790527344,0.0377197265625,-0.19287109375,0.934143066406
29984050046,-0.296875,0.0322875976562,-0.195434570312,0.934143066406
29984066397,-0.294860839844,0.0270385742188,-0.19775390625,0.934448242188
29984088925,-0.293640136719,0.0230102539062,-0.198974609375,0.934692382812
29984110079,-0.292602539062,0.0191040039062,-0.199645996094,0.934936523438
29984126421,-0.290832519531,0.0152587890625,-0.200561523438,0.935363769531
29984148950,-0.288940429688,0.0123291015625,-0.201171875,0.935852050781
29984170148,-0.287536621094,0.00994873046875,-0.201416015625,0.936279296875
29984186419,-0.286926269531,0.0078125,-0.20166015625,0.936462402344
29984208917,-0.286865234375,0.005859375,-0.202392578125,0.936340332031
29984229936,-0.286926269531,0.0037841796875,-0.203063964844,0.936157226562
29984246381,-0.286804199219,0.0015869140625,-0.203735351562,0.936096191406
29984268896,-0.286926269531,-0.00067138671875,-0.204833984375,0.935791015625
29984290094,-0.286560058594,-0.0030517578125,-0.206115722656,0.935607910156
29984306381,-0.28515625,-0.00543212890625,-0.207275390625,0.935729980469
29984328953,-0.283386230469,-0.008056640625,-0.208557128906,0.93603515625
29984351418,-0.281921386719,-0.0107421875,-0.209777832031,0.936157226562
29984365732,-0.280090332031,-0.0130004882812,-0.210510253906,0.9365234375
29984389207,-0.27880859375,-0.0145874023438,-0.21044921875,0.936889648438
29984411497,-0.277465820312,-0.0166015625,-0.210205078125,0.937316894531
29984425819,-0.275329589844,-0.019775390625,-0.2109375,0.937683105469
