28083138269,-0.118286132812,0.102966308594,-0.963623046875,0.216491699219
28083153193,-0.118347167969,0.102966308594,-0.963623046875,0.216491699219
28083176972,-0.122192382812,0.102416992188,-0.963256835938,0.216369628906
28083198198,-0.123291015625,0.102661132812,-0.963012695312,0.216491699219
28083214490,-0.125305175781,0.102111816406,-0.962829589844,0.216369628906
28083236992,-0.12060546875,0.106262207031,-0.962768554688,0.217407226562
28083258332,-0.115173339844,0.110229492188,-0.962768554688,0.218444824219
28083273276,-0.118591308594,0.107971191406,-0.962768554688,0.217712402344
28083281895,-0.124389648438,0.10498046875,-0.962646484375,0.216613769531
28083325738,-0.12109375,0.107666015625,-0.962585449219,0.217346191406
28083336465,-0.115051269531,0.1103515625,-0.962768554688,0.218505859375
28083342228,-0.11572265625,0.109558105469,-0.962829589844,0.218322753906
28083365283,-0.111938476562,0.111633300781,-0.962951660156,0.218505859375
28083387747,-0.111511230469,0.111694335938,-0.963073730469,0.21826171875
28083420303,-0.111572265625,0.111633300781,-0.963073730469,0.21826171875
28083424561,-0.111572265625,0.111633300781,-0.963073730469,0.21826171875
28083476244,-0.111633300781,0.111572265625,-0.963073730469,0.218200683594
28083476939,-0.110717773438,0.111145019531,-0.963195800781,0.218383789062
28083494694,-0.106628417969,0.115173339844,-0.963073730469,0.218994140625
28083514442,-0.110229492188,0.11376953125,-0.962951660156,0.218383789062
28083520571,-0.108154296875,0.115600585938,-0.962829589844,0.218872070312
28083542943,-0.1015625,0.119140625,-0.962829589844,0.22021484375
28083566931,-0.101684570312,0.117248535156,-0.963073730469,0.220153808594
28083588081,-0.108215332031,0.112609863281,-0.963195800781,0.218872070312
28083603079,-0.108215332031,0.11376953125,-0.963012695312,0.218994140625
28083625641,-0.101623535156,0.1181640625,-0.962890625,0.220397949219
28083643350,-0.101928710938,0.116638183594,-0.963073730469,0.220397949219
28083665901,-0.103271484375,0.113952636719,-0.963317871094,0.219909667969
28083694223,-0.103637695312,0.114624023438,-0.963256835938,0.219848632812
28083700398,-0.10302734375,0.115783691406,-0.963195800781,0.2197265625
28083723099,-0.102294921875,0.11767578125,-0.963012695312,0.219787597656
28083745532,-0.100646972656,0.119812011719,-0.962890625,0.220031738281
28083768047,-0.0983276367188,0.121948242188,-0.962707519531,0.220581054688
28083790518,-0.095947265625,0.123901367188,-0.962585449219,0.221252441406
28083805607,-0.0943603515625,0.126098632812,-0.962280273438,0.221801757812
28083823378,-0.0936279296875,0.128723144531,-0.961975097656,0.222045898438
28083843078,-0.0926513671875,0.131774902344,-0.961608886719,0.222229003906
28083868343,-0.0908813476562,0.134521484375,-0.961303710938,0.222595214844
28083880511,-0.0887451171875,0.137329101562,-0.961059570312,0.222900390625
28083902985,-0.0863037109375,0.140075683594,-0.960754394531,0.223388671875
28083925488,-0.0831909179688,0.143493652344,-0.960510253906,0.2236328125
28083943362,-0.079345703125,0.147155761719,-0.960266113281,0.223571777344
28083970494,-0.0748901367188,0.151733398438,-0.9599609375,0.223449707031
28083994325,-0.0701904296875,0.157287597656,-0.95947265625,0.223205566406
28084000423,-0.065185546875,0.163513183594,-0.958862304688,0.222839355469
28084025928,-0.0601806640625,0.170166015625,-0.9580078125,0.222839355469
28084048416,-0.055908203125,0.17578125,-0.957214355469,0.223083496094
28084060529,-0.0515747070312,0.179870605469,-0.956726074219,0.222961425781
28084083019,-0.0469360351562,0.183471679688,-0.956359863281,0.22265625
28084105528,-0.042724609375,0.186889648438,-0.955810546875,0.222961425781
28084123350,-0.0390014648438,0.191101074219,-0.955078125,0.223266601562
28084143051,-0.0352172851562,0.196411132812,-0.954040527344,0.223754882812
28084165394,-0.0313720703125,0.202758789062,-0.95263671875,0.224548339844
28084196694,-0.0270385742188,0.208923339844,-0.951110839844,0.225952148438
28084202899,-0.0227661132812,0.215454101562,-0.949401855469,0.2275390625
28084225502,-0.0189208984375,0.221618652344,-0.947631835938,0.229125976562
28084240437,-0.013671875,0.226318359375,-0.9462890625,0.230529785156
28084262929,-0.00836181640625,0.230529785156,-0.945007324219,0.231811523438
28084285633,-0.0035400390625,0.2353515625,-0.943481445312,0.233459472656
28084303360,0.00311279296875,0.240417480469,-0.94140625,0.236450195312
28084325876,0.0108032226562,0.243957519531,-0.939575195312,0.239990234375
28084353620,0.0189819335938,0.24609375,-0.938110351562,0.242980957031
28084376939,0.02783203125,0.247009277344,-0.936767578125,0.246337890625
28084399402,0.0384521484375,0.247131347656,-0.935302734375,0.250366210938
28084405459,0.0496826171875,0.247192382812,-0.933471679688,0.255004882812
28084423300,0.0615234375,0.24755859375,-0.931396484375,0.259765625
28084453301,0.07421875,0.247619628906,-0.929138183594,0.264343261719
28084475039,0.08740234375,0.247497558594,-0.926635742188,0.269165039062
28084482548,0.100646972656,0.24755859375,-0.923706054688,0.274597167969
28084505073,0.113830566406,0.247253417969,-0.92041015625,0.280639648438
28084527553,0.127319335938,0.245910644531,-0.917053222656,0.287048339844
28084550010,0.140747070312,0.243103027344,-0.913879394531,0.293090820312
28084580705,0.154174804688,0.238952636719,-0.910888671875,0.299072265625
28084586109,0.167785644531,0.234497070312,-0.907592773438,0.305297851562
28084602526,0.181518554688,0.229064941406,-0.904235839844,0.311340332031
28084625072,0.195190429688,0.223388671875,-0.900756835938,0.317260742188
28084654982,0.208190917969,0.218322753906,-0.897033691406,0.322937011719
28084662472,0.221008300781,0.213073730469,-0.893249511719,0.328491210938
28084685010,0.233337402344,0.208068847656,-0.88916015625,0.334045410156
28084706065,0.245422363281,0.203308105469,-0.884948730469,0.339477539062
28084730488,0.257202148438,0.198791503906,-0.880615234375,0.3447265625
28084752520,0.268371582031,0.195373535156,-0.876159667969,0.349487304688
28084783209,0.278259277344,0.192260742188,-0.871887207031,0.354187011719
28084785493,0.286804199219,0.189453125,-0.867858886719,0.358703613281
28084805126,0.295349121094,0.185363769531,-0.8642578125,0.362609863281
28084835055,0.304931640625,0.1796875,-0.860778808594,0.36572265625
28084865650,0.314575195312,0.174255371094,-0.857116699219,0.368774414062
28084867980,0.3232421875,0.169921875,-0.853149414062,0.372497558594
28084886854,0.330993652344,0.166809082031,-0.848999023438,0.376525878906
28084909980,0.338073730469,0.163818359375,-0.845031738281,0.380493164062
28084933005,0.344360351562,0.160949707031,-0.841247558594,0.384521484375
28084953706,0.350036621094,0.158386230469,-0.837524414062,0.388488769531
28084962522,0.355773925781,0.155151367188,-0.834167480469,0.391845703125
28084985458,0.361755371094,0.150573730469,-0.831115722656,0.394592285156
28085007997,0.366760253906,0.146240234375,-0.828430175781,0.397216796875
28085022512,0.370788574219,0.142578125,-0.825988769531,0.399963378906
28085045044,0.374328613281,0.138366699219,-0.823791503906,0.402587890625
28085073592,0.37744140625,0.134399414062,-0.821960449219,0.404724121094
28085081950,0.380249023438,0.130493164062,-0.820495605469,0.406372070312
28085105029,0.382751464844,0.126892089844,-0.819458007812,0.407287597656
28085135022,0.385314941406,0.122863769531,-0.818359375,0.408264160156
28085148731,0.387756347656,0.119506835938,-0.817199707031,0.409362792969
28085165045,0.390197753906,0.116577148438,-0.815979003906,0.410217285156
28085187465,0.392333984375,0.113830566406,-0.814758300781,0.411376953125
28085210000,0.394592285156,0.110656738281,-0.8134765625,0.41259765625
28085225030,0.39697265625,0.107666015625,-0.812194824219,0.413757324219
28085247303,0.399108886719,0.104919433594,-0.810913085938,0.414916992188
28085263341,0.401000976562,0.102416992188,-0.809692382812,0.416015625
28085286468,0.402770996094,0.100219726562,-0.808471679688,0.417175292969
28085307543,0.404235839844,0.098388671875,-0.807434082031,0.418334960938
28085337540,0.405700683594,0.0968017578125,-0.806396484375,0.419250488281
28085359977,0.407104492188,0.0955810546875,-0.805480957031,0.419860839844
28085367535,0.408386230469,0.0952758789062,-0.804504394531,0.420593261719
28085381953,0.409484863281,0.0949096679688,-0.8037109375,0.421142578125
28085412540,0.410400390625,0.0946655273438,-0.802917480469,0.421813964844
28085427999,0.411376953125,0.0943603515625,-0.802185058594,0.422302246094
28085441918,0.412231445312,0.0939331054688,-0.801696777344,0.422546386719
28085467942,0.412658691406,0.0940551757812,-0.801208496094,0.422973632812
28085487972,0.412658691406,0.0946655273438,-0.800964355469,0.42333984375
28085510551,0.412414550781,0.095458984375,-0.800903320312,0.423522949219
28085540011,0.411804199219,0.0967407226562,-0.800964355469,0.423706054688
28085562558,0.410888671875,0.0986938476562,-0.801025390625,0.424072265625
28085564966,0.409729003906,0.100219726562,-0.801147460938,0.424438476562
28085585017,0.408874511719,0.101196289062,-0.801330566406,0.424743652344
28085607946,0.408203125,0.101379394531,-0.801696777344,0.424682617188
28085637493,0.407287597656,0.101928710938,-0.802062988281,0.424743652344
28085645641,0.405334472656,0.103515625,-0.802368164062,0.425659179688
28085667530,0.403137207031,0.104675292969,-0.802551269531,0.427124023438
28085689998,0.400939941406,0.105041503906,-0.803100585938,0.428100585938
28085712943,0.399475097656,0.104614257812,-0.803588867188,0.428588867188
28085727916,0.397521972656,0.10546875,-0.804077148438,0.429321289062
28085765648,0.394958496094,0.106994628906,-0.804565429688,0.430358886719
28085768002,0.393127441406,0.107666015625,-0.804870605469,0.431335449219
28085787447,0.391479492188,0.107666015625,-0.805297851562,0.432067871094
28085808670,0.390319824219,0.107482910156,-0.805480957031,0.432739257812
28085838675,0.389099121094,0.108215332031,-0.805603027344,0.433471679688
28085847505,0.387634277344,0.109497070312,-0.805603027344,0.434387207031
28085868714,0.386291503906,0.1103515625,-0.805847167969,0.434997558594
28085892502,0.385070800781,0.11181640625,-0.806091308594,0.435241699219
28085915448,0.38427734375,0.113037109375,-0.80615234375,0.435546875
28085936879,0.383117675781,0.114562988281,-0.80615234375,0.436157226562
28085945016,0.381774902344,0.115966796875,-0.80615234375,0.436889648438
28085967943,0.380554199219,0.117126464844,-0.80615234375,0.437683105469
28085988710,0.379760742188,0.117797851562,-0.806030273438,0.4384765625
28086012494,0.37890625,0.118347167969,-0.806030273438,0.43896484375
28086043164,0.378112792969,0.118957519531,-0.806091308594,0.439392089844
28086048669,0.377380371094,0.119384765625,-0.806091308594,0.439880371094
28086064993,0.376586914062,0.1201171875,-0.80615234375,0.440246582031
28086087547,0.375915527344,0.120666503906,-0.806335449219,0.4404296875
28086116125,0.375244140625,0.121154785156,-0.806518554688,0.440490722656
28086140644,0.374267578125,0.121765136719,-0.806884765625,0.440490722656
28086147456,0.373291015625,0.122192382812,-0.807189941406,0.440673828125
28086170014,0.372497558594,0.1220703125,-0.807556152344,0.440612792969
28086184745,0.3720703125,0.121704101562,-0.80810546875,0.440124511719
28086215022,0.371765136719,0.121826171875,-0.808471679688,0.439758300781
28086246348,0.370910644531,0.122985839844,-0.808715820312,0.439636230469
28086251119,0.3701171875,0.124145507812,-0.808898925781,0.439636230469
28086267486,0.36962890625,0.124877929688,-0.80908203125,0.439453125
28086290018,0.369384765625,0.125305175781,-0.809020996094,0.439758300781
28086304341,0.369018554688,0.125854492188,-0.809020996094,0.439880371094
28086327492,0.368896484375,0.125915527344,-0.809143066406,0.439697265625
28086350007,0.368774414062,0.125793457031,-0.809326171875,0.439514160156
28086372484,0.368408203125,0.126220703125,-0.809509277344,0.439331054688
28086395023,0.367309570312,0.12744140625,-0.809875488281,0.439208984375
28086409772,0.366333007812,0.128295898438,-0.810302734375,0.439025878906
28086424368,0.365600585938,0.128295898438,-0.810791015625,0.438781738281
28086447981,0.365234375,0.128051757812,-0.811218261719,0.438293457031
28086469966,0.364501953125,0.128234863281,-0.811767578125,0.437866210938
28086492525,0.36376953125,0.128845214844,-0.812255859375,0.437438964844
28086522518,0.363037109375,0.129699707031,-0.812744140625,0.436828613281
28086529974,0.362365722656,0.130493164062,-0.813354492188,0.435974121094
28086544373,0.361999511719,0.131042480469,-0.81396484375,0.434936523438
28086567520,0.361450195312,0.131958007812,-0.814758300781,0.433715820312
28086589874,0.360412597656,0.1328125,-0.815734863281,0.432495117188
28086604351,0.359497070312,0.13330078125,-0.816772460938,0.43115234375
28086627497,0.358459472656,0.1337890625,-0.81787109375,0.429748535156
28086650016,0.357360839844,0.134460449219,-0.818908691406,0.428527832031
28086671012,0.356567382812,0.134582519531,-0.819946289062,0.427062988281
28086694990,0.355773925781,0.134460449219,-0.821166992188,0.425415039062
28086725693,0.354614257812,0.134216308594,-0.822570800781,0.423828125
28086731187,0.352600097656,0.134826660156,-0.824035644531,0.422424316406
28086747953,0.349487304688,0.137329101562,-0.825439453125,0.421447753906
28086776177,0.345397949219,0.140380859375,-0.827026367188,0.420776367188
28086799968,0.341064453125,0.142517089844,-0.828674316406,0.420288085938
28086807495,0.337219238281,0.143188476562,-0.830261230469,0.420104980469
28086830024,0.333618164062,0.142822265625,-0.831665039062,0.420227050781
28086851205,0.330505371094,0.141662597656,-0.833190917969,0.420104980469
28086866941,0.327880859375,0.140197753906,-0.834411621094,0.420227050781
28086897470,0.324584960938,0.139953613281,-0.835693359375,0.420288085938
28086911090,0.320922851562,0.140075683594,-0.836730957031,0.421081542969
28086927526,0.317626953125,0.140075683594,-0.837646484375,0.421691894531
28086950466,0.314331054688,0.139831542969,-0.838684082031,0.422241210938
28086972477,0.310974121094,0.139587402344,-0.83984375,0.42236328125
28086996091,0.3076171875,0.139099121094,-0.84130859375,0.422119140625
28087010396,0.304626464844,0.137878417969,-0.843017578125,0.421325683594
28087031253,0.301147460938,0.136779785156,-0.845031738281,0.420227050781
28087046827,0.297058105469,0.135925292969,-0.847229003906,0.4189453125
28087077474,0.292358398438,0.135498046875,-0.849609375,0.41748046875
28087099988,0.287353515625,0.134948730469,-0.852233886719,0.415832519531
28087106975,0.28173828125,0.134460449219,-0.855163574219,0.413818359375
28087129967,0.276062011719,0.132629394531,-0.858642578125,0.411071777344
28087152500,0.270751953125,0.129516601562,-0.862609863281,0.407287597656
28087175468,0.265686035156,0.125915527344,-0.866821289062,0.402709960938
28087204998,0.260192871094,0.122985839844,-0.871032714844,0.398071289062
28087212542,0.25390625,0.121520996094,-0.875061035156,0.393676757812
28087226920,0.246826171875,0.121520996094,-0.879089355469,0.389282226562
28087249991,0.238891601562,0.123168945312,-0.8828125,0.38525390625
28087272923,0.230529785156,0.125366210938,-0.886413574219,0.381408691406
28087303927,0.222412109375,0.126953125,-0.889892578125,0.37744140625
28087309997,0.214782714844,0.127624511719,-0.8935546875,0.372985839844
28087332553,0.207458496094,0.127746582031,-0.897338867188,0.368041992188
28087354970,0.2001953125,0.127685546875,-0.901000976562,0.363159179688
28087377503,0.192810058594,0.127197265625,-0.904602050781,0.358337402344
28087398621,0.184936523438,0.127258300781,-0.907958984375,0.353942871094
28087413675,0.176208496094,0.128356933594,-0.911010742188,0.35009765625
28087430462,0.167236328125,0.129821777344,-0.913818359375,0.346557617188
28087452440,0.158630371094,0.130737304688,-0.91650390625,0.343200683594
28087474963,0.150268554688,0.131713867188,-0.919006347656,0.339904785156
28087504994,0.141723632812,0.133361816406,-0.921203613281,0.337036132812
28087513192,0.13330078125,0.135131835938,-0.923095703125,0.334533691406
28087533651,0.125061035156,0.136596679688,-0.924926757812,0.332092285156
28087557537,0.116943359375,0.137573242188,-0.9267578125,0.329528808594
28087581909,0.108581542969,0.138610839844,-0.928527832031,0.326904296875
28087601163,0.100524902344,0.139404296875,-0.93017578125,0.324401855469
28087609969,0.0927124023438,0.139892578125,-0.931762695312,0.321960449219
28087632526,0.0850830078125,0.140563964844,-0.933227539062,0.319458007812
28087654989,0.0775756835938,0.140930175781,-0.934692382812,0.317016601562
28087670004,0.0704345703125,0.140747070312,-0.936218261719,0.314270019531
28087708122,0.0637817382812,0.140747070312,-0.937744140625,0.311157226562
28087713625,0.0570068359375,0.141235351562,-0.939147949219,0.307983398438
28087729967,0.050048828125,0.142700195312,-0.940307617188,0.304931640625
28087752494,0.0433959960938,0.144409179688,-0.941284179688,0.302124023438
28087774107,0.0367431640625,0.146362304688,-0.942138671875,0.299377441406
28087781940,0.0301513671875,0.148315429688,-0.943054199219,0.296325683594
28087811781,0.0238037109375,0.149353027344,-0.943969726562,0.293334960938
28087818020,0.0177612304688,0.150268554688,-0.944885253906,0.290405273438
28087840501,0.0120849609375,0.150939941406,-0.94580078125,0.287414550781
28087858269,0.006591796875,0.1513671875,-0.94677734375,0.284118652344
28087878051,0.001220703125,0.152282714844,-0.947692871094,0.280639648438
28087909271,-0.00372314453125,0.153259277344,-0.948425292969,0.277465820312
28087915483,-0.0086669921875,0.153991699219,-0.949157714844,0.274475097656
28087937971,-0.0134887695312,0.154602050781,-0.949951171875,0.271301269531
28087963315,-0.018310546875,0.155639648438,-0.950622558594,0.267822265625
28087984331,-0.0232543945312,0.156982421875,-0.951232910156,0.264526367188
28088005408,-0.028076171875,0.158508300781,-0.95166015625,0.26171875
28088020402,-0.0330200195312,0.159790039062,-0.951965332031,0.259155273438
28088035590,-0.0377807617188,0.161315917969,-0.952209472656,0.256774902344
28088060801,-0.04248046875,0.162475585938,-0.952331542969,0.254699707031
28088083275,-0.0437622070312,0.161682128906,-0.953186035156,0.251892089844
28088095381,-0.0458984375,0.161987304688,-0.953552246094,0.249938964844
28088118001,-0.0465087890625,0.161743164062,-0.953491210938,0.250122070312
28088140490,-0.047119140625,0.16259765625,-0.953247070312,0.250427246094
28088155591,-0.0476684570312,0.165283203125,-0.95263671875,0.250915527344
28088179320,-0.0480346679688,0.169006347656,-0.951782226562,0.251525878906
28088200495,-0.0484619140625,0.172424316406,-0.950927734375,0.252319335938
28088215498,-0.0488891601562,0.175231933594,-0.950134277344,0.253234863281
28088237831,-0.049072265625,0.1767578125,-0.949584960938,0.254211425781
28088260333,-0.0490112304688,0.177917480469,-0.94921875,0.255004882812
28088282950,-0.0490112304688,0.179260253906,-0.94873046875,0.255737304688
28088297919,-0.04931640625,0.18017578125,-0.948303222656,0.256591796875
28088315791,-0.0494384765625,0.179992675781,-0.9482421875,0.257080078125
28088335495,-0.0496826171875,0.179809570312,-0.948181152344,0.25732421875
28088365437,-0.0504760742188,0.180236816406,-0.947937011719,0.257690429688
28088390630,-0.0518188476562,0.181274414062,-0.947509765625,0.258178710938
28088395446,-0.05322265625,0.181945800781,-0.947204589844,0.258605957031
28088417918,-0.0543823242188,0.182861328125,-0.946838378906,0.259155273438
28088435785,-0.0556640625,0.1845703125,-0.9462890625,0.259704589844
28088455514,-0.0570678710938,0.186889648438,-0.945556640625,0.260192871094
28088485513,-0.0587158203125,0.190124511719,-0.944702148438,0.260681152344
