28300185786,-0.0623779296875,0.210876464844,-0.944458007812,0.244201660156
28300206923,-0.06201171875,0.210571289062,-0.944702148438,0.243774414062
28300222131,-0.061767578125,0.210083007812,-0.944885253906,0.243347167969
28300245550,-0.0621337890625,0.209655761719,-0.945190429688,0.24267578125
28300267041,-0.0569458007812,0.21240234375,-0.944702148438,0.243408203125
28300282114,-0.0531616210938,0.213623046875,-0.944519042969,0.243713378906
28300305666,-0.0465698242188,0.217224121094,-0.943786621094,0.244812011719
28300327046,-0.04541015625,0.217407226562,-0.943786621094,0.244934082031
28300350766,-0.0469970703125,0.216186523438,-0.944091796875,0.244567871094
28300381395,-0.0477294921875,0.215637207031,-0.944213867188,0.244384765625
28300383444,-0.04638671875,0.216613769531,-0.943969726562,0.244689941406
28300395666,-0.0438842773438,0.218811035156,-0.943359375,0.245544433594
28300417625,-0.05029296875,0.215209960938,-0.944213867188,0.244323730469
28300433359,-0.0467529296875,0.216796875,-0.943908691406,0.24462890625
28300470678,-0.04638671875,0.217163085938,-0.943969726562,0.244323730469
28300506898,-0.0464477539062,0.217102050781,-0.943969726562,0.244323730469
28300517046,-0.0465698242188,0.216979980469,-0.943969726562,0.244262695312
28300518548,-0.0469970703125,0.216918945312,-0.943969726562,0.244262695312
28300545668,-0.0467529296875,0.216857910156,-0.943908691406,0.244750976562
28300551881,-0.0419311523438,0.220703125,-0.942932128906,0.245910644531
28300574336,-0.0430297851562,0.220642089844,-0.942932128906,0.245849609375
28300596874,-0.0392456054688,0.223571777344,-0.942138671875,0.246826171875
28300611818,-0.0379028320312,0.224548339844,-0.941833496094,0.247131347656
28300634525,-0.0406494140625,0.223022460938,-0.942260742188,0.246643066406
28300656857,-0.0476684570312,0.218383789062,-0.943420410156,0.244995117188
28300671915,-0.0465698242188,0.2197265625,-0.943176269531,0.244995117188
28300694385,-0.040771484375,0.224426269531,-0.942016601562,0.246215820312
28300716705,-0.0428466796875,0.223876953125,-0.942199707031,0.245666503906
28300731961,-0.0479736328125,0.221557617188,-0.942810058594,0.244506835938
28300754504,-0.0482788085938,0.221984863281,-0.94287109375,0.243835449219
28300776846,-0.049560546875,0.223937988281,-0.942443847656,0.243286132812
28300791872,-0.0496826171875,0.226318359375,-0.942077636719,0.242614746094
28300821757,-0.048583984375,0.227966308594,-0.941833496094,0.2421875
28300836833,-0.0466918945312,0.229064941406,-0.941711425781,0.241943359375
28300851815,-0.0443725585938,0.231140136719,-0.941589355469,0.241027832031
28300874336,-0.0411376953125,0.233520507812,-0.94140625,0.240051269531
28300896828,-0.0371704101562,0.235717773438,-0.941162109375,0.239440917969
28300911966,-0.0321655273438,0.237670898438,-0.940856933594,0.239501953125
28300934248,-0.027099609375,0.239929199219,-0.940246582031,0.240051269531
28300964979,-0.0217895507812,0.241821289062,-0.939758300781,0.240661621094
28300973166,-0.015869140625,0.242126464844,-0.939636230469,0.241271972656
28300994527,-0.00927734375,0.239685058594,-0.940307617188,0.241455078125
28301016942,-0.0028076171875,0.237121582031,-0.94091796875,0.241760253906
28301033233,0.0045166015625,0.233642578125,-0.941711425781,0.2421875
28301054366,0.0123901367188,0.228332519531,-0.942749023438,0.242919921875
28301076811,0.0195922851562,0.224487304688,-0.943176269531,0.244262695312
28301093295,0.026123046875,0.223327636719,-0.94287109375,0.245788574219
28301114354,0.0325927734375,0.22314453125,-0.942321777344,0.247436523438
28301136863,0.0389404296875,0.224304199219,-0.941345214844,0.249267578125
28301153178,0.0448608398438,0.225463867188,-0.940246582031,0.251220703125
28301174280,0.0508422851562,0.22607421875,-0.939270019531,0.253112792969
28301196842,0.0569458007812,0.225524902344,-0.938537597656,0.255004882812
28301213194,0.0634155273438,0.224365234375,-0.937866210938,0.256958007812
28301234412,0.06982421875,0.2236328125,-0.93701171875,0.259033203125
28301256696,0.0760498046875,0.223693847656,-0.935852050781,0.261535644531
28301273232,0.0819091796875,0.224853515625,-0.934326171875,0.26416015625
28301294308,0.08740234375,0.226013183594,-0.932678222656,0.26708984375
28301316815,0.0929565429688,0.226806640625,-0.931091308594,0.270324707031
28301333173,0.0983276367188,0.226684570312,-0.9296875,0.273254394531
28301354362,0.104431152344,0.225280761719,-0.928527832031,0.275939941406
28301379629,0.111511230469,0.22265625,-0.927490234375,0.27880859375
28301395268,0.119079589844,0.220092773438,-0.926208496094,0.282104492188
28301414311,0.126403808594,0.218322753906,-0.924560546875,0.285522460938
28301444289,0.133666992188,0.217407226562,-0.922607421875,0.289245605469
28301454592,0.14111328125,0.21728515625,-0.920349121094,0.293090820312
28301474342,0.148986816406,0.217407226562,-0.917724609375,0.297119140625
28301497550,0.1572265625,0.217956542969,-0.914916992188,0.301208496094
28301513916,0.165710449219,0.21875,-0.911865234375,0.305297851562
28301536316,0.174377441406,0.219604492188,-0.90869140625,0.309265136719
28301557507,0.183349609375,0.220275878906,-0.905456542969,0.313049316406
28301573944,0.192810058594,0.220825195312,-0.902160644531,0.316467285156
28301596345,0.202026367188,0.221984863281,-0.898620605469,0.319946289062
28301617440,0.211181640625,0.223754882812,-0.894775390625,0.323669433594
28301633845,0.220275878906,0.225708007812,-0.890869140625,0.327026367188
28301656367,0.229125976562,0.227661132812,-0.887023925781,0.329895019531
28301677491,0.23779296875,0.229736328125,-0.883239746094,0.33251953125
28301693827,0.246765136719,0.231384277344,-0.879455566406,0.334838867188
28301716316,0.255737304688,0.232849121094,-0.875793457031,0.336730957031
28301737953,0.264892578125,0.234924316406,-0.871948242188,0.338195800781
28301753192,0.273742675781,0.236999511719,-0.868041992188,0.339660644531
28301776365,0.282043457031,0.239074707031,-0.864318847656,0.340942382812
28301797493,0.290283203125,0.241271972656,-0.860717773438,0.341491699219
28301813154,0.298828125,0.243103027344,-0.857116699219,0.341918945312
28301836351,0.306945800781,0.2451171875,-0.853332519531,0.342895507812
28301858879,0.314636230469,0.2470703125,-0.849487304688,0.344055175781
28301873191,0.322570800781,0.24853515625,-0.845764160156,0.344787597656
28301896348,0.330810546875,0.249694824219,-0.842163085938,0.344909667969
28301918635,0.339294433594,0.250366210938,-0.838745117188,0.344543457031
28301934600,0.347717285156,0.251281738281,-0.835144042969,0.34423828125
28301956336,0.356262207031,0.252868652344,-0.831176757812,0.343933105469
28301978825,0.364929199219,0.254577636719,-0.827026367188,0.343627929688
28301993142,0.373657226562,0.256408691406,-0.822509765625,0.343688964844
28302016306,0.381713867188,0.257507324219,-0.818359375,0.343933105469
28302038790,0.389709472656,0.257995605469,-0.814270019531,0.34423828125
28302053124,0.398193359375,0.25732421875,-0.810180664062,0.344665527344
28302076344,0.406372070312,0.255920410156,-0.806091308594,0.345825195312
28302098922,0.414001464844,0.254699707031,-0.801879882812,0.347412109375
28302119982,0.421813964844,0.253540039062,-0.797302246094,0.349487304688
28302136318,0.4296875,0.251831054688,-0.792541503906,0.351928710938
28302158969,0.436584472656,0.249877929688,-0.788146972656,0.354675292969
28302180006,0.443176269531,0.247924804688,-0.783996582031,0.357055664062
28302196322,0.449584960938,0.245910644531,-0.779907226562,0.359252929688
28302218768,0.45556640625,0.244079589844,-0.775939941406,0.361633300781
28302240147,0.460693359375,0.243103027344,-0.772033691406,0.364196777344
28302256345,0.465393066406,0.242736816406,-0.768371582031,0.366088867188
28302278799,0.47021484375,0.242492675781,-0.764953613281,0.367309570312
28302299771,0.474731445312,0.242004394531,-0.761779785156,0.368408203125
28302316325,0.479187011719,0.241516113281,-0.758728027344,0.369262695312
28302338970,0.483459472656,0.240661621094,-0.755859375,0.370178222656
28302360116,0.487487792969,0.239624023438,-0.753051757812,0.371215820312
28302376329,0.491149902344,0.238830566406,-0.750427246094,0.372192382812
28302398796,0.494689941406,0.237915039062,-0.747924804688,0.373168945312
28302436975,0.498046875,0.237121582031,-0.745422363281,0.374206542969
28302439401,0.500854492188,0.236022949219,-0.743408203125,0.375183105469
28302458814,0.503540039062,0.234924316406,-0.741455078125,0.376159667969
28302480686,0.506286621094,0.233764648438,-0.739379882812,0.377319335938
28302496314,0.508911132812,0.232788085938,-0.737182617188,0.378601074219
28302518818,0.511169433594,0.231994628906,-0.734985351562,0.380310058594
28302539931,0.513305664062,0.231140136719,-0.73291015625,0.382019042969
28302556298,0.515075683594,0.230224609375,-0.731140136719,0.383605957031
28302578787,0.516540527344,0.229309082031,-0.729431152344,0.385375976562
28302599957,0.517944335938,0.228881835938,-0.727478027344,0.387451171875
28302616319,0.518981933594,0.228759765625,-0.725708007812,0.389465332031
28302638913,0.520263671875,0.228271484375,-0.723999023438,0.391174316406
28302661323,0.521667480469,0.227172851562,-0.722290039062,0.393127441406
28302676244,0.522888183594,0.225891113281,-0.720642089844,0.395202636719
28302698818,0.52392578125,0.224914550781,-0.719055175781,0.397277832031
28302719837,0.524963378906,0.224182128906,-0.717590332031,0.39892578125
28302743799,0.526184082031,0.223327636719,-0.716186523438,0.400268554688
28302766304,0.527282714844,0.22265625,-0.715026855469,0.401428222656
28302780008,0.528076171875,0.222229003906,-0.714111328125,0.402221679688
28302796319,0.528991699219,0.221740722656,-0.71337890625,0.402587890625
28302818798,0.529846191406,0.221618652344,-0.712524414062,0.403015136719
28302865158,0.530334472656,0.221618652344,-0.711975097656,0.403381347656
28302870003,0.53076171875,0.221435546875,-0.711547851562,0.403686523438
28302878828,0.531372070312,0.221496582031,-0.710815429688,0.404113769531
28302901496,0.531860351562,0.2216796875,-0.710021972656,0.404724121094
28302916309,0.531982421875,0.221984863281,-0.709533691406,0.4052734375
28302946292,0.531921386719,0.222290039062,-0.709167480469,0.405822753906
28302961282,0.531860351562,0.222778320312,-0.708862304688,0.406188964844
28302991320,0.531616210938,0.223022460938,-0.708801269531,0.406555175781
28302998799,0.531372070312,0.223388671875,-0.708679199219,0.406799316406
28303022787,0.530822753906,0.223999023438,-0.708740234375,0.407043457031
28303035673,0.530517578125,0.224548339844,-0.708801269531,0.406982421875
28303066327,0.530517578125,0.224853515625,-0.708862304688,0.406860351562
28303097684,0.530151367188,0.225280761719,-0.708923339844,0.406860351562
28303119405,0.529846191406,0.225830078125,-0.709045410156,0.406799316406
28303121777,0.529479980469,0.226379394531,-0.709106445312,0.406921386719
28303141339,0.529418945312,0.226745605469,-0.708984375,0.406982421875
28303155687,0.529602050781,0.226928710938,-0.708740234375,0.407043457031
28303178861,0.529296875,0.227478027344,-0.708679199219,0.407348632812
28303201277,0.52880859375,0.228210449219,-0.70849609375,0.407775878906
28303223781,0.528625488281,0.22900390625,-0.708190917969,0.408081054688
28303238753,0.528076171875,0.229431152344,-0.708190917969,0.408508300781
28303267413,0.527404785156,0.230102539062,-0.708374023438,0.40869140625
28303275618,0.526794433594,0.230651855469,-0.708557128906,0.408996582031
28303299197,0.526428222656,0.231384277344,-0.70849609375,0.408996582031
28303352647,0.525939941406,0.232055664062,-0.70849609375,0.409301757812
28303359453,0.525329589844,0.232666015625,-0.708740234375,0.409301757812
28303361797,0.524658203125,0.233215332031,-0.708984375,0.409484863281
28303381297,0.523742675781,0.23388671875,-0.709228515625,0.409790039062
28303402402,0.522216796875,0.234680175781,-0.709594726562,0.410705566406
28303418831,0.520385742188,0.234802246094,-0.710205078125,0.411926269531
28303448807,0.518798828125,0.234680175781,-0.710632324219,0.413208007812
28303464241,0.517333984375,0.2353515625,-0.71044921875,0.414916992188
28303478840,0.515930175781,0.236450195312,-0.710510253906,0.415954589844
28303501318,0.515319824219,0.237365722656,-0.710632324219,0.415954589844
28303522486,0.515014648438,0.238159179688,-0.710876464844,0.415588378906
28303538799,0.514526367188,0.239196777344,-0.711181640625,0.4150390625
28303561332,0.51416015625,0.240600585938,-0.71142578125,0.414245605469
28303582464,0.513610839844,0.241943359375,-0.711791992188,0.413452148438
28303598796,0.512756347656,0.242919921875,-0.712524414062,0.412719726562
28303621274,0.511657714844,0.243408203125,-0.713562011719,0.412048339844
28303642447,0.510864257812,0.243530273438,-0.714538574219,0.411254882812
28303658784,0.510375976562,0.242736816406,-0.715637207031,0.410400390625
28303681842,0.509704589844,0.241333007812,-0.717041015625,0.409606933594
28303702437,0.508483886719,0.241516113281,-0.718933105469,0.407653808594
28303718213,0.506286621094,0.241760253906,-0.722229003906,0.404479980469
28303741292,0.503173828125,0.240417480469,-0.726806640625,0.400939941406
28303763793,0.497985839844,0.239501953125,-0.732604980469,0.3974609375
28303778117,0.491394042969,0.240234375,-0.738830566406,0.393676757812
28303801265,0.484069824219,0.241394042969,-0.745422363281,0.389465332031
28303823797,0.476379394531,0.24169921875,-0.752502441406,0.385131835938
28303838162,0.468078613281,0.241394042969,-0.760070800781,0.380615234375
28303861314,0.458862304688,0.241394042969,-0.767944335938,0.3759765625
28303883832,0.449340820312,0.241516113281,-0.775695800781,0.37158203125
28303898607,0.439453125,0.241271972656,-0.783386230469,0.367370605469
28303928788,0.429260253906,0.240783691406,-0.790893554688,0.363647460938
28303943812,0.418395996094,0.240661621094,-0.798156738281,0.360534667969
28303964953,0.407043457031,0.241149902344,-0.804809570312,0.358337402344
28303981322,0.395263671875,0.240173339844,-0.811584472656,0.356872558594
28304003795,0.38330078125,0.237976074219,-0.818420410156,0.355895996094
28304024929,0.37109375,0.2353515625,-0.825256347656,0.354736328125
28304041316,0.359497070312,0.232238769531,-0.831848144531,0.353271484375
28304063818,0.348937988281,0.228210449219,-0.838073730469,0.351745605469
28304084987,0.338562011719,0.224182128906,-0.843688964844,0.35107421875
28304101272,0.326965332031,0.221618652344,-0.84912109375,0.350708007812
28304123783,0.314208984375,0.220581054688,-0.8544921875,0.349975585938
28304152466,0.300537109375,0.219848632812,-0.8603515625,0.347961425781
28304161304,0.287231445312,0.217529296875,-0.866821289062,0.344604492188
28304183802,0.274475097656,0.212829589844,-0.873962402344,0.339965820312
28304205052,0.261474609375,0.207641601562,-0.881164550781,0.334716796875
28304221333,0.247741699219,0.202941894531,-0.888305664062,0.329162597656
28304243746,0.233520507812,0.199096679688,-0.895141601562,0.323364257812
28304264858,0.218505859375,0.196533203125,-0.901611328125,0.317443847656
28304281317,0.20263671875,0.194763183594,-0.907836914062,0.311279296875
28304303747,0.1875,0.192687988281,-0.913757324219,0.304626464844
28304324963,0.173828125,0.189392089844,-0.91943359375,0.297729492188
28304341265,0.160827636719,0.185729980469,-0.924499511719,0.291381835938
28304363798,0.147827148438,0.182556152344,-0.929138183594,0.285583496094
28304385038,0.134765625,0.179260253906,-0.933471679688,0.279907226562
28304401267,0.121643066406,0.176696777344,-0.937438964844,0.274230957031
28304423799,0.108337402344,0.175476074219,-0.94091796875,0.268676757812
28304445133,0.09521484375,0.174133300781,-0.944030761719,0.263427734375
28304461292,0.0828247070312,0.171875,-0.946960449219,0.258544921875
28304483824,0.071044921875,0.169311523438,-0.949645996094,0.253845214844
28304505004,0.059814453125,0.167114257812,-0.952087402344,0.249206542969
28304520670,0.0494995117188,0.164794921875,-0.954223632812,0.244689941406
28304543781,0.0404052734375,0.161743164062,-0.956237792969,0.240661621094
28304565616,0.0321655273438,0.159057617188,-0.957885742188,0.236877441406
28304580621,0.0243530273438,0.157287597656,-0.959289550781,0.233276367188
28304603804,0.0167236328125,0.156127929688,-0.96044921875,0.229919433594
28304624897,0.009521484375,0.155517578125,-0.96142578125,0.226684570312
28304631788,0.00299072265625,0.155029296875,-0.962280273438,0.223571777344
28304648143,-0.0029296875,0.154907226562,-0.962951660156,0.220764160156
28304669313,-0.00848388671875,0.155029296875,-0.963562011719,0.217956542969
28304691747,-0.0135498046875,0.155456542969,-0.964050292969,0.215209960938
28304708125,-0.0181884765625,0.156188964844,-0.964416503906,0.212585449219
28304729358,-0.0224609375,0.157043457031,-0.964721679688,0.210327148438
28304751665,-0.0264282226562,0.158081054688,-0.96484375,0.208435058594
28304768072,-0.030029296875,0.158569335938,-0.965026855469,0.206726074219
28304789189,-0.0330810546875,0.157958984375,-0.96533203125,0.205200195312
28304811937,-0.0359497070312,0.156921386719,-0.965759277344,0.203674316406
28304828142,-0.0364379882812,0.1552734375,-0.966369628906,0.201782226562
28304849308,-0.0390014648438,0.156005859375,-0.966491699219,0.200134277344
28304871681,-0.0410766601562,0.159057617188,-0.966125488281,0.19921875
28304886678,-0.0435180664062,0.161865234375,-0.965759277344,0.198059082031
28304909406,-0.0458984375,0.16357421875,-0.965515136719,0.197265625
28304931801,-0.0485229492188,0.16552734375,-0.965209960938,0.196533203125
28304948153,-0.0520629882812,0.167114257812,-0.964965820312,0.195556640625
28304969226,-0.0563354492188,0.168395996094,-0.96484375,0.193908691406
28304991869,-0.060302734375,0.169311523438,-0.964782714844,0.192077636719
28305006771,-0.0633544921875,0.169921875,-0.964782714844,0.190734863281
28305029267,-0.0660400390625,0.169860839844,-0.964782714844,0.189697265625
28305051822,-0.0684814453125,0.168823242188,-0.964965820312,0.188903808594
28305066801,-0.071533203125,0.168762207031,-0.964904785156,0.188171386719
28305089273,-0.0742797851562,0.168884277344,-0.964721679688,0.187805175781
28305111653,-0.077880859375,0.169494628906,-0.964477539062,0.187194824219
28305129593,-0.082763671875,0.169982910156,-0.964233398438,0.185974121094
28305149317,-0.0875244140625,0.168273925781,-0.964599609375,0.183410644531
28305171802,-0.091064453125,0.167419433594,-0.964721679688,0.181701660156
28305186798,-0.0936889648438,0.168579101562,-0.964477539062,0.180480957031
28305209387,-0.0956420898438,0.170593261719,-0.964172363281,0.179504394531
28305231647,-0.0972900390625,0.172180175781,-0.9638671875,0.1787109375
28305246773,-0.0984497070312,0.172485351562,-0.963745117188,0.178283691406
28305269195,-0.0989379882812,0.171447753906,-0.9638671875,0.178344726562
28305287065,-0.0991821289062,0.169006347656,-0.964294433594,0.178344726562
28305308110,-0.0996704101562,0.166137695312,-0.96484375,0.177856445312
28305329155,-0.100341796875,0.163757324219,-0.965270996094,0.177124023438
