29531376381,3,-1,-1,2,0,1,-1,2
29531376381,2,0,0,-4,-3,-3,-1,0
29531377147,-2,-3,-6,-2,-1,1,0,-1
29531377147,-2,-4,-3,-3,-2,-1,-1,-1
29531380579,-4,-1,1,-2,0,-1,-2,-2
29531380579,4,2,5,1,0,0,-2,1
29531381294,-1,-4,-5,-2,0,-1,1,-1
29531381294,-2,-3,0,-2,-2,-1,-2,-1
29531387741,-1,1,1,0,-1,-1,1,-3
29531387741,-2,-3,-4,-2,-1,-1,-2,-1
29531395801,-2,2,4,-2,-3,-4,-3,-3
29531395801,1,-5,-9,-1,1,1,1,2
29531402018,-3,-4,-4,-6,-1,-4,-3,-3
29531402018,-2,-1,1,4,-1,-2,-1,-1
29531417068,-3,-2,1,0,0,-1,0,0
29531417068,-1,2,1,-1,-1,-3,-4,-1
29531426438,-2,-6,-12,-3,-2,-1,-1,-2
29531426438,0,2,11,3,1,2,0,0
29531448526,-2,0,2,0,-1,-1,-1,-1
29531448526,-3,0,-2,-1,-4,-4,-3,-3
29531449192,-1,-5,-3,-1,1,-1,0,-1
29531449192,0,0,-4,-1,-2,0,1,0
29531461867,2,0,1,-1,-1,-3,-4,0
29531461867,-2,-1,-1,-1,1,1,-1,-1
29531503621,-1,4,8,4,1,2,1,0
29531503621,0,-2,-3,-4,-2,-2,-2,0
29531504490,0,-3,-6,-1,1,0,-2,0
29531504490,1,4,3,1,0,-1,-1,1
29531508269,-1,-2,-2,-2,0,-1,-2,0
29531508269,-1,0,-1,1,1,-1,-2,-1
29531508942,-2,-2,1,-1,-1,-1,-1,-1
29531508942,-1,-4,-3,-1,0,0,0,-3
29531514371,-1,-1,-2,-1,-1,0,0,-1
29531514371,-1,0,0,-1,-1,1,0,-1
29531521883,-1,-1,-1,-1,-2,-1,-1,0
29531521883,-1,0,0,1,2,0,-1,-1
29531536892,-1,-1,-1,-2,-2,0,1,-1
29531536892,-1,0,-1,-1,-2,-1,-1,0
29531545083,-1,-1,-1,0,-3,-2,-2,-2
29531545083,0,0,-3,-2,-1,-2,-2,-2
29531551996,-2,-8,-10,-5,-2,-1,-2,-3
29531551996,3,15,16,6,5,0,2,0
29531575750,0,-1,-2,-2,0,-2,1,-2
29531575750,-3,-3,-3,-4,-4,-1,-1,-2
29531577256,1,-2,-3,-4,-2,-3,-6,-2
29531577256,-3,-5,-5,-2,-1,-3,-2,-3
29531589446,-4,-5,-3,0,0,-2,1,-2
29531589446,-3,-2,-7,0,-2,-4,0,-2
29531598258,0,1,6,0,-2,-3,0,0
29531598258,-2,-5,-3,-2,-3,-1,0,0
29531613109,-3,-5,-4,-1,0,0,-1,-3
29531613109,-1,-2,-1,-1,0,0,-3,-1
29531614742,-1,0,-7,-3,-2,-2,0,-2
29531614742,0,-3,-6,-1,-1,-2,-3,-1
29531635670,0,-1,-3,-1,-4,-1,-2,-2
29531635670,-1,-2,-1,-1,-2,-1,-2,-2
29531637305,-5,-7,-9,-2,-1,-2,-1,-2
29531637305,-1,3,5,0,1,0,0,-2
29531649342,-1,-1,-3,-2,-4,-3,-2,-1
29531649342,-2,-2,1,0,-1,-3,0,-2
29531658283,0,0,-3,1,0,1,-1,0
29531658283,-1,-3,-2,-3,-6,-4,-2,0
29531673273,2,5,7,1,0,0,1,-1
29531673273,-1,1,3,-2,-3,-2,-1,-1
29531674764,-5,2,2,2,-1,-3,-2,-3
29531674764,3,-4,-6,-2,-2,-2,-2,1
29531695625,-2,-4,-9,-5,-1,-2,-3,-2
29531695625,5,9,13,3,0,0,0,2
29531697252,0,0,0,-3,-2,0,0,-3
29531697252,-4,-5,-5,1,0,-2,0,-2
29531709395,-1,0,2,0,1,0,0,1
29531709395,-2,-7,-6,-2,-3,-1,2,0
29531718303,-2,-2,-4,0,0,1,-1,0
29531718303,-2,-1,1,-2,-2,-3,-2,-2
29531733239,1,3,1,0,0,0,-2,0
29531733239,-3,-3,-5,-2,-1,-2,-2,-1
29531734761,-1,1,2,0,-2,-1,0,1
29531734761,-2,-5,-5,-3,-4,-1,-2,-3
29531755742,1,1,-2,0,1,1,0,-2
29531755742,-1,-3,-3,-2,-1,-1,-4,-1
29531757230,3,4,6,0,0,0,0,-1
29531757230,-1,-2,-2,1,0,0,-3,-1
29531769405,-2,-2,0,2,-1,0,-1,0
29531769405,0,1,-1,1,-3,-2,-3,-1
29531778255,-3,-5,-10,-3,-2,-1,-1,0
29531778255,-1,3,3,0,-1,0,1,0
29531793227,-2,-2,1,0,1,-2,0,-1
29531793227,-4,2,0,0,2,0,-1,-3
29531794733,-2,-7,-5,-4,-1,-2,0,-2
29531794733,3,-1,0,0,1,-1,0,-1
29531815789,0,-1,1,0,-2,-2,-3,-1
29531815789,0,-7,-7,-1,0,0,0,1
29531817262,-3,0,4,0,1,-1,-1,-1
29531817262,2,1,-1,-3,-2,-2,1,0
29531829321,-1,0,-2,-1,-2,-5,-1,-2
29531829321,-3,-2,-6,-4,-4,0,-2,-3
29531838234,1,4,4,2,-2,-1,-1,1
29531838234,-4,-6,-3,0,-1,-1,-1,-3
29531853227,0,0,0,-4,-1,-1,-2,1
29531853227,-3,-4,-3,-2,0,0,0,0
29531854739,3,2,3,0,0,-1,0,1
29531854739,-2,2,-1,-1,-2,-2,-2,1
29531875708,-2,0,3,0,-1,-2,0,0
29531875708,-4,-10,-10,-4,-1,-2,0,-2
29531877251,4,9,17,4,1,-1,0,2
29531877251,-1,-1,-1,2,-1,0,-2,-2
29531898286,1,-1,-3,-3,-3,-1,0,0
29531898286,1,1,1,0,-2,0,1,-1
29531899728,3,0,-1,-1,-2,0,-2,0
29531899728,-6,-3,-3,-4,-3,-4,-2,-3
29531913134,3,1,0,0,-2,-1,1,-1
29531913134,1,-2,-1,-1,2,0,0,2
29531914723,-4,-3,-5,-1,0,-1,0,-2
29531914723,-1,-4,-3,0,-1,1,-2,-2
29531935721,-5,-9,-12,-2,-1,-1,-2,-3
29531935721,2,7,13,4,1,1,1,0
29531937267,-2,-7,-8,-3,0,0,-2,-3
29531937267,3,5,4,0,0,0,0,-1
29531958234,-5,-3,1,-2,-1,-1,-1,-1
29531958234,2,-5,-6,-1,-2,0,-1,-1
29531959706,0,-3,-6,-2,0,-3,-3,-1
29531959706,-13,0,6,1,1,0,1,-5
29531973218,11,7,8,2,0,1,-3,5
29531973218,-4,1,0,1,-1,0,-1,-3
29531974712,-5,-7,-7,-4,-4,-2,0,-2
29531974712,4,-2,-6,-3,0,-2,-3,0
29531995900,-9,-7,-4,-2,0,1,0,-5
29531995900,0,4,5,-1,-2,-1,0,3
29531997221,0,-3,-1,-1,-1,-1,-2,-3
29531997221,0,-2,0,-2,-3,0,1,-1
29532018225,2,1,-3,-1,-4,-3,-1,-5
29532018225,-1,-11,-10,-3,0,-4,-4,4
29532019710,0,4,1,-1,-1,0,1,-1
29532019710,-12,2,8,1,-2,-2,-1,-4
29532032631,6,-3,-3,-1,-2,0,-1,3
29532032631,-2,-2,-4,-5,-2,-2,0,-4
29532039396,6,5,2,0,0,1,1,1
29532039396,0,-6,-9,-5,-1,-2,-2,1
29532055718,0,6,2,3,0,-2,0,-1
29532055718,-3,1,-2,0,1,-1,-1,-3
29532057271,-3,-1,0,0,0,1,-1,-1
29532057271,-1,-2,-2,-1,-1,0,0,-1
29532078203,-7,-8,-12,-1,-2,-1,0,0
29532078203,14,11,15,4,2,1,-1,2
29532079742,-2,-5,-5,2,-1,0,0,-1
29532079742,4,4,7,-1,-1,1,-3,1
29532092590,-3,-1,-3,-4,-2,-2,-3,-2
29532092590,-5,-8,-7,-2,1,2,0,-2
29532099423,5,8,4,1,-1,-3,-7,-6
29532099423,-20,-14,-10,-5,-4,-7,-5,-1
29532115640,15,-1,0,1,2,0,-1,6
29532115640,-5,-3,-1,-2,0,-1,0,-3
29532117252,-3,-7,-13,-5,-4,-2,-2,-1
29532117252,3,13,8,1,0,0,0,0
29532138279,-1,3,5,-4,-4,-4,-1,-2
29532138279,-5,-5,-2,-1,-3,-2,-2,-2
29532139736,-1,5,-3,1,2,0,2,0
29532139736,8,-5,-8,-1,-1,-2,-2,1
29532152607,-12,-3,1,-1,0,0,1,-3
29532152607,18,8,2,0,-3,0,3,5
29532159337,-5,0,3,-1,3,-2,-9,-5
29532159337,1,-7,-7,1,0,2,1,5
29532175749,-6,-4,-3,-3,0,-2,0,-4
29532175749,-5,0,0,0,-3,0,0,-1
29532177214,2,4,7,0,-1,-4,0,-1
29532177214,-4,-1,-3,-2,-2,-1,0,-3
29532198112,-1,-2,0,0,0,0,-1,0
29532198112,-21,-6,-5,-3,-1,-4,-4,-8
29532199762,19,-2,1,-3,-3,-1,0,6
29532199762,5,4,1,-1,-2,0,0,0
29532212573,0,5,1,1,-2,0,-1,-2
29532212573,2,-1,-1,-2,-3,-2,-6,3
29532219384,-17,-7,0,2,0,2,2,-3
29532219384,0,-5,-9,-3,-3,-1,2,-2
29532235641,2,1,2,1,0,-1,-6,-1
29532235641,-3,2,0,-1,-1,-1,0,-2
29532237292,-3,-9,-9,-3,1,0,0,-2
29532237292,3,2,3,2,3,0,-2,-1
29532258274,-2,1,2,1,2,2,2,-1
29532258274,1,1,2,1,1,-3,-5,-2
29532259757,-11,-11,-9,-1,-2,0,1,-1
29532259757,11,5,5,2,1,0,-2,-1
29532272609,-3,2,2,0,-1,1,0,-1
29532272609,8,0,-1,-4,-1,0,2,7
29532279494,-2,0,0,-3,-3,0,1,0
29532279494,-8,-3,-3,-1,-1,0,1,-2
29532295776,1,-4,-1,-2,-1,-1,0,2
29532295776,-2,-1,-1,0,0,-1,0,-1
29532297234,2,-1,1,-1,0,0,-2,2
29532297234,-1,-3,-4,-3,-2,-2,-2,-2
29532318177,-1,2,0,0,-1,-1,-1,-2
29532318177,0,2,5,1,1,-1,-1,-4
29532319683,-1,0,0,0,-2,-1,0,-1
29532319683,-1,0,-7,-3,-3,-2,0,-2
29532332600,-1,-3,-1,-1,-1,-1,-3,-1
29532332600,-3,-2,-4,-2,-3,-2,0,-2
29532339363,0,2,0,1,0,-1,-1,1
29532339363,-1,-3,-1,1,1,-1,1,-1
29532355667,-4,-2,-5,-2,-1,-2,0,-1
29532355667,0,1,0,-1,-1,-2,-2,-1
29532357275,-1,-4,-3,-5,-3,-3,-1,-2
29532357275,-1,0,-2,-1,1,2,0,-1
29532377544,2,2,-1,0,-2,-1,0,-1
29532377544,-3,-3,-4,-2,-2,0,-2,-1
29532378217,1,3,2,2,-1,-1,0,1
29532378217,-2,0,2,-2,-1,-1,-2,-1
29532392002,-3,-2,0,-1,1,-1,-2,-2
29532392002,-1,-4,-3,-1,-2,-2,0,-1
29532399342,-6,-3,-2,-1,-1,-1,1,-1
29532399342,0,-4,-4,-3,-2,-1,-2,1
29532414984,-2,-2,2,-5,-3,0,-3,-1
29532414984,2,0,1,8,4,1,3,-1
29532415743,0,-1,3,1,-1,0,-1,-2
29532415743,-7,-11,-8,-5,-4,-3,-2,-4
29532437521,9,12,8,5,2,1,2,3
29532437521,0,-3,-4,-5,-1,-1,0,-1
29532438239,2,1,3,1,1,0,-2,-1
29532438239,2,1,4,0,1,-1,0,-1
29532460190,-5,-6,-6,-3,-4,-2,-3,-2
29532460190,-3,-2,-1,-1,-1,-1,-2,-1
29532460714,-1,0,-2,1,0,0,0,0
29532460714,-2,-6,-12,-6,-2,-1,-2,-2
29532482566,-1,-2,1,-3,-1,-1,0,-1
29532482566,1,1,3,-1,0,-2,0,-1
29532483221,-3,-6,-3,-5,-5,-3,-3,-3
29532483221,6,7,-2,4,0,0,-3,3
29532496900,-3,-3,-6,-2,-2,-2,-3,-1
29532496900,-5,0,-2,-2,0,1,-3,0
29532505026,0,0,-3,-3,-2,-1,-7,-1
29532505026,-3,-1,3,-1,-3,-1,-5,-2
29532520111,-2,-4,-4,-3,1,0,2,-3
29532520111,-1,0,3,-1,0,-1,5,-2
29532520724,-3,-3,-5,-2,-2,-1,3,-4
29532520724,1,0,2,-1,-1,-1,3,1
29532542704,1,1,5,0,1,-2,-1,-1
29532542704,-3,-5,-1,-3,-5,-4,-2,-3
29532543199,3,3,0,3,3,3,2,2
29532543199,1,2,1,-1,-5,0,2,1
29532557542,-5,-3,-3,-1,-3,-2,-1,-4
29532557542,1,-4,-4,-2,3,3,0,-2
29532558241,-1,-2,-2,-3,-1,-4,-3,-2
29532558241,1,0,2,4,4,1,8,-2
29532580105,-5,-5,-5,-4,-4,-2,-4,-1
29532580105,4,8,5,0,-6,-2,-2,0
29532580718,1,-1,-5,0,2,1,-5,0
29532580718,0,1,0,1,-1,1,-8,-1
29532602479,-4,-4,-4,-4,-1,-3,-2,-1
29532602479,-2,-3,-6,-1,1,-2,-1,1
29532603196,-3,-5,2,0,0,-5,0,-2
29532603196,4,3,8,0,1,0,1,2
29532617430,3,10,11,7,5,4,1,0
29532617430,4,-6,-14,-4,-4,-1,-2,1
29532618203,3,9,17,2,-2,-1,3,1
29532618203,-5,-6,-3,-4,-5,-5,-9,-6
29532640099,-2,-5,-7,1,2,3,-4,0
29532640099,-4,2,3,-1,1,0,-6,-1
29532640696,-3,-4,-5,-2,1,2,-1,-2
29532640696,-3,-1,-2,-2,0,-2,3,-1
29532662456,0,-2,-3,-2,-5,-2,3,2
29532662456,-3,-2,-1,-7,-9,-6,0,-2
29532663189,-2,-3,-3,-1,-5,-5,0,-1
29532663189,-2,3,7,8,11,4,-4,-1
29532677420,-4,-10,-13,-2,-4,-5,-3,-2
29532677420,1,3,2,3,8,3,-2,1
29532678230,0,-1,-2,-7,-10,-2,-3,1
29532678230,-1,-1,-1,-4,-5,-3,4,0
29532700161,-3,-2,-4,-3,-4,-3,-4,-6
29532700161,-3,-3,3,1,-2,-4,1,-2
29532700687,-1,1,-5,-3,3,1,3,-1
29532700687,-9,-10,-6,2,5,1,5,-7
29532722575,4,5,8,1,-4,-1,-4,6
29532722575,4,7,10,3,1,5,8,3
29532723236,-1,3,2,2,4,1,-8,1
29532723236,-1,-1,1,1,1,0,-8,0
29532737511,-7,-6,-3,-2,2,-3,-10,-7
29532737511,-2,-3,-2,0,-1,-1,-6,-4
29532738191,-1,-1,0,2,2,0,3,3
29532738191,-4,1,-1,-1,-5,-2,-4,-3
29532760042,3,-6,-10,-6,0,2,4,3
29532760042,0,3,10,-2,-7,-2,-1,2
29532760743,0,-2,-1,-1,0,-1,0,-4
29532760743,-2,1,-2,0,-7,-8,-4,-3
29532782457,-2,-1,2,-3,-1,0,2,-1
29532782457,-3,-8,-13,-6,-4,-3,1,-5
29532783266,5,7,9,1,3,2,3,4
29532783266,-1,-5,-2,4,2,0,-3,0
29532797543,-7,-6,2,1,4,-1,-1,-6
29532797543,1,2,-5,-4,-6,-1,2,-1
29532798262,7,6,-1,-4,-7,-1,5,8
29532798262,2,-6,-8,-16,-15,-7,-1,4
29532820082,2,10,15,13,6,4,1,0
29532820082,-5,-12,-9,10,23,8,-6,-2
29532820768,-4,0,4,1,-3,-5,-4,-8
29532820768,1,1,4,1,7,8,7,0
29532842545,-2,-5,-7,-7,-8,-6,-4,-2
29532842545,-3,-3,-4,1,-4,-2,0,0
29532843217,3,0,-8,-6,-4,-3,-1,1
29532843217,-2,-3,-5,-4,-2,1,0,0
29532857548,-4,-4,0,2,2,-1,-2,-4
29532857548,3,-1,-6,-2,-3,-1,0,0
29532858240,0,0,3,-3,-5,1,2,2
29532858240,0,3,3,1,-8,-6,-3,-4
29532880130,4,1,-3,-5,-1,3,3,5
29532880130,-8,-8,-1,-6,-7,-5,-4,-3
29532880721,-7,-10,-13,-2,8,0,-3,-7
29532880721,3,13,18,16,16,6,2,0
29532902505,2,-8,-12,-3,-4,-5,-2,0
29532902505,5,0,-5,-5,-3,3,6,5
29532903183,-1,-2,8,5,0,0,10,0
29532903183,1,3,-2,-10,-10,-7,-2,0
29532917546,-4,-3,0,8,-5,-5,-5,-4
29532917546,-2,-1,1,2,6,5,-8,-4
29532918247,-3,-4,-1,-1,-6,-8,-15,-6
29532918247,-1,-4,-5,1,7,4,-1,-4
29532940146,3,0,5,-1,-4,-6,-9,0
29532940146,-1,1,-5,-11,-17,-6,8,1
29532940723,-1,2,-1,1,-1,0,1,-4
29532940723,-2,4,3,-9,-8,-6,-2,-1
29532962523,-7,-10,-7,-5,1,2,2,-3
29532962523,1,9,11,11,10,-1,-12,-1
29532963215,-7,-11,-10,-8,-2,-4,-9,-9
29532963215,12,7,3,-9,-23,-4,23,20
29532976895,-2,-1,-1,1,5,7,11,-2
29532976895,-1,0,1,2,1,-5,-8,0
29532985148,-5,-3,-4,0,4,1,1,2
29532985148,-15,-12,-4,0,4,0,-17,-19
29533000016,7,5,5,1,-2,-3,21,12
29533000016,0,-1,1,-1,-4,-2,-2,-5
29533000716,-8,-6,-7,-7,-8,-5,-12,-9
29533000716,-6,-10,-9,-4,-1,-6,-13,-2
29533022661,3,8,6,4,5,9,0,-10
29533022661,1,8,8,3,6,5,7,7
29533023172,3,-1,-2,0,0,-4,-1,1
29533023172,2,-5,-14,-3,0,-6,-7,-4
29533036873,-12,-7,-4,-8,-5,-3,-5,-6
29533036873,3,2,2,1,1,7,5,-1
29533045234,-4,-2,-2,-7,-12,-7,-1,1
29533045234,-1,-4,-2,-2,3,0,0,7
29533060095,7,9,5,9,9,1,-6,1
29533060095,3,-1,0,0,-2,-2,3,0
29533060693,-21,-26,-2,-5,1,3,5,-9
29533060693,24,28,13,15,7,6,8,8
29533082619,8,13,5,-20,-19,-9,3,7
29533082619,-11,-4,3,14,18,2,-12,-14
29533083183,3,5,7,11,11,12,5,-3
29533083183,0,-7,-3,-6,-1,-5,0,5
29533096908,4,-3,-5,1,2,2,-8,2
29533096908,-1,-5,-6,-10,-14,-10,13,4
29533105075,3,0,-4,-3,0,2,3,-3
29533105075,-10,-7,1,-5,0,-1,-4,0
29533120050,1,11,8,5,0,1,3,0
29533120050,-5,-3,-5,-11,-13,-10,-15,-6
29533120696,1,1,-1,4,8,-1,-10,3
29533120696,-2,-4,-4,2,1,-2,6,0
29533142375,-18,-17,-7,-4,-3,-9,-6,-8
29533142375,6,7,3,1,1,4,0,-8
29533143201,8,11,6,-3,-5,1,13,8
29533143201,1,-2,-6,-11,-11,-3,15,8
29533156706,0,2,8,21,16,8,-4,-11
29533156706,-8,-24,-28,-8,1,-1,-26,-6
29533165016,5,15,10,5,-4,-1,14,9
29533165016,-1,-4,2,1,6,7,5,4
29533180161,2,-4,-8,-7,-7,-4,3,-2
29533180161,-7,-6,-5,-4,-7,-7,6,4
29533180685,-3,-20,-12,6,6,0,-9,-12
29533180685,17,39,34,11,8,8,13,8
29533202444,-11,-1,-5,-23,-23,-15,-12,-7
29533202444,2,3,21,36,26,16,3,-7
29533203233,6,2,-14,-19,-16,-7,4,15
29533203233,-12,-11,-10,5,5,-2,-15,-18
29533216814,6,-4,-9,-7,-4,0,9,5
29533216814,-3,2,-3,-10,-16,-17,-17,-8
29533225092,5,4,6,10,4,9,29,20
29533225092,-6,-9,-8,-3,6,2,-4,-7
29533240073,-8,-11,-11,-7,-7,-8,-13,-4
29533240073,-2,-3,-4,-13,-8,-2,7,7
29533240751,-1,10,9,6,6,0,-16,-8
29533240751,-8,-1,-3,-4,-9,-10,-14,-10
29533262644,6,6,4,0,0,1,-3,13
29533262644,-3,5,9,-3,0,4,9,-12
29533263242,0,-8,-2,-6,-7,-8,-10,4
29533263242,-9,-21,-27,-15,-12,-10,-15,-10
29533276891,8,4,-3,7,12,10,0,2
29533276891,-12,-16,-3,9,6,-4,-14,-3
29533285203,19,41,46,22,17,5,-4,8
29533285203,3,-10,-7,0,1,6,20,17
29533300108,-9,-12,-10,-10,-10,-11,0,-3
29533300108,12,10,-9,-11,-3,6,6,-2
29533300726,-6,-10,3,3,-8,-10,-3,-5
29533300726,-1,-5,2,2,-1,-5,-13,-5
29533322515,2,9,19,17,30,16,1,4
29533322515,-3,5,10,2,-5,0,11,5
29533323244,-9,-13,-27,-19,-9,-13,-28,-17
29533323244,10,11,3,1,-3,1,15,9
29533345687,-22,-19,-13,-10,-13,-11,-6,-10
29533345687,-1,-10,-8,-10,-10,-8,6,-2
29533346369,4,12,8,-1,5,14,17,1
29533346369,-9,-15,-3,1,-7,-14,-17,-4
29533360075,-13,-13,-6,1,4,8,10,-3
29533360075,4,5,4,-12,-18,-13,-3,17
29533360696,5,17,16,15,16,22,37,-3
29533360696,-7,-11,-14,-22,-22,-15,9,0
29533382513,4,12,27,28,25,11,1,-5
29533382513,1,4,18,5,7,3,-10,8
29533383189,-7,-18,-15,-5,-10,-13,-23,-9
29533383189,-3,11,13,14,8,2,-15,-7
29533405719,5,-2,-14,-22,-8,-8,-10,-11
29533405719,-13,-17,-17,7,8,5,-1,-10
29533406395,-2,-9,-26,-20,-19,-5,10,-1
29533406395,0,-6,-15,-13,-11,-3,-3,2
29533420039,-10,-6,4,13,-9,-18,-14,-17
29533420039,14,20,23,9,18,12,0,5
29533420741,-14,-24,-16,-13,-10,-12,-5,-2
29533420741,11,13,19,15,9,11,-12,-6
29533442548,-3,-4,6,-18,-16,4,17,15
29533442548,-9,-15,-20,-5,-14,-11,5,-10
29533443214,8,10,19,12,14,12,-6,6
29533443214,-20,-19,-2,12,6,-9,2,-10
29533465699,17,9,-11,14,24,15,19,37
29533465699,0,-3,-11,-19,-22,1,26,3
29533466363,-15,-31,-46,-25,-22,-17,-10,-1
29533466363,3,26,19,-27,-19,-7,-18,-8
29533480088,7,-20,1,46,29,11,7,9
29533480088,6,27,39,8,5,-6,-16,-2
29533480720,-4,6,14,0,1,-1,9,-9
29533480720,7,0,-3,2,11,9,39,25
29533503226,-15,-11,-26,-52,-42,-26,-27,-26
29533503226,14,12,-1,8,-6,-8,-6,3
29533503922,24,32,27,41,35,26,5,18
29533503922,-21,-14,-16,-43,-33,-18,-24,-12
29533525632,7,19,5,28,43,22,34,1
29533525632,-3,-21,-28,10,13,4,1,5
29533526408,-24,-31,-29,-43,-39,-49,-94,-29
29533526408,26,14,16,38,22,31,54,42
29533540007,-27,-38,-9,19,-8,-9,-18,-24
29533540007,0,32,33,10,20,13,2,4
29533540742,-4,-9,-28,-17,-4,4,19,-7
29533540742,20,15,17,33,9,-8,-27,-3
29533563274,-15,-12,-51,-65,-42,-11,-2,-23
29533563274,-8,-31,-21,-3,-5,-3,-2,11
29533563926,8,15,14,29,23,4,-21,0
29533563926,3,4,4,-19,-9,-7,-5,-3
29533585709,-7,35,24,-32,-36,-4,18,-2
29533585709,-13,-50,-70,20,65,31,23,-13
29533586388,10,21,16,-30,-36,-8,10,1
29533586388,21,13,17,2,4,8,-6,-6
29533600047,-3,-4,32,-6,-8,-22,-44,-19
29533600047,-23,-37,-15,-65,-66,-23,19,10
29533600729,-18,-29,-5,27,13,1,9,4
29533600729,-53,-32,-17,11,0,-31,3,-51
29533623168,40,38,30,51,30,8,-30,27
29533623168,7,11,-3,-1,8,-9,-31,12
29533623914,3,30,17,-12,-23,-28,-15,-36
29533623914,-15,-36,-12,5,0,1,-36,-4
29533645590,45,42,7,-6,5,25,61,39
29533645590,-4,-16,-16,6,18,12,51,24
29533646404,-21,-4,-2,-24,-42,-45,-88,-36
29533646404,5,4,-20,-6,5,8,0,-6
29533660034,-15,4,46,27,10,-2,-41,-53
29533660034,-6,-30,-26,-27,-32,-17,-26,-8
29533660678,0,-21,-23,-11,10,21,85,70
29533660678,-6,18,51,2,-21,-11,-45,-35
29533683316,-16,-44,-90,-37,0,-10,-24,-23
29533683316,-6,11,32,8,-6,-26,-56,-35
29533683945,42,59,100,119,108,66,44,18
29533683945,-3,-33,-66,-48,-23,-2,25,25
29533705786,11,23,50,-2,-10,14,92,55
29533705786,5,-9,-33,-44,-22,-11,-22,-16
29533706421,-9,-29,-20,-16,11,24,15,-5
29533706421,45,58,32,73,43,29,70,71
29533720016,-34,-43,-32,-21,-39,-24,30,2
29533720016,15,34,-12,-18,8,48,81,1
29533720691,28,14,-14,46,32,2,12,48
29533720691,-38,-27,-35,-29,-25,-20,-24,-47
29533744543,-23,-25,-41,-50,-59,-43,-36,-3
29533744543,-9,44,36,22,2,-12,-7,-10
29533745366,20,-14,-67,-24,-3,26,39,4
29533745366,-10,-6,-15,-21,-1,19,52,10
29533765751,24,15,32,45,24,-3,-33,4
29533765751,-42,-50,15,41,12,-3,-31,-28
29533766392,-10,10,-6,-51,-45,-39,-81,-49
29533766392,26,6,-11,-28,-8,5,26,54
29533780044,-5,16,12,68,91,54,5,27
29533780044,5,-8,18,-13,-24,-3,19,10
29533780778,25,26,0,39,46,23,29,18
29533780778,-14,-18,-30,-74,-35,-18,-14,-27
29533803252,8,4,18,8,-15,-9,12,6
29533803252,17,20,-4,-25,-28,-22,-19,23
29533803917,-27,-29,-8,-16,-44,-31,9,1
29533803917,3,10,16,-6,26,-6,-79,-14
29533825691,15,-6,-31,-42,-33,3,44,48
29533825691,32,73,50,78,116,64,18,0
29533826424,-36,-74,-83,-102,-97,-49,-35,-52
29533826424,-43,-23,49,82,62,21,8,-22
29533840042,37,57,26,29,40,16,-12,-25
29533840042,25,28,1,-54,-84,-28,34,32
29533840729,-25,-26,-11,-53,-2,16,15,-1
29533840729,11,14,-5,-6,-31,-23,-48,-34
29533863226,-26,-21,22,16,20,6,-30,-37
29533863226,-5,-19,-12,26,-13,-8,29,36
29533863916,21,56,35,16,31,26,3,-13
29533863916,-41,-86,-65,-85,-76,-69,-70,-42
29533885719,41,54,15,-3,17,63,68,49
29533885719,-7,-20,18,48,30,-4,-44,-18
29533886396,-22,-9,13,0,-18,-31,-74,-56
29533886396,17,-14,-21,59,60,25,16,20
29533900047,-14,3,0,-40,-43,-39,-20,-6
29533900047,14,-21,-24,25,21,9,-5,3
29533900665,-6,-15,-13,2,-8,-26,-59,4
29533900665,-3,49,44,2,10,58,108,8
29533923258,4,27,26,20,14,-15,-62,-44
29533923258,-45,-64,-95,-114,-94,-25,18,-32
29533923909,13,3,60,73,56,25,1,28
29533923909,-9,15,21,-3,20,6,-48,-40
29533945744,-35,-58,-17,1,-7,-6,-10,-11
29533945744,19,43,39,-2,14,-9,-42,13
29533946414,4,10,22,3,-4,31,114,34
29533946414,-17,-51,-59,-33,-17,-27,-31,5
29533959348,-44,-35,3,-4,-21,-13,-24,-44
29533959348,18,0,-31,-25,3,-1,-10,10
29533968252,-16,20,33,19,11,-8,-25,-13
29533968252,22,47,45,39,18,11,19,19
29533983354,-17,-30,-49,-29,-27,-31,-30,-23
29533983354,-8,-39,-46,-37,-35,-27,-18,-13
29533984730,18,17,3,2,21,10,-19,-5
29533984730,-30,-32,-23,-62,-84,-41,-3,-11
29534005676,-5,-21,-28,14,69,22,-13,21
29534005676,6,16,29,30,42,16,-13,-12
29534007178,5,-4,-37,-79,-60,-20,3,6
29534007178,10,-22,-30,35,42,14,17,17
29534019380,35,53,42,20,-6,8,36,25
29534019380,-9,-1,9,-13,6,3,-16,-4
29534028250,-34,-52,-9,26,19,6,1,-15
29534028250,42,18,-14,-20,-20,-4,22,50
29534043214,-22,-29,-10,-44,-1,-4,7,-4
29534043214,20,55,64,86,63,42,27,18
29534044748,0,4,17,31,14,-5,-1,9
29534044748,9,37,36,-23,-39,-14,-2,1
29534065732,20,-11,-31,-8,2,2,-3,2
29534065732,-2,-16,-6,-10,3,4,-9,-22
29534067220,-25,10,-3,-30,-16,-15,4,-4
29534067220,33,61,49,52,39,22,3,22
29534079404,-19,-4,7,-32,-67,-33,-26,-14
29534079404,22,48,57,61,66,35,13,-12
29534088203,-1,-20,-43,-46,-56,-20,-27,-17
29534088203,-3,-6,5,-11,17,10,1,4
29534103201,23,57,55,51,20,26,39,9
29534103201,-17,-14,-31,-56,-58,-35,-1,-14
29534104687,-14,-9,22,59,50,15,-22,-18
29534104687,10,-15,-24,-33,-15,-2,-12,-3
29534125751,-2,-30,-35,7,-6,-29,-49,-13
29534125751,-4,-12,-19,-15,-14,1,21,15
29534127201,17,26,8,1,18,3,17,4
29534127201,-25,-43,-25,22,-4,-12,-11,-19
29534139279,4,16,-13,-91,-105,-36,25,-8
29534139279,12,30,12,-18,-22,-24,-31,6
29534148221,-10,-38,4,54,70,47,27,31
29534148221,9,7,-19,-15,-3,0,-6,-3
29534163195,28,43,51,38,46,23,6,15
29534163195,-10,8,7,-24,-23,-10,-18,-11
29534164739,-10,-25,-18,-17,-1,13,24,21
29534164739,9,19,25,39,29,24,43,-3
29534185693,7,-11,-9,22,33,15,-12,5
29534185693,11,29,23,-47,-63,-25,-6,8
29534187212,17,26,29,95,81,27,-24,1
29534187212,-7,-7,-3,-5,12,17,-2,-25
29534199289,-14,-26,-43,-59,-12,4,30,33
29534199289,6,-4,11,69,52,20,14,5
29534208238,25,38,1,-43,-56,-23,-1,5
29534208238,-6,3,12,-12,-18,-19,-32,-13
29534223225,-3,-8,24,80,64,27,2,-5
29534223225,-10,-22,-14,-9,-10,-10,-6,13
29534224702,-34,-58,-47,-61,-66,-31,-6,-47
29534224702,-7,1,17,12,-14,-20,-24,-6
29534245663,-4,-11,-37,-27,-7,-8,-41,-19
29534245663,-4,-45,-43,12,-13,-2,45,56
29534247180,-14,5,16,-27,-16,0,8,-10
29534247180,-4,-19,-29,-65,-71,-34,13,15
29534268191,12,37,45,39,14,6,4,8
29534268191,-28,-46,-43,-58,-51,-19,1,-12
29534269732,17,21,0,-40,-31,-16,-10,6
29534269732,5,-8,-12,14,2,3,14,17
29534283192,11,21,-2,-16,0,-4,-11,-5
29534283192,-17,-17,-8,-25,-27,-19,-24,-12
29534284693,-8,4,17,-14,-57,-26,26,-5
29534284693,-19,-65,-52,63,113,44,-17,-6
29534305721,-5,-43,-33,-10,-7,-1,-1,0
29534305721,11,31,30,-5,-9,2,-4,-3
29534307228,-20,-51,-62,-32,-41,-26,22,-2
29534307228,-19,1,19,22,4,-21,-69,-52
29534328161,19,4,24,78,62,21,0,15
29534328161,-28,-37,-74,-73,-70,-40,-2,-31
29534329687,34,48,72,65,95,59,4,26
29534329687,8,-6,-39,-57,-41,-14,-11,-10
29534343202,-26,-32,-21,-4,28,-1,-23,-14
29534343202,18,56,66,29,36,32,44,17
29534344684,2,-33,-77,-60,-74,-49,-25,3
29534344684,27,66,68,33,33,25,17,21
29534365752,16,26,3,-4,4,5,-27,-12
29534365752,10,7,16,58,73,38,12,5
29534367241,6,17,14,1,-5,1,-7,3
29534367241,-22,-19,-2,-14,-17,-17,-17,-8
29534388137,-37,-67,-63,-70,-65,-36,-6,-38
29534388137,34,67,66,37,42,42,27,13
29534389677,-22,-38,-5,34,36,14,3,13
29534389677,20,4,-34,28,-7,2,12,7
29534403173,2,33,42,19,-10,-18,-15,-1
29534403173,-37,-57,-40,-13,-30,-30,-16,-20
29534404695,-6,-20,-14,-25,-12,-9,-16,-16
29534404695,25,49,50,33,52,48,43,28
29534425729,-27,-29,2,6,20,19,33,0
29534425729,8,11,21,14,27,10,-21,-12
29534427201,15,40,-1,-16,-25,-18,-12,-12
29534427201,-52,-71,-44,-36,-24,-23,-8,-23
29534448191,22,6,-24,-24,-51,-22,10,16
29534448191,-4,-5,-21,0,46,31,-25,-18
29534449676,-18,-11,4,32,33,15,20,-2
29534449676,-3,22,33,11,17,9,3,1
29534462535,39,15,-38,-15,2,21,31,32
29534462535,-23,-36,-32,-56,-59,-42,-25,-7
29534469376,-16,-25,1,38,47,17,-9,-3
29534469376,34,42,28,19,10,11,29,38
29534485690,-29,-20,-28,-79,-74,-35,4,-36
29534485690,-3,3,17,55,46,16,8,-2
29534487231,50,11,-31,21,5,9,34,45
29534487231,-1,16,21,-10,-19,-10,3,-10
29534508144,-36,-44,-1,15,-11,-19,-12,-12
29534508144,27,41,7,-77,-83,-34,-8,5
29534509691,2,7,25,56,74,40,-8,4
29534509691,7,0,12,8,-5,14,5,14
29534522486,-5,24,43,19,30,19,-16,-4
29534522486,-25,-61,-55,-17,0,-10,-22,-15
29534529416,-9,-5,-7,-29,-28,-11,25,5
29534529416,18,51,32,0,-3,-17,-47,-12
29534545650,3,-10,-20,-54,-39,9,68,40
29534545650,-12,-7,2,-4,15,6,1,-15
29534547195,-9,-9,6,28,68,35,-1,-15
29534547195,1,26,36,27,26,5,4,-12
29534568198,11,12,-13,-20,-7,-3,8,7
29534568198,-8,-10,10,24,-2,-20,-26,-19
29534569719,-8,39,69,0,-37,-30,-22,-10
29534569719,-12,-42,-53,-33,-15,-2,3,5
29534582518,-5,-23,3,27,30,9,-25,4
29534582518,-5,2,5,-16,-21,-6,0,-14
29534589320,30,49,25,42,20,12,12,22
29534589320,7,8,2,5,-17,-8,11,4
29534605741,-30,-24,-18,-46,-43,-30,14,-40
29534605741,17,11,25,20,8,6,52,31
29534607174,26,7,-8,12,33,25,16,19
29534607174,-12,-27,-66,-119,-105,-42,11,4
29534628221,20,24,31,103,64,26,-15,25
29534628221,-7,18,29,16,21,6,-53,-34
29534629710,1,-1,-4,-30,-33,-11,-6,8
29534629710,-25,-35,-27,-56,-67,-38,-6,-9
29534642450,21,36,6,35,40,22,4,-1
29534642450,27,51,56,20,-11,1,5,30
29534649317,21,20,-19,-70,-60,-22,-1,5
29534649317,-25,-22,7,28,44,14,-25,-22
29534665856,-27,-21,39,22,34,3,-25,-13
29534665856,34,21,-4,30,32,38,54,51
29534667198,-4,17,-7,-64,-67,-30,-5,-11
29534667198,-30,-40,-21,-18,3,-11,-41,-26
29534688138,19,43,46,63,64,36,-7,-4
29534688138,29,10,-13,-3,-4,14,12,28
29534689676,-20,-31,-1,-10,0,-9,-21,-14
29534689676,11,-5,-13,14,8,1,6,8
29534702458,-34,-51,-45,-53,-55,-30,5,-24
29534702458,-11,41,40,15,-9,-13,-35,-61
29534709440,-4,-12,-19,-28,-36,-5,25,-2
29534709440,-1,-17,6,90,69,13,-30,-16
29534725763,15,3,-22,-49,-42,-11,17,28
29534725763,-32,-33,-24,-21,-28,-36,-49,-42
29534727209,-20,-47,-42,4,-9,-15,-21,-11
29534727209,-14,17,-25,-88,-50,-24,-17,-53
29534748074,64,40,25,52,74,52,25,55
29534748074,-61,-94,-84,-65,-12,-30,-32,-16
29534749700,47,91,98,56,31,32,27,23
29534749700,-5,-20,-22,-26,-23,-6,19,22
29534761754,-9,4,-30,-85,-87,-43,-17,-15
29534761754,32,6,51,117,107,46,19,28
29534770714,-27,-25,-21,-47,-29,-16,-27,-31
29534770714,28,7,-11,24,4,9,41,38
29534785721,7,12,18,12,-4,-6,-20,-18
29534785721,-25,-15,-25,-44,-47,-16,26,-7
29534787232,-16,-23,-10,1,11,-3,-12,-9
29534787232,15,24,32,46,49,30,15,23
29534808185,-10,-4,6,2,-9,-8,-2,-9
29534808185,-12,-23,-33,-27,-18,-4,-2,-13
29534809702,-11,-13,-3,19,14,5,-4,-3
29534809702,-6,10,19,-11,-16,-3,5,0
29534821880,-11,-10,-3,1,-18,-22,-23,-8
29534821880,-3,-8,-6,-8,3,7,10,3
29534830715,-1,-6,-15,-16,-13,-12,-2,-2
29534830715,10,9,20,27,27,17,11,14
29534845642,-11,-3,-1,-21,-22,-10,2,-4
29534845642,8,-17,-33,11,12,6,-3,6
29534847187,-15,-20,-12,1,-3,-7,-9,-12
29534847187,-4,0,-2,-19,-15,-7,29,-6
29534868198,-3,-17,-19,-7,0,2,20,0
29534868198,-3,3,4,-4,-11,-5,35,0
29534869701,6,-3,-16,-16,-3,2,28,4
29534869701,3,8,9,10,11,5,-11,0
29534881825,-4,-2,0,-10,-4,-18,-17,-1
29534881825,6,4,4,9,8,-26,-33,7
29534890712,-4,-2,-4,0,-9,-29,-8,-8
29534890712,1,1,6,3,4,-7,-6,0
29534905692,-7,-4,0,5,3,-12,11,-2
29534905692,4,10,8,-6,-7,-9,-7,1
29534907175,-1,-2,-3,0,-1,10,-54,-2
29534907175,1,-1,4,7,0,5,-5,0
29534928239,1,0,-6,-13,-5,23,-27,0
29534928239,3,7,10,18,8,12,-19,5
29534929704,-3,-3,-4,-13,-10,-10,-43,-3
29534929704,-1,-4,-12,5,10,4,-60,0
29534941827,0,3,-6,1,0,0,-45,-1
29534941827,2,3,-16,-8,-4,6,-30,0
29534950742,-2,-3,-20,2,0,8,4,-3
29534950742,-2,-2,-11,-4,-5,8,-16,-1
29534965681,-4,-3,5,-2,1,-1,-3,-1
29534965681,-4,-1,13,-7,-13,4,-48,-4
29534967210,2,1,11,8,7,12,-19,0
29534967210,-4,-3,13,0,-1,7,-21,-1
29534988236,-1,-5,-14,-4,3,4,-50,-1
29534988236,5,1,2,3,-2,6,16,-3
29534989650,-16,-14,-18,-6,0,-4,11,-2
29534989650,12,3,13,3,-1,3,127,7
29535001730,0,0,0,8,0,4,72,0
29535001730,2,0,6,-3,0,0,117,0
29535010742,-1,3,-81,-2,0,3,36,-4
29535010742,-7,-6,-114,-4,-4,-4,-20,-7
29535025009,-1,-2,-125,-9,-7,-5,-20,-2
29535025009,-2,0,-75,-6,-3,-1,-10,-1
29535032027,0,1,17,2,-1,-1,12,-1
29535032027,-3,7,31,2,-1,-2,-7,-2
29535048163,2,3,44,-5,0,-1,60,1
29535048163,-1,5,65,7,-1,-3,3,-4
29535049693,1,-2,62,-1,3,0,9,3
29535049693,-6,-13,42,-21,-9,-7,2,-7
29535061824,4,14,80,10,4,2,18,0
29535061824,-6,-3,27,-3,-1,-2,-4,-1
29535070717,-4,-5,22,-7,-5,-6,16,-3
29535070717,-5,0,37,1,-2,-1,-11,-3
29535085827,-3,-9,-7,-6,-4,-4,-24,-1
29535085827,10,10,-18,4,4,-1,-6,4
29535087178,0,-4,-16,-4,-6,-6,-7,-3
29535087178,0,7,-52,7,3,2,13,2
29535109486,-1,-3,-42,-3,-7,-5,103,-1
29535109486,-5,-8,-88,-13,-2,-1,21,-2
29535111118,1,-1,-37,7,1,-2,0,-1
29535111118,-4,-8,-13,-9,-9,-6,-28,-3
29535121734,1,2,15,12,9,4,-63,-1
29535121734,-2,0,1,-1,0,-1,-16,1
29535130740,5,4,26,1,1,-2,-17,1
29535130740,1,1,46,-2,0,-1,-29,0
29535145080,-4,-4,58,-10,-6,-5,-22,-5
29535145080,-6,-8,62,1,1,0,-7,0
29535151790,-1,-6,38,-3,1,0,-18,-2
29535151790,5,4,23,4,3,3,11,4
29535168188,-17,-7,10,-7,-2,-2,-4,-8
29535168188,17,8,37,14,7,2,-16,12
29535169700,-1,-6,-1,-4,-8,-2,-9,1
29535169700,8,12,31,11,5,1,6,1
29535181990,-4,1,1,-3,1,0,-4,-1
29535181990,3,3,-8,-1,-2,-2,-7,-3
29535198230,-5,-5,-34,-4,-4,-3,11,-3
29535198230,-2,-6,-23,1,3,-1,39,2
29535205040,4,4,5,7,0,-3,31,-1
29535205040,-8,-9,4,-9,-6,-4,-21,-4
29535211811,2,3,29,-1,0,0,-17,1
29535211811,-3,0,17,-5,-1,-2,-20,-1
29535228204,4,4,21,4,1,1,-16,3
29535228204,-3,-7,9,-7,-7,-5,-8,-4
29535229710,-3,0,4,-2,-2,1,5,2
29535229710,-5,-7,-8,-6,-4,-5,-11,-5
29535250701,5,4,7,3,1,1,-10,2
29535250701,-6,-11,-8,-2,-3,-2,3,-1
29535252176,2,14,20,3,4,0,0,0
29535252176,0,0,11,6,3,2,14,0
29535264946,2,0,-5,-2,-1,-2,-9,2
29535264946,-3,-5,-10,-3,-1,0,1,-3
29535271914,0,-3,-4,9,2,0,10,-1
29535271914,-7,-6,-24,-11,-9,-5,1,-11
29535288174,2,-1,-4,8,2,1,-2,13
29535288174,-5,-1,-13,-5,1,2,2,-2
29535289699,0,-2,-11,-2,0,-3,2,-1
29535289699,-1,1,-10,7,3,1,-8,-1
29535310700,0,-5,-13,-5,-5,-2,-14,-6
29535310700,-6,-8,-15,-10,-6,-4,0,-3
29535312205,1,7,11,4,0,-1,10,-1
29535312205,2,2,5,1,0,-1,0,1
29535325117,-3,-4,-10,-6,-5,-3,6,-2
29535325117,-3,0,3,-1,-2,-1,8,-1
29535331792,-3,-4,-12,-13,-8,-5,-1,-4
29535331792,3,3,8,3,5,2,3,3
29535348180,3,-1,-3,-1,-1,-1,-11,-1
29535348180,1,6,1,-6,-1,-3,-7,-3
29535349687,4,10,14,11,2,4,3,1
29535349687,-6,-4,-19,-10,-8,-5,2,-2
29535370755,-3,-9,-2,2,2,2,0,-3
29535370755,15,21,12,10,-1,-1,4,5
29535372203,-4,-8,-18,-16,-6,-4,1,-6
29535372203,5,12,40,23,8,4,5,3
29535385022,-2,0,4,3,0,-1,-5,-3
29535385022,-9,-9,-8,-1,-3,-1,-5,-5
29535391850,-2,-6,-9,-1,-3,-2,-1,0
29535391850,-2,-8,-22,-14,-9,-5,-7,0
29535408292,-5,-5,-10,-6,-6,-3,-1,-1
29535408292,-1,1,4,5,2,1,2,-2
29535409682,-2,-5,-15,-9,-3,-2,-3,3
29535409682,-1,-3,-5,1,-1,-3,-6,-6
29535430751,-4,-4,-7,-3,-1,-2,-1,1
29535430751,0,1,-9,-8,-1,0,1,1
29535432148,4,4,-3,5,5,4,4,0
29535432148,-2,-9,-17,-12,-7,-4,-1,1
29535445029,9,21,38,24,5,0,1,3
29535445029,-5,-4,2,-2,0,-1,-1,-3
29535451848,-10,-14,-15,-11,-5,-5,-1,-5
29535451848,7,6,-3,1,2,1,15,3
29535468193,0,-3,-18,-12,-2,-1,0,-1
29535468193,-2,-5,-6,-3,-1,0,-1,-1
29535469708,-4,0,2,-3,-4,-1,-4,-3
29535469708,-3,-11,-7,3,-1,-1,-8,-2
29535490663,-4,-7,-28,-22,-8,-2,-2,-3
29535490663,-3,14,47,42,14,4,1,1
29535492175,9,-1,-6,-6,-1,-3,-6,2
29535492175,2,0,-6,-2,-2,-1,-3,2
29535504357,-1,-4,-6,-5,-3,-4,0,1
29535504357,-3,-11,-18,-13,-5,-3,-4,-3
29535513205,-7,-6,-2,6,2,0,1,-4
29535513205,6,21,28,10,4,4,3,2
29535528175,1,7,6,1,0,2,1,1
29535528175,2,1,-14,-10,-3,-1,-1,0
29535529655,-5,-7,9,13,6,1,-2,-2
29535529655,-3,-3,-8,-12,-5,-4,-5,-1
29535550703,-3,-10,-10,-3,-2,-1,-2,-1
29535550703,-1,3,13,8,5,1,0,2
29535552196,1,1,-10,-4,-5,-2,0,-1
29535552196,-6,-6,-2,2,0,1,-2,-2
29535564365,-3,-3,-1,2,2,2,0,-3
29535564365,-1,-4,-17,-12,-4,-3,-3,-1
29535573211,6,6,1,6,3,1,2,2
29535573211,-12,-8,-11,-4,-4,0,1,-7
29535588181,-3,-10,-4,-3,-1,-2,0,0
29535588181,9,15,21,5,0,2,7,5
29535589670,4,14,21,6,-2,-2,0,0
29535589670,-1,-5,-16,-11,-2,-1,-2,1
29535610667,-1,-2,-4,0,0,-1,-4,-3
29535610667,-5,-10,-15,-10,-4,-3,-3,-5
29535612200,1,-1,5,0,-1,0,-2,0
29535612200,-4,-4,0,0,-1,-1,-5,-3
29535624356,6,9,9,1,-3,-1,-1,1
29535624356,1,3,4,2,0,1,2,1
29535633229,-4,-4,-2,3,2,2,1,-3
29535633229,4,2,4,-1,-2,-2,-1,0
29535648197,-7,-10,-14,-6,-3,-3,-2,-4
29535648197,-1,3,16,9,6,4,-1,0
29535649684,2,0,-10,-5,-3,-2,1,3
29535649684,2,2,10,7,3,0,-2,0
29535670650,-2,-3,-4,-2,-1,-3,-3,-5
29535670650,-8,-23,-30,-17,-10,-8,-1,-8
29535672156,6,13,17,4,2,3,4,4
29535672156,0,1,2,-4,-4,-2,-4,-2
29535684291,4,11,13,5,4,1,0,1
29535684291,-9,-10,-15,-3,-1,-1,-5,-4
29535693232,2,-1,0,-4,2,0,-2,-2
29535693232,-6,-7,-10,-6,-2,-3,-6,-3
29535708199,2,5,14,6,-1,0,-1,-2
29535708199,0,-1,-8,-4,-1,3,-1,-1
29535709682,-5,-6,-8,-9,-7,-4,-4,-4
29535709682,0,1,1,0,-5,-3,-1,1
29535730683,-2,-8,-12,1,2,0,-1,0
29535730683,2,7,7,-3,-2,-1,-1,-1
29535732159,-4,-1,1,-5,-4,-1,0,-4
29535732159,-3,-5,-5,-2,2,1,-1,-4
29535753211,-2,-2,-11,-6,2,0,-1,0
29535753211,-3,-3,2,3,-1,0,-1,-2
29535754686,-4,-6,0,-2,1,1,1,-3
29535754686,-1,0,8,3,1,0,1,0
29535768203,2,1,2,3,-2,0,1,1
29535768203,-6,-14,-12,-9,-4,-6,-5,-2
29535769705,1,6,-1,-6,-3,0,-1,1
29535769705,9,15,18,12,4,0,4,3
29535790746,-5,-2,4,-6,-4,-5,-4,-5
29535790746,10,13,12,11,4,1,-2,5
29535792148,-5,-13,-19,-13,-10,-9,-6,-4
29535792148,-3,-7,-8,0,6,4,4,2
29535804323,-1,6,7,-3,-2,-2,-2,-2
29535804323,-5,-8,-12,-8,-5,-2,-1,-3
29535813236,-3,-6,-10,-2,3,-2,-2,2
29535813236,0,1,10,13,2,0,-2,1
29535828206,-2,1,7,4,3,2,2,0
29535828206,2,5,-4,-5,-3,-5,-2,0
29535829681,-7,-13,-20,-6,-2,-2,-2,-5
29535829681,-6,0,4,-6,-3,-5,0,-3
29535850777,4,3,1,4,4,2,4,3
29535850777,-2,-2,1,3,4,2,2,-1
29535852178,3,10,22,8,1,0,-1,0
29535852178,-7,-11,-15,-17,-7,-3,-3,-5
29535864317,-4,-8,-7,-4,-6,-1,-2,-3
29535864317,-5,-10,-8,-5,-4,1,4,0
29535873185,-1,3,13,13,8,3,-1,-2
29535873185,0,-4,-8,-3,-3,-2,1,-1
29535888173,-1,6,-1,-3,-2,-4,-3,-3
29535888173,1,-2,-5,-5,-2,0,2,-1
29535889578,0,-4,-6,-2,-4,-1,3,0
29535889578,-3,-9,-9,-2,-2,-1,-4,-2
29535910731,-3,5,16,5,-1,-3,-4,-2
29535910731,1,2,0,-1,6,1,-2,1
29535912177,3,3,9,5,0,0,1,2
29535912177,-3,3,6,-1,-3,-2,1,-4
29535924381,-2,-10,-24,-12,-11,-11,-10,-3
29535924381,3,8,17,13,5,3,-2,1
29535933208,-1,0,3,1,-2,-2,-4,-2
29535933208,-1,2,-4,-9,-3,1,1,-1
29535948170,-4,-4,-3,3,3,0,0,-1
29535948170,1,0,-5,-7,-7,-4,-1,3
29535949656,0,0,1,3,3,1,-3,-1
29535949656,-4,-6,-5,-3,-5,-5,-4,-4
29535970730,5,1,1,2,7,3,2,4
29535970730,-5,-4,-6,-6,-3,-2,-4,-5
29535972201,-5,-4,-3,-4,-3,-2,-1,-3
29535972201,15,16,16,12,8,4,0,6
29535984299,-2,-2,-6,-6,-2,1,3,-2
29535984299,4,2,7,8,0,-3,-1,0
29535993212,-2,-5,-8,-6,-7,-4,-6,-3
29535993212,-7,-10,-13,-7,-6,-1,1,-1
29536008175,2,-4,-11,-6,-1,1,2,4
29536008175,-3,-4,6,7,-1,-2,1,-3
29536009664,4,8,16,16,10,6,8,3
29536009664,1,6,5,2,0,-6,-14,0
29536030684,-9,-10,-8,-12,-8,-3,-5,-4
29536030684,-6,-9,-9,3,0,2,3,-1
29536032151,5,5,0,-7,3,2,-4,3
29536032151,-2,-7,-8,-3,1,0,-2,-2
29536044336,-4,2,6,0,0,1,1,-1
29536044336,0,1,-3,-5,-1,-4,-8,-2
29536053235,-10,-13,-20,-13,-8,-6,0,-5
29536053235,0,2,10,9,2,0,-1,-1
29536068260,1,1,-3,-2,-2,2,2,0
29536068260,0,-2,-3,-4,-3,-5,-6,0
29536069676,-4,1,0,-1,-4,-4,-4,-5
29536069676,-3,-6,-8,-6,-1,0,-1,-1
29536090648,-2,-8,2,2,-1,-5,-3,-4
29536090648,2,3,-8,-7,-3,-2,0,-2
29536092149,3,0,-5,-5,0,0,2,2
29536092149,0,2,1,1,-3,-3,-2,-4
29536104357,-1,0,-11,-14,-6,-3,2,0
29536104357,-1,1,12,23,8,0,-11,-3
29536113189,4,6,10,4,3,1,0,1
29536113189,0,-3,-1,1,0,2,2,-1
29536128195,-2,-4,-15,-12,-10,-8,-3,-4
29536128195,-6,-9,-9,-7,-5,-3,2,-5
29536129762,0,3,13,14,3,1,5,0
29536129762,-2,-1,-9,-7,-2,0,-1,0
29536150716,1,5,15,17,10,3,0,2
29536150716,0,0,-8,-13,-7,-1,0,-1
29536152181,-1,-4,-1,4,0,0,1,-2
29536152181,0,-5,-3,3,-2,-3,2,-1
29536173080,1,2,7,6,0,1,2,0
29536173080,1,5,8,1,-2,-2,-3,-2
29536174715,-3,-8,-24,-17,-6,-4,-3,-1
29536174715,-3,0,-6,-8,-5,-4,-2,-1
29536188170,-3,-6,1,6,6,4,1,1
29536188170,4,15,17,2,2,0,1,1
29536189895,1,-1,-5,-2,-1,0,0,0
29536189895,-1,-11,-18,-7,0,0,-2,-2
29536210712,3,9,21,5,1,2,-3,-1
29536210712,3,-3,-13,-8,-4,-1,5,5
29536212239,2,1,2,0,0,0,-1,1
29536212239,-2,2,3,2,-2,-1,-5,-2
29536233190,-7,-11,-14,-8,-7,-2,-5,-4
29536233190,-4,-4,-2,-2,-1,1,-2,-2
29536234692,-4,4,7,3,1,1,4,-4
29536234692,-13,-7,-14,-14,-6,-2,-1,-10
29536247490,18,12,16,16,5,0,-2,11
29536247490,-3,-8,-11,-7,-3,-1,-3,3
29536254367,-3,-3,-5,-9,-5,-6,-5,-2
29536254367,1,2,4,-1,-1,-1,-1,1
29536270637,-12,0,-8,-6,-3,-2,5,-9
29536270637,-3,-2,-1,0,0,3,6,1
29536272180,-1,-9,-4,5,4,1,-3,4
29536272180,2,8,10,0,-3,-3,-2,0
29536293177,-2,-2,-3,-6,-4,-1,-3,0
29536293177,-5,-5,3,6,0,-4,-4,-4
29536294580,2,6,-6,-11,-8,-7,-12,-4
29536294580,2,1,13,14,5,2,3,4
29536307260,-3,-8,-10,-2,-1,-3,1,-2
29536307260,6,6,3,0,-1,-3,3,2
29536315710,3,9,15,3,-1,0,7,0
29536315710,1,-5,-6,-4,-2,0,6,2
29536330667,-4,0,-1,-4,-5,-6,1,-3
29536330667,1,-21,-30,-11,-6,-4,3,-3
29536332193,5,11,20,5,2,0,-1,3
29536332193,3,3,0,0,0,-1,-14,0
29536353139,-9,0,-3,-4,3,2,-13,-5
29536353139,10,-3,-3,-5,-2,-1,-1,8
29536354578,-1,-10,-11,-3,0,2,2,0
29536354578,5,8,8,0,0,-2,3,2
29536367402,4,2,7,4,5,3,-4,1
29536367402,-12,2,1,-2,-2,-4,5,-8
