27686193787,-0.119384765625,0.142578125,-0.787292480469,0.587890625
27686214924,-0.119323730469,0.142578125,-0.787292480469,0.587951660156
27686230097,-0.120910644531,0.139099121094,-0.787841796875,0.587646484375
27686253728,-0.116760253906,0.145202636719,-0.786743164062,0.588500976562
27686275055,-0.114379882812,0.148742675781,-0.785949707031,0.589111328125
27686290048,-0.117553710938,0.144104003906,-0.786743164062,0.588562011719
27686321731,-0.121154785156,0.140014648438,-0.787475585938,0.587951660156
27686343744,-0.120483398438,0.141235351562,-0.787231445312,0.588073730469
27686350205,-0.117248535156,0.145935058594,-0.786254882812,0.5888671875
27686389392,-0.120300292969,0.141296386719,-0.787048339844,0.58837890625
27686391505,-0.123474121094,0.137329101562,-0.787658691406,0.587768554688
27686410720,-0.123229980469,0.138061523438,-0.787536621094,0.587829589844
27686425750,-0.125793457031,0.13818359375,-0.786987304688,0.587951660156
27686451033,-0.125366210938,0.138610839844,-0.786987304688,0.588012695312
27686470777,-0.125061035156,0.138488769531,-0.786865234375,0.588256835938
27686514843,-0.124694824219,0.138427734375,-0.786804199219,0.588439941406
27686525075,-0.124694824219,0.138427734375,-0.786804199219,0.588439941406
27686531221,-0.127563476562,0.136352539062,-0.78662109375,0.588500976562
27686546188,-0.129089355469,0.135559082031,-0.786560058594,0.588439941406
27686568722,-0.13037109375,0.134155273438,-0.786682128906,0.588317871094
27686599340,-0.126770019531,0.139343261719,-0.785705566406,0.589172363281
27686620342,-0.12255859375,0.144104003906,-0.784851074219,0.590148925781
27686636786,-0.124572753906,0.140014648438,-0.785522460938,0.589782714844
27686659363,-0.127685546875,0.136535644531,-0.7861328125,0.589111328125
27686673707,-0.124694824219,0.142883300781,-0.785034179688,0.589721679688
27686696922,-0.121520996094,0.1484375,-0.783935546875,0.590454101562
27686719369,-0.123901367188,0.143249511719,-0.784973144531,0.58984375
27686733745,-0.121154785156,0.145263671875,-0.784973144531,0.590026855469
27686756928,-0.122253417969,0.146789550781,-0.78515625,0.589111328125
27686779344,-0.123962402344,0.1494140625,-0.784973144531,0.588317871094
27686784864,-0.124877929688,0.152282714844,-0.784790039062,0.587646484375
27686807309,-0.124328613281,0.154846191406,-0.784484863281,0.587524414062
27686829856,-0.122192382812,0.1572265625,-0.78369140625,0.58837890625
27686844830,-0.118103027344,0.158508300781,-0.783081054688,0.589660644531
27686867326,-0.112548828125,0.159545898438,-0.782531738281,0.591247558594
27686889849,-0.107116699219,0.160888671875,-0.781433105469,0.59326171875
27686904848,-0.101684570312,0.162353515625,-0.780151367188,0.595581054688
27686927228,-0.0953369140625,0.163696289062,-0.778686523438,0.59814453125
27686949850,-0.087890625,0.164489746094,-0.77734375,0.600830078125
27686964827,-0.0789794921875,0.164306640625,-0.776062011719,0.603759765625
27686987417,-0.0684814453125,0.163024902344,-0.775085449219,0.606628417969
27687009827,-0.057373046875,0.162719726562,-0.774230957031,0.60888671875
27687024797,-0.0476684570312,0.164916992188,-0.77294921875,0.610778808594
27687047305,-0.0386962890625,0.168823242188,-0.770874023438,0.612976074219
27687069870,-0.0296020507812,0.173645019531,-0.768676757812,0.614929199219
27687084692,-0.0202026367188,0.1787109375,-0.766052246094,0.617065429688
27687107177,-0.0093994140625,0.183654785156,-0.763366699219,0.619262695312
27687129733,0.0025634765625,0.188659667969,-0.7607421875,0.620971679688
27687155146,0.0155639648438,0.193908691406,-0.757751464844,0.622863769531
27687167394,0.0277099609375,0.200744628906,-0.754272460938,0.624450683594
27687189778,0.0393676757812,0.208618164062,-0.750427246094,0.625915527344
27687206187,0.0513916015625,0.216491699219,-0.74658203125,0.627014160156
27687227269,0.06494140625,0.224243164062,-0.743103027344,0.627075195312
27687249736,0.0792236328125,0.231811523438,-0.739624023438,0.626892089844
27687264881,0.0926513671875,0.240234375,-0.735778808594,0.626403808594
27687287381,0.106689453125,0.2490234375,-0.731506347656,0.625732421875
27687309823,0.120727539062,0.258483886719,-0.726989746094,0.624572753906
27687324803,0.134643554688,0.2685546875,-0.72216796875,0.623046875
27687347322,0.148254394531,0.278869628906,-0.717102050781,0.621276855469
27687369814,0.161682128906,0.288940429688,-0.711975097656,0.619201660156
27687384829,0.175170898438,0.298706054688,-0.706909179688,0.61669921875
27687407328,0.189208984375,0.308044433594,-0.701843261719,0.61376953125
27687429793,0.203369140625,0.317321777344,-0.696350097656,0.610717773438
27687444824,0.216918945312,0.326416015625,-0.690795898438,0.607604980469
27687476216,0.230163574219,0.335205078125,-0.685119628906,0.604370117188
27687489832,0.243896484375,0.343322753906,-0.679504394531,0.600769042969
27687506225,0.257202148438,0.350891113281,-0.673828125,0.597229003906
27687527236,0.27001953125,0.357971191406,-0.668151855469,0.593688964844
27687549885,0.282348632812,0.364501953125,-0.662475585938,0.59033203125
27687566160,0.294067382812,0.370483398438,-0.656982421875,0.587036132812
27687587352,0.304992675781,0.376098632812,-0.651428222656,0.584106445312
27687610535,0.315063476562,0.381103515625,-0.645935058594,0.581604003906
27687626128,0.324340820312,0.385681152344,-0.640625,0.579345703125
27687647182,0.333190917969,0.3896484375,-0.635375976562,0.577453613281
27687669703,0.34130859375,0.393249511719,-0.630126953125,0.575988769531
27687686190,0.3486328125,0.396484375,-0.624816894531,0.5751953125
27687707332,0.354797363281,0.399658203125,-0.619689941406,0.574768066406
27687729829,0.360290527344,0.402282714844,-0.614990234375,0.574584960938
27687747600,0.365051269531,0.404418945312,-0.610717773438,0.574645996094
27687767347,0.369323730469,0.405883789062,-0.606750488281,0.575012207031
27687789857,0.372924804688,0.407165527344,-0.602905273438,0.575805664062
27687807646,0.37548828125,0.40869140625,-0.599304199219,0.576843261719
27687834847,0.377868652344,0.409606933594,-0.59619140625,0.577880859375
27687849864,0.380004882812,0.41015625,-0.593383789062,0.578979492188
27687875116,0.382019042969,0.411010742188,-0.590698242188,0.579833984375
27687887351,0.383972167969,0.41162109375,-0.588073730469,0.580810546875
27687905121,0.385437011719,0.412292480469,-0.585571289062,0.581848144531
27687927609,0.386779785156,0.413208007812,-0.583190917969,0.582702636719
27687947436,0.388122558594,0.413818359375,-0.581115722656,0.583374023438
27687965174,0.3896484375,0.413940429688,-0.579711914062,0.583679199219
27687987609,0.390930175781,0.414123535156,-0.578491210938,0.583923339844
27688007166,0.391845703125,0.414489746094,-0.577392578125,0.584167480469
27688038675,0.392456054688,0.414855957031,-0.576599121094,0.584289550781
27688047635,0.392883300781,0.414978027344,-0.576171875,0.584289550781
27688067331,0.393249511719,0.415344238281,-0.575866699219,0.584106445312
27688085193,0.393493652344,0.415283203125,-0.575744628906,0.584045410156
27688114000,0.393615722656,0.415405273438,-0.57568359375,0.583984375
27688127161,0.393615722656,0.415466308594,-0.57568359375,0.583984375
27688145073,0.393859863281,0.415344238281,-0.575561523438,0.583984375
27688166813,0.393798828125,0.415588378906,-0.575317382812,0.584106445312
27688188704,0.393798828125,0.415588378906,-0.5751953125,0.584228515625
27688212659,0.393981933594,0.415344238281,-0.575134277344,0.584350585938
27688227673,0.394287109375,0.415100097656,-0.574890136719,0.584594726562
27688247257,0.394348144531,0.414916992188,-0.574645996094,0.584899902344
27688265223,0.394165039062,0.414794921875,-0.574401855469,0.585327148438
27688287733,0.393798828125,0.414672851562,-0.574401855469,0.585693359375
27688314820,0.393798828125,0.414611816406,-0.574401855469,0.585693359375
27688325124,0.393798828125,0.414611816406,-0.574401855469,0.585693359375
27688347621,0.393493652344,0.414672851562,-0.574462890625,0.585754394531
27688370145,0.393188476562,0.41455078125,-0.574768066406,0.585815429688
27688384287,0.39306640625,0.414367675781,-0.575134277344,0.585632324219
27688406816,0.393249511719,0.414123535156,-0.575317382812,0.585571289062
27688427962,0.392578125,0.414367675781,-0.575317382812,0.585754394531
27688444341,0.392517089844,0.414367675781,-0.575378417969,0.585754394531
27688466745,0.392578125,0.414123535156,-0.57568359375,0.585571289062
27688487913,0.392639160156,0.413940429688,-0.575622558594,0.585754394531
27688504334,0.392150878906,0.413879394531,-0.575500488281,0.586242675781
27688526817,0.391723632812,0.413635253906,-0.575744628906,0.58642578125
27688547973,0.391479492188,0.413208007812,-0.576110839844,0.586547851562
27688564275,0.391174316406,0.412780761719,-0.576171875,0.587036132812
27688586854,0.390258789062,0.412658691406,-0.576354980469,0.587524414062
27688608221,0.389526367188,0.412292480469,-0.576843261719,0.587768554688
27688624337,0.389038085938,0.411987304688,-0.577331542969,0.587829589844
27688646888,0.388610839844,0.411682128906,-0.577575683594,0.588073730469
27688668163,0.387817382812,0.41162109375,-0.577880859375,0.58837890625
27688684318,0.387145996094,0.411437988281,-0.578308105469,0.588500976562
27688706800,0.386657714844,0.4111328125,-0.578735351562,0.588562011719
27688727910,0.386413574219,0.410888671875,-0.578979492188,0.588745117188
27688744347,0.385864257812,0.410949707031,-0.579040527344,0.588989257812
27688766788,0.385192871094,0.410949707031,-0.579284667969,0.589233398438
27688789329,0.384765625,0.410766601562,-0.579650878906,0.589233398438
27688804347,0.384704589844,0.410461425781,-0.579772949219,0.58935546875
27688826800,0.38427734375,0.410278320312,-0.579833984375,0.589660644531
27688849324,0.3837890625,0.410217285156,-0.580017089844,0.589904785156
27688864077,0.383728027344,0.410217285156,-0.580017089844,0.589904785156
27688886828,0.383728027344,0.409851074219,-0.580200195312,0.590026855469
27688909377,0.383361816406,0.409729003906,-0.580200195312,0.590270996094
27688923671,0.383056640625,0.409851074219,-0.580322265625,0.59033203125
27688946831,0.382995605469,0.409851074219,-0.580322265625,0.59033203125
27688969300,0.383056640625,0.409606933594,-0.58056640625,0.590209960938
27688983686,0.382873535156,0.409606933594,-0.580627441406,0.590270996094
27689006820,0.382507324219,0.409790039062,-0.580810546875,0.590270996094
27689029311,0.382385253906,0.409790039062,-0.581176757812,0.589904785156
27689043646,0.382507324219,0.409545898438,-0.581298828125,0.589904785156
27689066814,0.382507324219,0.409545898438,-0.581298828125,0.589904785156
27689089328,0.382507324219,0.409606933594,-0.581298828125,0.58984375
27689103708,0.382568359375,0.409362792969,-0.581604003906,0.589721679688
27689126758,0.382629394531,0.409118652344,-0.581726074219,0.589721679688
27689149286,0.382507324219,0.408996582031,-0.581848144531,0.589782714844
27689163715,0.382263183594,0.408874511719,-0.58203125,0.58984375
27689186797,0.382080078125,0.408508300781,-0.582214355469,0.590026855469
27689209729,0.381774902344,0.408081054688,-0.582336425781,0.590393066406
27689224098,0.38134765625,0.407653808594,-0.582397460938,0.590881347656
27689246810,0.380981445312,0.4072265625,-0.582397460938,0.591430664062
27689269298,0.380493164062,0.406555175781,-0.582397460938,0.592224121094
27689290458,0.379943847656,0.40576171875,-0.582458496094,0.593017578125
27689306935,0.379028320312,0.405090332031,-0.58251953125,0.593994140625
27689329320,0.377685546875,0.404174804688,-0.582885742188,0.595092773438
27689351842,0.375610351562,0.402648925781,-0.583862304688,0.596557617188
27689366795,0.372863769531,0.401184082031,-0.585632324219,0.597473144531
27689389297,0.370544433594,0.399108886719,-0.588806152344,0.597229003906
27689411882,0.368469238281,0.395751953125,-0.592407226562,0.59716796875
27689427283,0.365478515625,0.393249511719,-0.595581054688,0.597534179688
27689449305,0.361328125,0.391723632812,-0.598388671875,0.598205566406
27689470396,0.355895996094,0.390197753906,-0.601684570312,0.59912109375
27689486843,0.349609375,0.388671875,-0.605529785156,0.599914550781
27689509296,0.343017578125,0.386779785156,-0.610107421875,0.600402832031
27689530462,0.336669921875,0.384399414062,-0.614929199219,0.6005859375
27689546762,0.330627441406,0.381591796875,-0.61962890625,0.600891113281
27689569336,0.32421875,0.37890625,-0.623840332031,0.601745605469
27689590460,0.316955566406,0.376403808594,-0.627624511719,0.603271484375
27689607607,0.308654785156,0.374084472656,-0.631286621094,0.605163574219
27689629269,0.299682617188,0.371704101562,-0.635192871094,0.607055664062
27689650486,0.290466308594,0.36865234375,-0.639526367188,0.608825683594
27689666171,0.281494140625,0.364624023438,-0.644287109375,0.610473632812
27689689310,0.272155761719,0.360107421875,-0.649169921875,0.612182617188
27689711797,0.262512207031,0.355102539062,-0.653930664062,0.6142578125
27689726112,0.252075195312,0.349731445312,-0.658813476562,0.616516113281
27689749319,0.2412109375,0.344299316406,-0.663818359375,0.618530273438
27689777902,0.230285644531,0.33837890625,-0.669006347656,0.620361328125
27689786141,0.218994140625,0.331848144531,-0.674499511719,0.6220703125
27689809294,0.207458496094,0.324768066406,-0.680114746094,0.623657226562
27689831872,0.196105957031,0.317077636719,-0.685913085938,0.624938964844
27689846150,0.185180664062,0.309143066406,-0.691772460938,0.625732421875
27689869796,0.174377441406,0.300842285156,-0.697692871094,0.626342773438
27689891796,0.163940429688,0.291931152344,-0.703308105469,0.627075195312
27689912970,0.153381347656,0.283142089844,-0.708435058594,0.628051757812
27689929336,0.142395019531,0.274597167969,-0.713256835938,0.62890625
27689951803,0.131713867188,0.266235351562,-0.718017578125,0.629455566406
27689972956,0.12158203125,0.257446289062,-0.722778320312,0.629699707031
27689989266,0.111633300781,0.248352050781,-0.727478027344,0.629821777344
27690011796,0.10205078125,0.239074707031,-0.73193359375,0.629821777344
27690032807,0.0930786132812,0.229614257812,-0.736389160156,0.629577636719
27690056848,0.0845947265625,0.220031738281,-0.740844726562,0.628967285156
27690071828,0.0762329101562,0.210632324219,-0.7451171875,0.628173828125
27690092983,0.0676879882812,0.201477050781,-0.749145507812,0.627380371094
27690109308,0.0586547851562,0.192993164062,-0.752807617188,0.626586914062
27690131776,0.0496826171875,0.184997558594,-0.756225585938,0.625610351562
27690152910,0.0416870117188,0.177185058594,-0.759765625,0.624206542969
27690169323,0.0343627929688,0.169555664062,-0.763305664062,0.622436523438
27690191796,0.0269165039062,0.162475585938,-0.7666015625,0.62060546875
27690212945,0.01904296875,0.156494140625,-0.769592285156,0.618774414062
27690229343,0.0111694335938,0.151489257812,-0.7724609375,0.616638183594
27690251796,0.00360107421875,0.147399902344,-0.775207519531,0.6142578125
27690272904,-0.0032958984375,0.1435546875,-0.778015136719,0.611633300781
27690289265,-0.00958251953125,0.139953613281,-0.780639648438,0.609008789062
27690311798,-0.0157470703125,0.137512207031,-0.782958984375,0.6064453125
27690332972,-0.022216796875,0.136108398438,-0.784912109375,0.604064941406
27690349274,-0.0285034179688,0.13525390625,-0.786743164062,0.601623535156
27690371872,-0.0341796875,0.134033203125,-0.788513183594,0.599243164062
27690392905,-0.0387573242188,0.133666992188,-0.790466308594,0.596496582031
27690409300,-0.043701171875,0.134460449219,-0.79150390625,0.594604492188
27690431780,-0.0482177734375,0.135559082031,-0.792175292969,0.593078613281
27690452976,-0.0517578125,0.135925292969,-0.793029785156,0.591613769531
27690475454,-0.0543823242188,0.135864257812,-0.793884277344,0.590209960938
27690491791,-0.0567016601562,0.1357421875,-0.794616699219,0.589050292969
27690512950,-0.0592041015625,0.135375976562,-0.795227050781,0.588012695312
27690528648,-0.061767578125,0.134948730469,-0.796020507812,0.586791992188
27690551755,-0.06396484375,0.134765625,-0.796691894531,0.585632324219
27690572946,-0.066162109375,0.1337890625,-0.797424316406,0.584655761719
27690589324,-0.0686645507812,0.133483886719,-0.797729492188,0.584045410156
27690611771,-0.0714721679688,0.133972167969,-0.797729492188,0.583618164062
27690634281,-0.074462890625,0.134460449219,-0.797546386719,0.583312988281
27690649319,-0.0770263671875,0.134399414062,-0.797424316406,0.583190917969
27690671801,-0.0787353515625,0.133178710938,-0.797424316406,0.583190917969
27690694295,-0.0798950195312,0.13134765625,-0.797546386719,0.583312988281
27690709295,-0.0808715820312,0.129028320312,-0.7978515625,0.583374023438
27690731819,-0.0821533203125,0.126770019531,-0.798156738281,0.583190917969
27690754300,-0.0836181640625,0.12451171875,-0.798645019531,0.582824707031
27690769299,-0.0848999023438,0.122253417969,-0.799133300781,0.582458496094
27690791747,-0.0858764648438,0.119995117188,-0.799499511719,0.582214355469
27690814796,-0.0869140625,0.117980957031,-0.799621582031,0.582336425781
27690828620,-0.0877075195312,0.1162109375,-0.799743652344,0.582397460938
27690851799,-0.089111328125,0.115173339844,-0.7998046875,0.582336425781
27690874340,-0.0909423828125,0.11474609375,-0.799621582031,0.582336425781
27690889062,-0.0924072265625,0.114074707031,-0.799377441406,0.582580566406
27690911776,-0.09326171875,0.112976074219,-0.799194335938,0.582946777344
27690934363,-0.0938110351562,0.111572265625,-0.799072265625,0.583312988281
27690948643,-0.0940551757812,0.109802246094,-0.799011230469,0.583679199219
27690971800,-0.0941162109375,0.107604980469,-0.799133300781,0.583862304688
27690994294,-0.09423828125,0.105285644531,-0.799377441406,0.583984375
27691008624,-0.09423828125,0.102783203125,-0.799621582031,0.584106445312
