27609621421,3,0,4,2,-2,-5,-5,0
27609621421,-2,1,11,-2,-1,-1,1,-2
27609622928,-1,-3,-13,-5,-2,1,0,-8
27609622928,5,0,-4,-2,2,0,0,13
27609623731,7,0,-6,-3,-2,1,1,2
27609623731,-1,-5,3,1,0,-2,-2,-9
27609626604,7,9,6,-2,-3,-3,-2,2
27609626604,-2,-5,-1,1,0,-1,-3,-14
27609634512,4,8,5,-3,-3,-2,-1,16
27609634512,-1,0,0,-1,0,-4,-3,5
27609642503,-11,-5,-7,0,3,7,8,-2
27609642503,-6,-1,-4,-4,-3,-4,-4,-9
27609648765,-5,-5,1,2,1,0,1,6
27609648765,0,-1,2,2,0,-1,0,-1
27609663743,-2,-8,-17,-6,-2,-6,-5,-2
27609663743,-2,-5,6,1,0,-1,3,5
27609672449,-6,-9,-6,-2,1,-2,-1,-13
27609672449,4,6,2,1,-3,-2,-1,1
27609687478,2,3,6,1,-2,-1,-1,0
27609687478,1,-2,-3,-1,-2,1,1,5
27609694554,-1,-2,-2,1,-1,0,-2,-5
27609694554,3,0,-3,-4,0,-1,-2,-1
27609708571,-2,-10,4,-1,-3,-5,-10,-16
27609708571,-5,6,-1,-1,-1,3,9,15
27609749427,3,-2,-8,-6,-3,-4,-3,0
27609749427,-8,-2,2,1,0,0,0,-5
27609750220,-1,0,-2,-2,-2,-4,-2,-12
27609750220,-2,-3,2,1,1,0,0,6
27609751065,-2,-4,-6,-1,-1,-1,0,0
27609751065,3,-3,2,-1,-2,2,1,8
27609754284,-3,4,4,2,2,-1,-1,-4
27609754284,8,2,1,-1,-2,-1,-1,-6
27609761044,1,-1,-4,-3,-1,-3,-2,0
27609761044,-2,-11,-2,1,1,1,0,-3
27609768613,3,11,2,-1,-3,2,2,5
27609768613,-6,-5,-1,0,-2,-5,-2,-10
27609784956,2,-1,2,3,2,1,-1,12
27609784956,-2,8,-1,-5,-4,-6,-8,-7
27609791089,-5,-4,3,1,2,6,2,-5
27609791089,0,0,-6,-2,-1,2,5,3
27609799957,-2,1,-3,2,1,2,4,-4
27609799957,0,2,11,1,0,-2,-4,5
27609822379,0,-4,-6,-4,-2,-3,-5,1
27609822379,-7,2,2,-3,-3,0,1,0
27609823971,-6,-3,-1,0,-1,-2,-2,-7
27609823971,8,-1,-7,-4,-2,-1,-2,5
27609836799,-1,-6,-8,-4,-3,-2,-2,-1
27609836799,2,-3,3,0,0,-1,-1,3
27609843601,-4,1,-1,-1,-3,1,-1,-5
27609843601,0,2,-1,-1,0,-3,-4,-2
27609859951,8,-2,-5,-5,-6,-2,2,2
27609859951,-1,-10,-7,-2,-2,-5,-5,-4
27609861464,-8,7,5,1,-1,1,1,-8
27609861464,5,5,2,0,-1,-1,3,0
27609882419,-6,-2,0,-1,0,0,1,-2
27609882419,-5,-2,-2,-1,-1,0,-2,-4
27609883909,1,-5,2,0,1,-1,-3,1
27609883909,4,-5,-8,-2,-2,0,2,-13
27609896732,-5,-3,0,-1,0,-4,-3,7
27609896732,9,13,6,-1,1,1,-2,-5
27609903628,2,1,1,-1,-2,-4,-4,-1
27609903628,-5,-9,-7,0,0,-1,-1,-5
27609920069,-2,-3,0,1,0,-4,-5,-3
27609920069,-6,0,-4,-1,-3,-2,-1,-5
27609921455,5,-1,0,-1,-1,-1,0,2
27609921455,-3,-1,-4,-3,-2,-1,2,3
27609942426,-2,-7,-5,-1,-3,-3,-3,-9
27609942426,-3,-4,0,-1,-1,-2,-3,1
27609943920,-1,-1,-2,-2,-1,-2,-1,-2
27609943920,-3,-1,0,0,-2,-1,-2,-2
27609956650,-2,-1,1,2,1,3,3,1
27609956650,3,3,-2,-2,-3,-2,-1,0
27609963493,-2,-3,-2,-1,-1,0,0,-2
27609963493,-3,-6,-4,0,0,-3,-3,-1
27609978899,1,2,0,-2,-1,-3,-2,0
27609978899,1,0,-1,-1,-3,1,2,3
27609987472,1,1,2,0,-2,-2,-2,-2
27609987472,-3,-5,-3,1,-1,-1,0,0
27610002320,0,-2,0,0,0,0,-1,-1
27610002320,-3,-6,-4,0,0,-1,-2,-1
27610003913,-3,-3,0,-3,-2,-2,-2,-1
27610003913,2,2,1,-2,0,-1,-1,-2
27610016054,-2,-6,-3,-2,0,-1,-1,0
27610016054,0,-3,-3,-1,-3,-3,-3,1
27610024986,-2,0,-3,-2,-3,-2,1,2
27610024986,2,7,3,-1,1,0,-3,-3
27610039830,2,1,-1,1,0,0,1,0
27610039830,-2,-2,3,-1,0,0,1,-2
27610041454,3,-2,0,1,0,0,-2,1
27610041454,-5,-4,-2,-2,-2,-2,-1,0
27610062364,-1,-6,-2,-1,-1,-4,-1,-3
27610062364,0,6,-1,0,-1,0,-1,-2
27610063916,-4,-5,-3,-1,-1,0,1,-3
27610063916,3,4,3,-3,-4,-3,-1,0
27610076107,-1,2,3,1,-2,0,-3,-3
27610076107,-2,-1,-3,-2,1,-1,1,3
27610084977,1,0,1,-1,-3,-2,-1,-3
27610084977,-3,0,-4,0,1,2,0,0
27610099864,-3,-4,-6,-3,-1,-2,-2,0
27610099864,0,-3,-5,-3,-1,-2,-1,-3
27610101464,-2,-7,-2,-7,-7,-7,-3,-2
27610101464,1,7,-1,-5,-3,0,1,-1
27610122448,4,5,12,15,12,8,3,2
27610122448,-1,-5,7,5,7,6,1,0
27610123933,-3,-2,-15,0,2,-1,1,-2
27610123933,-3,-3,2,-2,-3,-4,-1,-1
27610135995,-1,0,3,-7,-13,-6,-4,-1
27610135995,-3,-3,-6,-8,-5,-3,-3,-2
27610144959,-3,-5,-5,8,6,1,-2,-2
27610144959,-1,3,4,6,2,0,0,1
27610159969,-2,2,8,6,2,-3,-2,0
27610159969,-3,-7,1,-3,-4,-3,-3,-1
27610161475,-1,1,-11,-15,-7,-1,-2,-1
27610161475,-4,-8,-7,-1,1,2,1,2
27610182350,0,7,10,-1,-2,0,-1,0
27610182350,-2,0,-9,-3,-5,-5,-4,0
27610183984,3,4,14,8,7,4,4,2
27610183984,-1,-7,-7,-4,-3,-2,-1,3
27610196180,-4,-5,-13,-5,-3,-2,-1,-3
27610196180,-3,-6,-4,-4,-4,-1,0,-2
27610204955,-1,3,-1,-2,-4,-3,-3,-2
27610204955,-1,-3,0,0,3,2,0,-1
27610219925,1,7,14,9,0,-2,-2,0
27610219925,0,-4,-6,-4,-1,0,-1,0
27610221405,-3,-10,8,3,1,1,1,-1
27610221405,0,18,-13,-2,1,-3,-4,-3
27610242457,-1,-1,0,-7,-5,-5,-4,2
27610242457,-2,2,-1,5,1,-1,-3,-3
27610243962,-3,-1,6,-7,-10,-9,-4,-3
27610243962,4,-4,-2,0,6,8,2,0
27610256062,6,-7,-10,0,6,4,0,3
27610256062,2,11,22,10,2,2,5,1
27610264961,-2,-4,-14,-7,-5,-3,-2,-3
27610264961,-9,-7,-3,-5,-8,-5,-3,-5
27610279931,-3,-7,-15,-13,-6,-1,1,2
27610279931,7,-3,-1,2,0,-2,-2,-1
27610281446,1,5,5,5,1,-2,-2,-1
27610281446,-3,-5,1,-3,-6,-5,-2,-3
27610302510,-1,-3,0,5,3,-2,-2,-3
27610302510,-3,5,-9,5,4,-3,0,1
27610303941,4,10,20,9,9,13,4,2
27610303941,-1,-2,0,-4,1,-2,2,-2
27610316093,-7,-4,-16,-17,-10,-6,-3,-4
27610316093,-4,-7,-6,-8,-7,-4,-2,-2
27610324983,8,9,16,12,4,1,1,2
27610324983,1,-4,-6,-2,1,1,-1,2
27610339788,1,1,-5,7,2,-1,0,-3
27610339788,-2,-7,0,-5,-7,-6,-4,0
27610346117,-5,-6,-6,-3,1,4,2,-3
27610346117,-6,-1,-1,-4,-8,-5,-3,-4
27610362489,5,1,-6,-2,1,2,2,5
27610362489,1,20,13,11,4,1,-1,0
27610363945,5,-2,-5,-9,-4,-4,-2,5
27610363945,6,3,2,11,6,3,3,-1
27610376160,-10,-7,-12,-21,-17,-12,-9,-10
27610376160,-5,-13,-10,-22,-23,-12,-4,-1
27610384960,2,9,8,28,32,17,3,1
27610384960,4,9,21,18,18,9,3,4
27610399243,3,-6,-3,-1,0,6,8,5
27610399243,-2,-1,9,1,2,4,1,-5
27610406119,-13,-10,-12,-19,-20,-16,-8,-7
27610406119,4,-10,-23,-14,-9,-5,-4,2
27610422409,-6,1,5,5,3,-2,-4,-2
27610422409,-2,-8,18,3,0,2,-2,-2
27610423913,-5,2,-26,-15,-9,-4,-2,-4
27610423913,-9,-6,-5,-4,-5,-3,-6,-5
27610444898,14,11,4,-1,0,1,3,3
27610444898,-2,2,-8,12,9,4,2,1
27610446437,2,6,35,15,2,-3,-3,2
27610446437,-5,-11,-19,-11,-5,-3,0,-4
27610459202,-7,-5,-4,-2,0,3,-2,-4
27610459202,7,8,1,6,9,1,-2,7
27610465969,-10,-14,-14,-10,-6,-2,1,-4
27610465969,9,7,15,7,-5,0,9,3
27610482301,0,5,8,4,6,4,0,-2
27610482301,-7,-1,-19,-11,-4,-2,-4,-8
27610483896,2,-7,-10,0,-2,1,1,6
27610483896,-11,-14,-4,-7,-7,-4,-6,-4
27610504804,5,21,30,23,5,0,-1,1
27610504804,4,-7,-17,-11,-5,-3,-1,-2
27610506415,-4,7,16,2,-7,-8,-9,-8
27610506415,5,9,2,9,12,7,5,9
27610519216,3,-10,-7,-2,2,5,3,4
27610519216,-4,4,11,-1,-2,0,0,-2
27610526161,4,0,-1,-1,-4,-3,-2,-3
27610526161,-1,-7,-4,0,-2,-3,-3,-2
27610542498,-12,-7,-16,-11,-4,-7,-5,-5
27610542498,0,1,-16,-10,-3,-4,-4,-2
27610543957,6,0,0,1,3,7,9,4
27610543957,4,12,16,7,2,1,0,-1
27610564957,-9,-11,-11,-8,-5,-2,-3,-4
27610564957,-8,-9,6,8,2,0,1,-4
27610566408,11,-4,-25,-23,-1,0,0,9
27610566408,0,7,32,21,1,-2,-1,-2
27610579300,-2,3,1,1,-2,-1,-2,-1
27610579300,-5,-1,-8,-6,-6,-2,-1,0
27610586092,-4,-4,-11,5,4,-4,-7,-3
27610586092,-3,-12,-4,-2,-7,-9,-3,-1
27610602489,-3,4,16,0,4,8,7,0
27610602489,7,2,-4,-4,-2,-2,-1,-2
27610603941,5,-1,-5,-12,-7,0,0,1
27610603941,-7,-5,-14,-16,-7,-6,-6,0
27610625325,-3,-26,-35,3,-3,-4,-2,-7
27610625325,1,20,36,12,2,1,0,-1
27610631051,-11,6,20,0,-2,-2,0,-4
27610631051,-2,-3,-1,-4,-8,-13,-14,-4
27610638607,-4,-5,-17,-3,-1,-6,-7,-1
27610638607,7,-5,-8,-8,-1,4,3,-1
27610647467,14,2,-8,-1,-2,-2,-10,-3
27610647467,-13,1,-4,-10,-3,10,19,8
27610662440,-6,-2,10,2,1,-2,-1,-5
27610662440,-8,-7,-9,1,-3,-5,-2,4
27610663909,8,6,5,-3,-6,-8,-8,-2
27610663909,-4,3,-24,-8,-2,0,-7,-11
27610685468,12,-10,-2,-5,-2,-2,4,5
27610685468,-7,-3,-21,-10,1,1,1,0
27610686916,-6,-5,6,-5,-8,-4,2,0
27610686916,7,10,41,29,15,4,-5,-4
27610698578,7,8,3,2,5,7,10,6
27610698578,-10,2,27,1,-2,0,0,-1
27610707465,-12,-11,-22,-9,-4,-6,-6,-10
27610707465,9,-2,-26,-19,-4,-8,-9,-6
27610721065,-1,5,13,2,-1,3,7,11
27610721065,14,2,18,15,4,-1,-2,0
27610737442,-29,-12,-30,-10,-2,2,4,-5
27610737442,-3,-18,-10,6,2,1,3,-2
27610744891,14,27,46,7,-2,-5,-6,2
27610744891,7,-4,-4,-3,2,1,2,3
27610746436,-14,2,10,14,6,1,3,-3
27610746436,-2,-3,-8,-7,-4,-5,-9,-4
27610767435,1,-2,-31,-26,-12,-9,-13,-6
27610767435,-5,-14,-21,4,3,-2,-3,1
27610768948,5,24,72,30,5,10,15,-7
27610768948,4,-16,-33,-11,-1,5,9,13
27610789943,-3,27,57,15,1,-1,-5,-9
27610789943,-4,-12,-1,-10,-7,-9,-7,-4
27610791435,-9,-42,-90,-38,-10,-9,-7,4
27610791435,-12,23,98,32,6,-3,-9,-17
27610812909,-9,-24,-51,-12,-2,2,11,11
27610812909,13,20,44,28,9,3,-2,0
27610818575,16,9,-14,-12,-5,-6,-7,7
27610818575,15,10,-2,0,-4,-6,-11,-5
27610827442,0,-7,-13,1,5,15,21,5
27610827442,-17,-12,-22,-5,2,4,5,4
27610828933,13,27,80,24,7,2,1,7
27610828933,-9,-17,-40,-16,-2,1,-3,-3
27610841051,10,-7,12,10,-5,-12,-13,-6
27610841051,-5,-6,-70,-31,-4,3,4,-2
27610849979,15,20,33,35,7,-2,-6,-1
27610849979,2,6,42,1,5,11,17,12
27610864293,-1,20,43,21,5,-1,-7,-8
27610864293,-15,-36,-66,-32,-18,-15,-10,2
27610871143,-2,-4,-29,-16,0,4,1,-11
27610871143,-19,12,15,6,-2,5,12,0
27610886507,-2,-20,-5,8,5,0,0,0
27610886507,14,23,5,-20,-7,1,-1,-1
27610894947,-7,0,60,46,18,6,0,0
27610894947,-1,-23,-76,-39,-16,-8,-3,1
27610909967,11,26,25,14,6,3,3,2
27610909967,-16,-13,-45,-37,-10,-5,-3,-8
27610911433,9,10,73,52,2,-8,-21,-6
27610911433,-6,-14,-46,4,3,-9,-7,-2
27610924250,-18,-10,-70,-29,-5,9,11,-9
27610924250,25,20,69,27,8,8,5,9
27610938583,-19,-21,-58,-36,-9,3,11,3
27610938583,-3,-19,-44,-18,-3,-5,-12,-4
27610947410,23,10,45,32,8,2,0,2
27610947410,-12,13,28,8,0,-7,-3,-2
27610948936,-17,-22,-14,-28,-14,-7,-1,-10
27610948936,14,21,-6,0,1,-1,-7,4
27610970026,-2,-9,-48,-29,-5,-3,-2,4
27610970026,-17,-30,-12,5,-4,-1,-3,-12
27610971475,11,7,-23,1,12,7,12,16
27610971475,-10,-8,17,10,-6,-7,-6,-10
27610984121,4,24,40,11,1,-6,-12,-2
27610984121,-25,-10,-3,3,-3,-2,-2,-7
27610990910,1,-12,-60,-23,-5,0,5,1
27610990910,9,3,37,20,3,10,13,4
27611014838,-17,-22,10,-12,-6,-7,-11,-9
27611014838,14,-1,-61,-9,-1,-13,-15,-12
27611016487,-8,6,38,-6,-2,9,6,13
27611016487,-10,3,6,21,13,8,9,5
27611029972,4,-2,7,-13,-13,-4,-4,-6
27611029972,-3,11,16,-8,-3,-2,7,6
27611031432,0,2,60,27,3,-5,-10,-9
27611031432,4,5,-28,-26,-23,-26,-29,-16
27611044275,-1,-12,6,10,3,9,18,16
27611044275,10,-19,-34,10,14,15,8,0
27611051078,-4,34,26,-8,-18,-20,-14,-7
27611051078,-8,-4,21,-15,-2,3,2,4
27611067448,7,-5,-39,-5,3,-1,0,-8
27611067448,-6,17,32,31,5,0,6,6
27611068905,3,-34,-74,-33,-12,0,1,-9
27611068905,0,1,23,9,4,-1,-5,-12
27611089970,6,16,-9,-9,-8,-17,-20,4
27611089970,-9,-27,-26,-3,-4,-4,6,-4
27611091505,-11,-17,-40,-1,5,13,8,-2
27611091505,20,25,35,-3,-4,2,9,8
27611104921,-18,-16,-53,-16,-9,-15,-16,-13
27611104921,7,1,52,29,8,6,1,2
27611113278,-23,-21,-40,-24,-16,-22,-16,-10
27611113278,20,19,-16,-17,-1,8,11,11
27611127456,-17,-10,21,25,5,-1,-2,-6
27611127456,29,19,-7,-21,1,8,-1,8
27611128934,12,11,-21,-6,6,2,12,12
27611128934,-15,-27,16,4,-2,2,4,-7
27611149939,17,-1,-10,-9,-7,-8,-10,5
27611149939,-34,8,21,-4,-3,8,5,-4
27611151422,9,13,37,11,-2,-9,-8,-6
27611151422,13,20,9,5,7,10,8,4
27611163509,-7,-19,-48,-28,-8,-4,-2,-5
27611163509,-17,-35,-54,-24,-10,-8,-10,-8
27611172485,27,31,74,70,36,16,10,17
27611172485,-6,2,-28,-7,-6,-17,-17,-9
27611186474,8,-3,-35,-19,-6,11,28,12
27611186474,-11,-10,30,19,3,6,10,-11
27611194951,-4,4,-33,-39,-19,-8,-9,-5
27611194951,0,-11,-55,-3,7,10,10,12
27611210044,9,33,127,49,4,-27,-40,-10
27611210044,24,7,-15,27,11,8,12,18
27611211426,-18,-16,-31,-36,-20,-6,-12,-20
27611211426,-26,-31,-12,-12,-8,-5,0,-9
27611223515,-7,36,34,14,10,11,7,-2
27611223515,11,16,-60,-46,-8,-17,-22,-7
27611232461,-5,3,99,73,27,23,16,13
27611232461,20,6,-13,1,13,22,33,24
27611247455,-43,-51,-74,-30,-15,-10,-9,-19
27611247455,23,26,-11,-27,-11,-8,-4,-2
27611248910,-25,-30,-7,15,9,-2,-8,-10
27611248910,-4,-7,-17,9,1,-10,-22,-13
27611270105,25,42,39,20,22,37,33,14
27611270105,-28,-45,-45,-53,-35,-38,-36,-13
27611271439,17,16,-30,-9,-6,-1,6,8
27611271439,-11,-3,49,26,10,-4,0,1
27611283590,-12,-43,-17,-1,1,7,-18,-6
27611283590,-3,-7,-2,-16,-14,4,22,10
27611292455,22,23,-47,4,3,6,22,15
27611292455,-11,-40,-72,-52,-19,-15,-13,-18
27611307336,-20,-7,-53,-35,1,11,21,4
27611307336,12,10,102,45,19,5,-17,2
27611308925,6,28,26,-7,-5,-7,-9,-15
27611308925,23,34,86,65,28,20,16,17
27611329251,0,-41,-95,-75,-13,-9,-6,15
27611329251,-9,-23,-23,-24,-11,-7,-6,-11
27611329911,-12,7,42,-9,-14,-14,-2,3
27611329911,1,-16,-32,-16,19,12,-1,-6
27611351686,12,16,80,63,5,-6,-9,-1
27611351686,-5,42,61,38,4,1,6,-5
27611352390,11,-14,-50,-30,3,27,25,9
27611352390,10,22,-5,-12,-7,8,13,13
27611366624,-14,-18,-13,8,-4,-17,-21,-14
27611366624,7,40,18,2,4,-3,-25,-4
27611367364,13,10,73,77,21,11,25,6
27611367364,-19,-17,-38,-49,-38,-28,-30,-7
27611389093,25,11,-40,5,16,34,42,5
27611389093,8,11,45,19,2,-9,1,7
27611389910,-4,3,44,-13,-9,-1,-5,-2
27611389910,3,16,73,38,-2,-21,-24,-5
27611411782,30,45,52,15,26,42,39,20
27611411782,-21,-53,-62,-21,-7,-6,3,0
27611412441,-7,22,49,21,-21,-27,-24,-11
27611412441,8,15,-10,-5,-9,-7,-3,-10
27611426666,-10,11,24,-16,-12,-25,-32,-12
27611426666,5,25,20,49,26,27,22,-6
27611427398,-1,-65,-128,-62,-9,-1,-20,3
27611427398,-25,-11,13,0,-13,-5,0,-5
27611449719,3,23,-3,-13,-8,8,32,0
27611449719,-5,-27,-32,-7,2,-3,2,3
27611450351,-9,-35,-72,-18,-5,-7,-10,-10
27611450351,-2,6,-58,-55,-11,-4,-5,-1
27611472020,-4,-6,90,46,8,-9,-10,4
27611472020,7,40,107,63,15,13,1,-17
27611472457,-22,1,-43,-26,-7,-8,-13,-12
27611472457,4,0,9,3,15,17,15,12
27611486617,7,-17,22,13,-3,-21,-18,7
27611486617,-17,-27,-104,-70,-22,-8,-3,1
27611487404,24,58,95,81,39,9,-12,-1
27611487404,30,39,63,60,42,53,41,28
27611509100,-23,-55,-116,-64,-30,-4,9,2
27611509100,14,-18,-34,-47,-23,-17,-10,1
27611509873,-33,-39,-77,-54,-11,-26,-41,-37
27611509873,18,-2,2,42,-7,-33,-16,4
27611532404,-5,12,53,31,22,35,23,4
27611532404,11,-6,-22,-2,7,8,16,28
27611533052,-6,-19,-19,-62,-23,-4,5,-3
27611533052,4,45,95,47,15,1,-4,-5
27611546755,-1,-18,-75,-35,-6,-20,-24,-17
27611546755,-35,-31,-32,-3,-15,-23,-16,-24
27611547390,5,-5,-56,-26,-10,-6,7,19
27611547390,-7,-33,-32,-28,-34,-32,-20,-13
27611569266,11,7,7,6,1,-3,-49,-12
27611569266,-50,-14,5,17,7,3,33,1
27611569920,25,-10,-32,-22,18,34,33,18
27611569920,2,13,22,1,3,2,4,-5
27611592323,2,-53,-122,-38,-14,-23,-23,-10
27611592323,-6,23,0,47,31,44,14,-3
27611593112,-8,-11,-32,-47,-39,-44,-33,-14
27611593112,-1,-5,0,12,12,34,37,20
27611607118,-15,-1,54,49,5,-10,-10,-14
27611607118,44,23,0,12,23,10,-7,11
27611622217,1,14,23,27,32,32,27,9
27611622217,8,-49,-79,-54,-5,27,36,17
27611630578,-36,-9,-44,-20,-38,-40,-21,1
27611630578,2,1,31,22,-5,-23,-20,-37
27611631423,-1,-10,-50,-15,1,21,28,33
27611631423,-28,-17,-1,-2,1,-6,-16,-14
27611652402,39,21,55,20,14,19,35,26
27611652402,11,50,71,8,-10,-10,-20,0
27611653066,-20,-35,-5,37,11,-10,-25,-22
27611653066,-21,-2,24,-18,-11,-11,-9,-19
27611666693,14,69,119,51,14,5,4,7
27611666693,-8,-34,45,-13,1,-10,-24,-8
27611667415,15,14,-1,0,5,9,4,10
27611667415,-20,-27,-13,43,-10,-34,-14,-25
27611689192,-3,42,45,3,-1,20,41,21
27611689192,5,-33,-102,-62,-28,-37,-62,-11
27611689918,-12,-7,91,3,-25,-11,39,1
27611689918,-18,-27,-64,-69,-24,-22,-24,-19
27611712414,3,8,43,37,23,15,-1,-7
27611712414,4,-21,-79,-43,-18,-42,-60,-23
27611713107,7,28,75,56,28,59,72,46
27611713107,28,18,-9,5,20,38,24,8
27611726728,10,34,31,3,-15,-16,-3,-13
27611726728,-33,-29,-64,-47,-20,-9,-5,-3
27611727368,-10,-13,22,30,9,-10,-21,-15
27611727368,2,13,-21,1,1,4,-9,5
27611749159,-42,-97,-128,-72,-28,-31,-28,-22
27611749159,32,63,127,51,20,40,53,26
27611749920,-12,28,1,20,-16,-64,-95,-43
27611749920,-25,-47,-50,10,-4,6,11,6
27611763546,25,82,62,69,39,48,40,21
27611763546,8,11,29,16,7,20,38,16
27611779176,16,63,94,67,12,-12,-13,-10
27611779176,29,52,21,17,33,25,10,14
27611786655,-27,-79,-128,-61,-2,23,40,6
27611786655,34,77,121,78,3,-43,-50,4
27611787414,-33,-68,-80,-76,-11,47,53,3
27611787414,14,45,127,77,3,-34,-28,-20
27611809120,-8,-26,-55,-65,-8,36,57,17
27611809120,-8,-13,27,20,7,7,10,-9
27611809904,23,2,-57,-27,1,2,1,10
27611809904,-4,-25,22,4,-18,-37,-39,-15
27611823498,17,-19,-98,-76,-24,-12,-21,-4
27611823498,-19,-24,-119,-25,-3,5,26,4
27611831695,1,10,69,33,-3,-47,-86,-34
27611831695,13,8,47,-20,1,39,57,26
27611846716,-17,28,127,70,4,-20,-21,-16
27611846716,-12,-37,-52,-15,1,1,-29,-11
27611847427,33,13,-65,-39,18,36,51,30
27611847427,24,57,58,67,13,-22,-32,10
27611869276,-21,-17,-2,-28,-30,-21,-17,-25
27611869276,17,60,115,34,26,33,23,18
27611869909,-37,-76,-89,-59,-40,-33,-15,-7
27611869909,5,-17,-78,-59,-25,-4,6,2
27611892446,-7,9,-3,38,24,-10,-38,-32
27611892446,-28,-49,-70,-55,-11,31,42,28
27611893105,13,26,78,18,-10,-34,-44,-22
27611893105,2,-5,-50,-38,-5,13,5,9
27611906730,2,22,48,20,5,-13,-9,0
27611906730,-11,-44,-84,-7,3,15,43,3
27611907401,3,1,-45,12,18,20,-6,-10
27611907401,-20,-39,-15,-26,-24,-26,-27,-19
27611929186,18,69,93,30,16,12,2,19
27611929186,-22,-41,-52,-41,-51,-52,-56,-35
27611929921,14,-14,-19,-1,-2,18,34,26
27611929921,-39,-29,-54,-3,13,5,-1,-13
27611952369,14,9,-9,16,-11,-40,-71,-19
27611952369,-17,-18,-89,-64,-16,-14,1,8
27611953079,2,22,127,94,17,23,57,28
27611953079,5,-12,-111,-59,-9,4,4,-13
27611966660,-16,-30,-17,4,-5,-6,-2,-2
27611966660,14,8,-10,-10,-5,-12,-3,3
27611967408,-13,-2,-33,-25,-2,-3,-21,-14
27611967408,-8,-16,4,16,-1,-9,-3,0
27611989100,-10,-7,10,4,1,-2,10,10
27611989100,23,55,8,12,17,13,-5,-16
27611989993,-24,-3,11,5,6,-4,-9,-17
27611989993,29,25,-6,-58,-26,-8,5,33
27612012233,-61,-88,-128,-37,-13,-53,-85,-61
27612012233,33,18,96,64,32,57,74,41
27612013016,3,8,-34,-22,-22,-10,19,-12
27612013016,-7,30,51,-4,-15,-37,-76,-21
27612026660,2,-55,-48,-62,-8,51,98,33
27612026660,19,57,126,104,31,4,-21,4
27612027351,27,-5,-74,-23,21,27,28,33
27612027351,-34,-24,78,57,2,2,15,-12
27612049132,2,40,47,12,-7,-22,-32,-12
27612049132,7,-40,-128,-92,-24,-5,0,-1
27612049928,15,48,66,14,16,4,-33,-12
27612049928,-7,22,51,46,19,10,24,5
27612080377,11,-17,-65,-48,-14,-1,1,19
27612080377,-12,-56,-62,-31,-20,-9,13,-4
27612081065,-30,-25,19,-3,-11,-37,-59,-28
27612081065,19,45,75,58,31,18,4,2
27612086704,-24,-51,-62,-52,-16,11,40,16
27612086704,18,36,-27,-19,-12,-22,-22,-24
27612087371,-21,-36,-53,-40,-11,5,9,0
27612087371,-14,-28,-82,-5,9,7,11,-13
27612109229,-9,3,70,10,-28,-4,38,14
27612109229,-11,-31,-68,-51,-12,-10,-22,-2
27612109922,6,-30,-70,9,-2,-13,-11,-8
27612109922,-12,9,-8,7,13,15,16,-5
27612132461,45,31,-23,12,8,1,-14,8
27612132461,8,31,46,-4,-10,-9,1,12
27612133077,-7,-41,49,18,2,-2,-3,-3
27612133077,4,45,-11,-46,-32,-20,-24,-12
27612146728,29,12,-2,-6,3,-13,-55,-18
27612146728,-29,-32,83,54,26,26,41,11
27612147418,15,-3,-42,-14,-3,11,20,16
27612147418,6,14,-65,-50,-13,-25,-31,-15
27612169131,-5,22,14,12,13,-6,-26,-28
27612169131,16,-17,-52,-3,1,30,59,41
27612169997,19,77,92,51,10,1,-2,4
27612169997,-41,-67,-52,-15,-7,-7,13,-8
27612192390,24,-6,-41,-11,3,12,29,25
27612192390,2,14,-8,0,5,5,-25,-7
27612193084,-33,-4,-11,5,5,2,27,0
27612193084,47,26,24,21,24,40,36,31
27612206584,-13,-9,-7,-6,-3,-7,-6,-4
27612206584,-12,-6,52,6,-11,-19,-18,-18
27612207374,2,27,56,-33,-6,6,4,1
27612207374,-20,-67,-69,-45,-37,-50,-62,-28
27612229245,-26,-12,-5,-1,-3,-1,8,-12
27612229245,7,32,-25,-13,14,27,26,5
27612229914,-1,-40,-56,-53,-32,-23,-28,-12
27612229914,-12,-8,-49,1,0,1,-4,-5
27612252396,18,50,127,83,42,36,29,21
27612252396,-11,-35,-21,2,-16,-25,-5,-16
27612253081,-21,18,-54,-45,-28,-8,-14,-24
27612253081,-1,-14,21,-12,2,11,4,5
27612266640,22,3,-6,27,20,32,21,30
27612266640,15,25,52,22,18,18,61,8
27612267403,-2,-39,-52,-3,4,7,13,4
27612267403,9,41,50,11,3,1,6,-7
27612289359,-27,-12,0,-15,-15,-28,-47,-29
27612289359,4,-9,18,3,12,8,-16,5
27612289915,17,-1,15,56,17,1,7,10
27612289915,-4,67,126,45,13,2,-7,-3
27612312453,8,-6,-84,-30,-12,-11,-6,-1
27612312453,-19,-5,2,13,-2,-10,-28,-8
27612313089,10,18,-5,-6,2,-3,3,0
27612313089,-4,-27,-45,-37,-2,5,-1,5
27612326670,20,46,32,33,6,-2,1,-2
27612326670,-31,-26,-20,-20,-20,-13,-40,-29
27612327388,4,4,10,9,13,29,41,15
27612327388,21,-17,-1,12,9,22,49,43
27612349092,3,3,-22,-20,-6,-5,-5,-16
27612349092,-12,11,0,35,3,-44,-108,-49
27612356761,26,30,79,15,16,50,71,36
27612356761,-24,-40,-32,-19,-16,-17,-6,0
27612372300,-9,20,76,39,2,-3,14,9
27612372300,16,35,59,28,4,-4,-12,-1
27612373066,-4,-4,-61,-23,-12,-22,-32,-14
27612373066,-9,-20,-99,-60,-23,-12,-8,-9
27612386724,-16,-33,47,45,23,5,-7,-10
27612386724,-10,-25,-81,-52,-13,-1,10,5
27612387410,9,9,0,-14,2,7,1,6
27612387410,4,-26,-43,-16,-7,-2,4,1
27612409154,-43,-43,-18,-42,-21,-21,-26,-25
27612409154,28,26,70,59,16,-5,-21,-2
27612409900,2,2,3,10,16,41,59,23
27612409900,-10,-2,-8,18,0,2,4,-5
27612432465,13,-32,-46,-8,-4,8,24,20
27612432465,-11,6,-11,-16,-3,2,11,12
27612433087,14,20,9,-25,-5,-16,-36,-8
27612433087,11,22,119,94,35,7,-13,-15
27612446705,-11,-19,-83,-56,-32,-32,-33,-4
27612446705,15,3,52,-9,7,29,53,26
27612447363,11,76,48,14,-5,-19,-19,-6
27612447363,-3,-21,-26,-19,-14,-7,6,8
27612469198,-1,-6,44,-2,10,5,-11,-10
27612469198,1,11,19,0,-3,-1,-2,-5
27612469932,-20,-33,-37,-13,-17,-27,-27,-17
27612469932,8,20,63,19,13,1,-12,-2
27612492276,1,-17,-78,-50,-7,6,3,4
27612492276,16,41,20,18,-8,-22,7,0
27612493507,-13,4,52,21,-3,-2,-21,-11
27612493507,-4,-16,-29,-13,-5,9,44,15
27612505934,-5,-21,-79,-56,-30,-23,-6,-4
27612505934,-4,-9,41,29,22,16,29,9
27612514085,-8,-30,-48,-1,0,-15,-44,-22
27612514085,-19,-30,-70,-20,-12,-17,-12,-7
27612529093,35,43,59,63,36,43,41,25
27612529093,-46,-82,-124,-103,-39,-14,-7,-16
27612529874,3,41,104,70,13,-10,-13,-6
27612529874,17,2,-80,-7,2,8,-7,2
27612552388,-1,26,46,7,15,15,21,11
27612552388,4,-27,-53,10,13,13,-6,6
27612553103,-17,-29,-32,-36,-11,-15,-13,-14
27612553103,29,31,25,0,7,22,10,13
27612574994,-19,9,-22,-12,-11,-8,-4,-8
27612574994,-18,-20,-14,-13,-4,11,17,-12
27612575559,4,-24,-29,1,-9,-27,-33,-9
27612575559,-18,-29,-48,-73,-14,5,-21,-25
27612589187,24,79,95,87,36,28,59,48
27612589187,-6,-3,2,5,1,4,3,-4
27612589916,8,0,-18,3,22,41,52,30
27612589916,-1,-28,-27,-34,-37,-59,-60,-26
27612612373,5,-40,-31,-31,-15,-19,-35,-25
27612612373,-13,31,81,77,9,-17,-36,-7
27612613089,-1,-3,-21,9,0,-10,-12,1
27612613089,6,29,7,6,12,17,32,17
27612626051,18,14,-39,-29,-18,-14,-12,-4
27612626051,-5,-3,41,54,22,6,3,-2
27612634245,-19,-58,-103,-51,-27,-21,-25,-20
27612634245,-39,-23,4,-6,-11,-21,-10,-16
27612649210,1,-17,-33,-28,-19,-3,8,-4
27612649210,-12,-32,-100,-105,-48,-29,-22,-13
27612649901,-6,-15,-39,-16,-6,-16,-39,-13
27612649901,8,27,55,29,15,16,26,25
27612672411,-10,-2,-1,0,3,-1,-21,-8
27612672411,22,-1,-14,-18,-7,-1,1,3
27612673109,8,45,85,42,16,18,35,6
27612673109,9,4,-30,-17,-2,-14,-10,3
27612686095,-20,53,108,96,13,-1,-17,-30
27612686095,10,7,-3,-5,6,8,10,24
27612694225,-6,-22,-34,2,-8,2,4,-1
27612694225,26,80,114,61,32,20,11,-2
27612709958,-3,-15,48,-1,-11,-14,-5,-2
27612709958,0,-26,-20,-20,13,10,1,2
27612710603,12,54,60,21,9,11,23,8
27612710603,-19,-47,-56,-33,-11,0,-26,-15
27612732396,10,-29,-61,-18,-7,-5,20,9
27612732396,-14,1,-5,12,0,-3,-33,-16
27612733073,10,-43,-87,-67,-23,-10,14,10
27612733073,-8,19,95,48,20,28,27,15
27612746085,-19,-35,-50,-56,-23,-22,-27,-4
27612746085,51,54,-19,6,-1,-1,1,9
27612754244,-22,10,76,28,2,-13,-15,-13
27612754244,16,33,55,28,6,0,2,-3
27612769622,4,11,9,12,13,17,21,6
27612769622,-1,-10,-61,-20,-9,-3,0,-2
27612770343,-9,-15,-1,11,21,13,-5,2
27612770343,-7,-12,7,-4,-12,-8,6,-4
27612792432,24,2,-20,2,5,14,-1,6
27612792432,-49,-15,35,25,-9,-20,-8,-8
27612793059,4,-26,-85,-63,-35,-33,-29,-16
27612793059,-8,-13,18,48,13,-1,6,-14
27612806055,-4,24,-5,-19,0,11,2,20
27612806055,8,2,-2,7,10,28,60,25
27612814191,-26,-42,-32,-5,-14,-5,5,-13
27612814191,-23,-51,-110,-33,-14,-25,-37,-15
27612829888,-3,24,79,26,-9,-35,-40,-19
27612829888,7,32,54,-4,-21,-25,-22,-33
27612830542,-12,-39,-66,-42,-7,0,5,10
27612830542,7,6,5,39,17,16,18,6
27612852439,-14,-30,-56,-10,7,16,4,-5
27612852439,-16,-10,-8,-27,-15,-8,-9,-4
27612853174,33,88,91,92,28,0,-1,7
27612853174,-17,-17,-27,-34,-7,-12,-24,-11
27612874824,3,-5,-34,-20,2,21,30,-1
27612874824,18,-22,-62,-17,4,9,11,16
27612875541,-31,-6,-19,-24,-11,-6,-5,-11
27612875541,40,32,-38,-55,-14,-8,-10,0
27612889872,-51,-52,-40,-6,-15,-25,6,-4
27612889872,46,54,37,53,42,52,71,35
27612890561,-17,-56,-95,-46,-18,-10,-19,-1
27612890561,10,33,21,-7,-5,7,22,6
27612912405,1,0,-43,-37,-14,-15,-24,-19
27612912405,-14,-32,-31,-13,-8,-14,-26,-15
27612913071,17,42,61,-20,17,27,21,18
27612913071,38,-28,-93,16,35,27,-17,24
27612934839,-4,1,3,-4,8,18,21,-5
27612934839,18,37,11,26,14,33,49,49
27612936359,-31,-28,0,-10,-15,-7,-7,-22
27612936359,-5,-13,-51,-49,-29,-11,-1,4
27612948508,8,-2,13,15,4,-4,-17,-8
27612948508,-8,0,12,6,5,-11,-29,-20
27612957423,7,-14,-24,-19,-6,-1,12,7
27612957423,-23,-80,-74,-84,-30,-7,-2,-12
27612972436,-14,101,97,121,75,24,-19,-20
27612972436,36,11,78,49,43,47,21,30
27612973895,-9,25,34,-11,-5,-5,28,23
27612973895,17,37,-12,7,7,3,15,10
27612994739,8,-25,-27,-18,-10,3,13,13
27612994739,-11,-26,-65,-33,-11,-13,-27,-22
27612996357,3,3,21,32,8,0,-15,-11
27612996357,-8,4,41,23,3,8,12,7
27613008558,2,-16,-42,-41,-20,-12,-3,3
27613008558,-10,7,25,8,-10,-25,-23,-14
27613017374,15,-3,-13,1,0,2,-1,3
27613017374,-18,10,27,13,-5,-13,-4,-11
27613032421,8,-21,-30,-18,-14,-11,-8,4
27613032421,-16,-12,-38,-14,-12,-27,-30,-23
27613033909,14,62,83,34,33,32,15,-2
27613033909,0,5,72,44,-12,-8,6,13
27613054872,11,-1,-16,-21,3,21,49,40
27613054872,-3,-15,0,16,-3,-7,7,-9
27613056380,1,-14,-46,-8,-15,-22,-33,-16
27613056380,-13,-8,-4,10,4,-7,-16,-12
27613069204,3,-11,-42,-40,-15,-5,-2,-3
27613069204,-11,24,64,35,0,-16,-17,-5
27613075982,16,-13,14,59,23,27,30,18
27613075982,-28,-15,-19,-31,-27,-38,-36,-45
27613092384,-2,-32,-37,-30,-22,-12,17,20
27613092384,-15,35,57,-25,-3,-10,-29,-18
27613093913,25,19,-3,16,-3,4,17,16
27613093913,-8,-5,-28,-19,-2,12,30,-18
27613114912,10,15,69,28,9,5,-1,12
27613114912,-9,-19,-4,-1,-13,-2,7,8
27613116416,-14,-22,-27,-5,-12,-6,-7,-8
27613116416,13,40,55,38,20,9,-6,6
27613137321,-1,-15,-26,-17,-5,-2,-14,-17
27613137321,3,6,40,19,-4,1,12,0
27613138907,-19,-22,-49,-38,-10,-17,-17,-9
27613138907,8,1,-33,-14,-1,7,-4,10
27613151478,3,10,-5,28,26,15,2,-4
27613151478,20,-2,-45,-31,-4,12,26,13
27613165960,6,34,32,-11,4,-4,8,15
27613165960,-19,4,31,23,-1,0,-3,-7
27613174978,9,13,41,-1,-7,-11,-12,-6
27613174978,9,3,-49,-33,-5,-3,-17,-1
27613176362,-32,-32,-33,-17,-5,3,2,-9
27613176362,10,-4,31,29,16,8,-21,-2
27613189192,-8,1,5,11,0,-1,18,17
27613189192,-24,-70,-128,-91,-19,0,13,-5
27613196002,18,49,92,70,13,-9,-16,-8
27613196002,8,10,-8,-6,-2,-17,-15,9
27613212436,-13,-17,-75,-35,-9,5,-10,-18
27613212436,3,23,43,23,0,-4,0,-1
27613213906,-2,-28,-58,-45,-11,-1,-2,-1
27613213906,25,18,20,18,12,16,33,24
27613235273,-21,-29,-58,-38,-23,-24,-38,-36
27613235273,2,-5,-23,-18,1,10,22,20
27613240957,16,35,59,27,6,-8,-22,-1
27613240957,-27,-40,-43,-22,-10,3,14,-2
27613249149,3,10,50,21,1,-11,-15,-11
27613249149,-22,-20,-6,5,3,2,5,-6
27613256052,6,-12,-31,-20,-10,-5,-7,-2
27613256052,-1,-1,-2,-17,-4,-8,-14,-8
27613272387,10,-7,-20,0,0,4,10,20
27613272387,-4,6,-4,-2,-11,-14,-12,-11
27613273902,3,-13,-12,-4,1,-3,2,-1
27613273902,-14,-10,-38,-12,0,1,-1,-2
27613294853,9,6,10,17,-4,-3,2,-2
27613294853,9,24,77,64,24,3,-8,2
27613296344,-8,-32,-44,-33,-8,4,7,0
27613296344,4,0,7,3,0,3,5,2
27613308937,-8,-2,-10,-13,-6,-6,-14,-6
27613308937,-6,3,-18,-11,3,-1,-6,-10
27613317436,9,-3,4,11,-3,-7,-15,12
27613317436,-2,-19,-16,1,8,15,29,13
27613332441,0,-1,-2,-2,0,0,1,5
27613332441,12,24,-6,-13,0,0,-1,-2
27613333892,-3,4,25,23,10,16,20,-9
27613333892,1,-7,-20,-15,-8,-7,-16,1
27613354874,9,19,49,39,10,5,9,12
27613354874,-7,-10,-37,-11,-14,-11,-13,-10
27613356351,-5,-5,-7,-11,-6,-6,-6,-4
27613356351,-2,-23,-16,-10,-5,-3,1,-4
27613368537,-5,4,5,4,5,1,-1,-7
27613368537,3,10,9,-6,-10,-5,-4,2
27613377384,-4,-20,-38,-17,-9,-5,1,-2
27613377384,3,46,65,24,-5,-9,-13,-2
27613392366,-8,-10,4,-4,0,-1,-6,-16
27613392366,-8,7,4,3,0,1,14,8
27613393902,-4,-26,-38,-21,-4,4,-3,-7
27613393902,20,8,-32,-24,-11,-2,1,18
27613414905,-17,-21,-16,-3,-2,-4,-1,6
27613414905,5,28,71,33,7,-2,-4,-6
27613416378,-13,-14,0,2,1,1,-1,-11
27613416378,-2,-13,-22,-14,-1,-6,-12,-6
27613428544,7,35,6,-1,-1,-5,-6,-10
27613428544,-8,-36,-49,-27,-8,0,-3,0
27613437409,-5,23,8,0,-1,-7,-8,-2
27613437409,-5,-28,-25,3,5,2,1,-5
27613452345,8,30,47,16,3,0,1,2
27613452345,-9,-20,-40,-22,-9,-10,-16,-7
27613453904,0,-6,-16,-18,-7,0,13,4
27613453904,-5,9,14,4,0,3,8,-4
27613474940,-7,-18,-10,-11,-10,-6,-2,-1
27613474940,-6,-27,-39,-11,-6,-14,-24,-13
27613476379,2,25,33,19,13,15,10,2
27613476379,19,7,11,3,5,6,14,29
27613488476,-4,-14,-4,3,0,3,4,-10
27613488476,-1,-8,-2,1,2,3,8,11
27613497413,-3,2,1,-2,-4,-9,-11,-3
27613497413,-5,0,4,-2,-1,-3,0,-7
27613512372,9,17,6,2,3,1,-1,-1
27613512372,3,-16,10,10,1,3,1,-1
27613513981,-2,9,3,-9,-4,-7,-7,-3
27613513981,-2,11,5,11,3,4,5,-4
27613534901,-3,-1,-2,-3,-3,-6,-7,-2
27613534901,0,-1,-17,-7,-1,2,1,0
27613536390,12,15,18,3,1,0,4,7
27613536390,-7,1,4,-3,-5,-4,-4,-9
27613548495,-4,-28,-19,-17,-12,-7,-3,-2
27613548495,7,26,37,34,23,12,6,4
27613557402,-2,-21,-33,-15,-7,-4,2,-3
27613557402,-7,-5,3,5,3,0,-1,-6
27613572430,1,-4,-10,-9,-2,0,-5,1
27613572430,3,2,-1,-2,-6,-3,0,-1
27613573909,1,6,5,1,-1,-1,-1,2
27613573909,-13,-9,-5,-6,-1,-5,-10,-12
27613594836,-1,-6,0,1,0,4,8,8
27613594836,-8,-10,-3,-8,-6,-4,-3,-20
27613596368,2,-10,-8,4,4,2,4,19
27613596368,0,18,20,5,-1,-1,-2,0
27613608519,1,4,2,2,0,0,-4,-1
27613608519,0,-2,0,5,1,1,2,0
27613617435,-9,-20,-8,-6,-5,-3,-5,-7
27613617435,-2,-7,0,-2,-1,0,2,-4
27613632366,0,-1,-6,1,1,0,-3,1
27613632366,0,2,0,-5,-3,-2,-1,3
27613633903,0,0,1,-2,-2,-1,-2,-5
27613633903,2,7,1,-2,-4,-3,-2,1
27613654862,-1,4,0,1,0,-4,-7,-2
27613654862,2,1,7,7,2,4,7,5
27613656357,-1,4,1,-2,0,1,1,-1
27613656357,-3,-5,-1,2,1,1,1,-1
27613668560,0,-2,-1,-1,-2,-2,-4,-1
27613668560,-2,-3,-9,-10,-7,-9,-9,-3
27613677389,0,-1,-1,-2,-2,-4,-1,-1
27613677389,0,4,1,-1,0,2,2,0
27613691804,-2,-6,-4,0,2,1,3,-1
27613691804,2,9,2,0,-3,-3,-1,1
27613698616,-2,-9,-1,0,-2,-1,-2,-5
27613698616,-1,8,2,-1,-2,-3,-2,-1
27613714902,-1,-2,-2,1,1,1,2,2
27613714902,2,2,-3,-5,-3,-3,-2,-1
27613716419,0,1,-2,5,3,-1,-2,-1
27613716419,-1,2,3,1,-1,0,0,-2
27613728623,-2,-6,2,-2,-2,-1,0,-2
27613728623,-2,-4,-4,1,3,2,1,1
27613737410,-4,-5,-3,-2,-1,1,2,-1
27613737410,2,4,2,6,3,2,0,2
27613751751,1,10,-2,-2,-1,1,0,-1
27613751751,-4,-4,2,-3,-4,0,-2,-1
27613758497,1,4,-3,-2,-2,0,0,1
27613758497,-6,-19,-7,0,-1,-1,-2,-3
27613776209,3,14,8,2,2,-2,-1,0
27613776209,-1,-2,-1,-1,-3,-1,-1,0
27613778114,-6,-4,0,-1,-2,-2,0,-3
27613778114,-1,-11,-9,-3,-3,-2,-1,-2
27613797423,-4,-21,-3,1,0,2,4,0
27613797423,3,28,9,0,-2,-3,0,0
27613798906,-1,1,3,-2,-2,-2,-4,-3
27613798906,-2,-9,-5,-3,0,-1,-1,-2
27613811691,2,4,2,0,-1,-1,-1,0
27613811691,-3,-3,-8,-6,-3,-2,0,0
27613818545,-7,-15,-9,-3,-4,-3,-2,-3
27613818545,3,11,9,1,-1,0,0,2
27613834979,-1,-2,4,6,3,1,2,-2
27613834979,-6,-8,1,0,1,1,-1,-1
27613836418,1,1,-10,-7,-3,0,-1,-2
27613836418,1,-7,-1,-3,-4,-4,-2,1
27613858076,0,5,5,1,0,2,1,-1
27613858076,2,-2,-5,0,3,0,0,0
27613859554,1,3,3,0,-1,-1,-2,0
27613859554,-1,2,0,-3,0,-2,1,0
27613872193,-8,-17,-13,-7,-6,-4,-3,-3
27613872193,6,19,7,-2,-3,-1,-1,2
27613878508,-2,-5,-7,0,1,0,0,-1
27613878508,3,8,7,0,-2,0,1,-1
27613895013,-2,7,6,0,-1,0,0,-1
27613895013,-6,-21,-8,0,0,1,1,-2
27613896379,1,-5,-1,-1,-2,-2,0,0
27613896379,2,24,3,-1,-1,-1,0,0
27613917399,-4,-14,-5,-1,0,-3,1,0
27613917399,1,1,6,-1,-1,-3,-3,-1
27613918906,0,1,3,1,0,0,-2,-1
27613918906,-3,-7,-1,-1,-1,-1,-3,-2
27613931628,2,6,-1,-2,-4,-2,-2,2
27613931628,-3,-8,-7,-1,0,-1,-1,-1
27613938520,-1,1,0,-1,-2,-1,1,0
27613938520,-2,-5,-5,-2,0,1,-2,0
27613954916,-2,3,-2,0,1,1,-1,-3
27613954916,-1,-5,-2,-1,0,0,0,0
27613956355,-3,5,3,-1,-1,-2,-1,-1
27613956355,-1,-9,-5,-1,-3,0,0,0
27613977453,0,0,-2,-2,-4,-3,-2,-1
27613977453,0,0,2,1,2,2,2,0
27613978899,-2,2,2,1,1,1,-1,-3
27613978899,-4,-7,-3,-2,1,1,-1,-2
27613990963,2,3,-2,-2,1,0,-2,-1
27613990963,-2,-15,-4,-3,-3,-3,-2,1
27613999907,2,7,2,-2,-2,-4,-1,0
27613999907,-2,-5,-3,1,1,-1,-1,-1
27614013967,3,6,4,0,-2,-2,-3,-1
27614013967,-4,-4,-5,-5,-5,-2,-1,-1
27614022385,-3,-18,-9,-2,-2,-1,-1,-2
27614022385,-1,6,-3,-2,-2,-2,-1,-1
27614037315,1,7,0,-4,-1,0,1,0
27614037315,-1,2,0,3,0,-1,0,-1
27614038902,-3,-5,2,-2,-2,-1,0,0
27614038902,3,4,-2,-6,-7,-4,-1,-1
27614051044,-5,4,8,8,8,3,1,-1
27614051044,-2,5,1,2,0,-2,-2,-2
27614059974,-1,-4,-2,-2,-3,-3,-2,-1
27614059974,-1,-6,-4,-1,-1,0,1,-1
27614074939,0,-4,-2,-3,-2,-3,-2,0
27614074939,1,-1,-3,-2,-2,-1,1,-3
27614076375,-1,-2,-4,-1,0,-2,-2,1
27614076375,-3,-5,-2,-1,-1,-2,-3,-4
27614097451,-4,-24,-11,-3,-3,-2,-2,-1
27614097451,7,35,12,4,0,0,0,-1
27614098956,-1,4,2,2,0,0,-1,0
27614098956,1,1,2,-1,0,0,0,-1
27614111410,-3,-9,-3,-2,0,0,0,-2
27614111410,-3,-15,-9,-6,-1,0,-2,0
27614119909,1,4,1,1,-1,0,-2,-1
27614119909,-2,-8,-4,-1,-1,-1,-2,0
27614134880,0,7,4,-4,-3,-2,0,-2
27614134880,-8,-12,-3,0,1,0,0,-2
27614136332,2,11,0,-2,-1,1,2,1
27614136332,-3,-1,0,3,3,0,0,0
27614157540,4,16,15,5,1,0,1,2
27614157540,0,-5,-13,-3,-4,-1,-1,-2
27614158895,-5,-10,-3,-3,-1,-2,0,-3
27614158895,-1,0,-3,-2,-2,0,-1,-2
27614170970,-4,-9,-11,-2,-1,0,1,-1
27614170970,-1,4,6,1,0,-2,-3,-3
27614179908,-1,-7,-1,1,0,-1,-2,-1
27614179908,5,13,13,2,-1,-1,-1,1
27614195354,-1,-3,-12,-4,-3,-1,-2,0
27614195354,-1,-9,-2,-4,-1,-1,0,0
27614196810,-6,-7,-12,-2,-3,-2,-4,-3
27614196810,1,11,9,7,0,-2,-2,-2
27614217422,-1,5,9,1,2,1,0,-2
27614217422,-4,-9,-10,-3,-2,0,0,0
27614218906,2,3,3,-3,-2,-1,1,1
27614218906,-5,-7,-2,0,3,2,2,0
27614231087,-2,-3,-7,-1,-2,-2,0,-2
27614231087,-1,1,1,-3,-1,-1,-1,-1
27614239915,0,3,4,0,0,0,0,-1
27614239915,-3,-5,-7,-5,-3,-2,-3,-2
27614254872,0,-10,-15,-9,-5,-3,0,1
27614254872,-1,3,13,9,1,0,0,-1
27614256352,1,8,7,3,1,-2,-1,-1
27614256352,-1,-9,0,-2,-2,-1,-2,-1
27614277488,-2,5,-5,-3,0,1,-1,-2
27614277488,-3,-3,-8,-4,-3,-3,-2,-10
27614278935,0,-5,-14,-7,-2,-2,0,3
27614278935,-1,7,17,7,1,0,2,2
27614291042,-4,-3,-3,0,-1,1,2,-9
27614291042,-3,-5,-4,-2,0,-3,-7,8
27614299906,2,-1,12,5,1,-5,-13,-9
27614299906,-5,-9,-19,-7,1,5,10,6
27614314873,-3,0,4,-1,-1,1,2,12
27614314873,3,5,4,2,0,-1,1,-5
27614316376,-2,-3,-10,-5,0,1,-5,-2
27614316376,-2,-1,13,10,1,-3,-8,-2
27614337420,-3,-4,-9,-4,-3,-4,-6,-8
27614337420,2,-2,-9,-4,-4,-1,0,1
27614338900,-4,-11,-2,5,5,3,5,2
27614338900,-3,0,2,-10,-5,-5,-4,-9
27614350969,2,12,6,6,1,-1,-3,-5
27614350969,-3,-12,-25,-8,-4,0,3,7
27614359937,-2,0,-1,-5,-3,-3,2,-2
27614359937,-3,-12,-23,-2,-1,1,0,-1
27614374897,4,2,-12,-9,-5,-6,-5,1
27614374897,5,18,35,19,6,3,4,3
27614376378,-8,-4,7,-1,-1,3,2,-3
27614376378,2,-1,11,12,2,-2,-2,-1
27614397376,-5,-6,-12,-9,-2,1,0,0
27614397376,-3,-1,-12,-7,-5,-3,-3,-6
27614398899,1,-7,-22,-8,-3,-1,-4,-1
27614398899,3,15,33,2,0,-1,7,4
27614411073,-2,-10,-15,-1,-2,-4,-5,-5
27614411073,-5,-11,15,6,4,3,0,1
27614419912,-1,13,-17,-8,-4,-2,-3,-2
27614419912,1,12,55,19,0,-2,-5,-1
27614434815,-3,-1,-4,-1,-3,-6,-11,-17
27614434815,-13,-22,-14,-10,-2,3,5,10
27614436326,9,9,-12,-6,-2,1,7,7
27614436326,-1,-5,-30,-10,-3,-2,-2,-3
27614457370,-6,-8,10,5,1,-1,-1,-2
27614457370,3,-6,-10,-4,-2,-3,-6,1
27614458904,1,24,22,1,-1,-1,-1,-1
27614458904,6,-4,1,-2,-3,0,2,3
27614471053,3,6,-7,0,3,1,0,0
27614471053,-3,-2,-8,4,2,-3,-7,-9
27614479906,-1,-10,0,1,-3,-2,0,10
27614479906,-8,-14,-22,-10,-3,-1,-3,-4
27614494846,-1,4,5,-7,-3,-1,3,5
27614494846,2,0,2,1,0,-1,0,-3
27614496370,5,4,-5,-4,-5,-5,-11,-8
27614496370,-7,4,-3,-1,1,2,5,2
27614517271,-2,2,33,10,4,5,3,2
27614517271,-3,-13,-27,-8,-4,-5,-3,1
27614518939,5,18,9,-6,-4,-2,-4,-5
27614518939,0,-1,0,10,5,-1,-5,-7
27614530901,-1,-7,-7,-5,-4,-3,-3,-3
27614530901,4,13,19,4,3,3,6,1
27614539886,-11,-22,-13,-3,-3,-1,1,5
27614539886,-2,-3,-24,-13,-7,-4,-3,3
27614554882,-3,4,11,7,2,1,-1,-2
27614554882,1,4,-2,-4,-2,-1,-3,-3
27614556334,-6,-11,-2,1,1,1,4,-3
27614556334,0,1,-6,-3,-3,-5,-4,-3
27614577359,-3,-11,5,5,2,0,-1,4
27614577359,0,-3,-18,-10,-6,-2,-3,-3
27614578901,-1,3,6,9,4,4,5,-3
27614578901,-3,-7,-12,-6,-1,1,-2,-2
27614591094,3,13,0,-3,-5,-5,0,8
27614591094,-4,-17,-1,-3,-3,-2,-2,-3
27614599917,0,6,16,9,1,1,1,-1
27614599917,1,-1,3,-7,-4,-2,-3,-3
27614614224,0,-10,-19,-9,-2,1,6,4
27614614224,6,14,29,13,3,1,-2,4
27614620974,-13,-13,-4,-1,1,-4,-3,-7
27614620974,3,-2,-15,-10,-5,-2,-1,-5
27614637423,-7,-9,-8,1,1,2,3,-2
27614637423,0,6,4,-3,-3,-3,-1,-4
27614638897,0,-6,-2,-4,-2,-1,-2,-1
27614638897,-3,3,6,3,3,1,-1,2
27614651018,2,-7,-20,-9,-4,-2,-3,-3
27614651018,-2,4,13,4,1,-2,-4,-3
27614659907,6,10,13,9,2,0,1,2
27614659907,-3,-5,-5,-3,-2,-1,-1,1
27614674200,1,-2,8,1,-1,0,-1,-1
27614674200,-1,-5,-15,-11,-1,0,0,-1
27614681006,0,2,10,0,-4,-1,-1,1
27614681006,0,0,-8,-1,1,-2,0,0
27614696476,2,-4,14,6,0,1,-1,1
27614696476,-7,-3,-6,2,0,0,0,-4
27614704908,0,2,-1,0,-1,-2,-1,-3
27614704908,1,-4,-12,-5,-2,1,0,3
27614719801,-1,0,2,-4,-3,-4,-1,-3
27614719801,2,11,20,6,-2,-3,-4,-2
27614721335,-2,-5,-15,-8,-3,-1,-1,1
27614721335,-1,-10,-8,-4,-1,-1,-4,-5
27614734179,3,13,4,1,0,1,1,2
27614734179,-3,-4,-5,-2,-3,-2,-2,1
27614741026,0,-4,-2,-2,0,-2,0,-2
27614741026,0,1,5,1,-1,-1,0,-9
27614757280,-3,2,0,0,-1,-3,-3,10
27614757280,-1,-9,-3,-3,-1,0,3,3
27614758937,2,9,-1,0,0,2,-1,-2
27614758937,-1,3,7,2,1,-1,-2,-1
27614779755,2,4,6,3,-1,-1,-4,3
27614779755,-1,-11,-16,-9,-2,-1,1,2
27614781336,-1,-11,1,1,-1,0,0,2
27614781336,1,1,-10,-5,-1,1,0,0
27614794140,2,3,18,9,1,-2,-3,-3
27614794140,-4,-1,-16,-5,-2,-1,-2,-2
27614801129,-5,-8,-3,0,0,-1,-1,-2
27614801129,-8,-10,-3,-1,-2,1,0,-3
27614817291,2,5,3,-3,-1,-2,-1,0
27614817291,1,-1,-4,-1,-1,0,-1,-1
27614818900,-3,-7,-1,1,2,0,-1,-2
27614818900,1,0,2,-2,-2,0,0,4
27614839844,-1,-4,-4,-1,-1,0,0,-2
27614839844,-3,-4,-2,1,-3,-1,-1,-5
27614841369,0,10,11,-4,-2,-3,1,1
27614841369,-1,1,6,4,-2,-3,-5,-1
27614855357,-4,-3,-4,-1,0,-1,-1,-8
27614855357,1,4,-2,-2,2,2,-1,-3
27614856835,0,-9,-16,-8,-2,-1,-1,0
27614856835,1,5,28,17,0,-2,0,1
27614877385,-7,-14,-26,-9,-1,-2,-3,-4
27614877385,3,0,-2,-5,-1,-1,-1,1
27614878918,-1,-5,8,6,1,-1,-2,-3
27614878918,1,6,-1,-3,0,1,0,1
27614899850,-2,-2,-7,-6,-4,-1,-1,-5
27614899850,5,3,7,5,2,1,0,11
27614901365,-3,-4,-2,-3,-3,-4,-4,-3
27614901365,-1,-3,-11,-6,-3,-3,0,8
27614914122,-6,-5,1,4,1,0,-2,-12
27614914122,4,5,-2,-5,-2,-4,-2,0
27614921053,-4,2,4,2,1,3,0,-16
27614921053,-9,-5,-12,-7,-2,-2,0,2
27614937359,10,2,3,1,-1,-3,-4,5
27614937359,-4,-11,-2,-3,0,1,3,-1
27614938905,3,15,4,3,3,1,-2,-3
27614938905,-2,1,8,-2,-1,-2,-3,-4
27614959879,4,-4,-18,-8,0,2,0,-7
27614959879,-9,-15,1,3,-4,-3,-2,0
27614961356,5,0,-21,-6,-4,-5,-5,13
27614961356,17,13,5,-1,-1,-3,-4,-6
27614974200,-37,0,17,2,-1,3,10,-7
27614974200,6,6,-6,-4,4,0,-3,-8
27614981043,-1,-10,-7,0,-2,-1,-3,-5
27614981043,-2,-5,-3,0,0,-1,-3,-8
27614997368,5,-6,-12,-5,-4,-5,-6,8
27614997368,2,6,4,-4,-2,-3,1,0
27614998899,-10,-11,-3,-2,-3,-1,1,-1
27614998899,0,0,-9,-5,-1,-1,-1,2
27615019736,21,6,-4,1,-3,-3,-2,-5
27615019736,-12,-12,-11,4,1,1,3,5
27615021353,9,20,21,-1,-3,-3,-2,5
27615021353,-6,-12,-10,-6,-5,-2,-2,-4
27615033441,1,3,12,9,7,5,0,3
27615033441,3,4,5,1,-2,-5,-3,-1
27615048498,-7,-1,-3,-5,-5,-6,-2,0
27615048498,-3,-10,-15,-5,-1,5,8,10
27615057260,-3,-2,4,1,0,1,1,8
27615057260,4,14,4,-2,-1,0,-1,-7
27615058926,-5,-9,-1,3,2,5,2,-2
27615058926,-3,-3,-3,0,-1,-3,-4,-4
27615079909,-10,-9,-9,-6,-5,-6,-1,9
27615079909,-2,-2,6,1,-4,-5,-8,-22
27615081330,-5,-5,-3,-1,2,6,7,15
27615081330,2,1,-2,2,3,3,3,2
27615093590,-3,7,8,2,-1,0,-1,-4
27615093590,-22,-3,-5,-5,-5,-9,-13,-28
27615102360,19,1,0,-1,1,10,16,31
27615102360,0,3,2,7,3,1,-1,-8
27615117291,1,-8,-7,-3,-3,-2,-2,5
27615117291,-1,-1,4,2,0,-1,-2,-5
27615118812,21,15,7,4,1,-2,-1,19
27615118812,-21,-18,-8,-4,-5,-3,-3,-11
27615139850,0,0,-2,-5,-1,-3,-6,3
27615139850,2,9,2,-1,-2,1,3,5
27615141355,7,0,3,2,2,2,1,-8
27615141355,7,3,-5,-2,-2,-4,-4,2
27615154201,-3,-1,-1,-2,-1,-1,-2,-11
27615154201,6,3,4,2,0,1,0,-2
27615160979,-7,-12,-11,-5,-3,-5,-3,10
27615160979,-1,6,16,5,-1,-2,2,5
27615177365,4,-9,-15,-2,0,-1,-4,-10
27615177365,1,2,-4,-1,1,3,3,18
27615178898,8,5,8,-1,-4,-5,-7,-4
27615178898,0,-2,-3,-1,-1,-5,0,13
27615199988,6,6,1,-1,0,5,5,29
27615199988,-1,-1,2,0,-1,5,6,13
27615201356,-24,0,-5,-1,-2,-4,-7,-24
27615201356,-4,-29,-22,-6,-4,-2,-8,-17
27615213477,-6,28,19,4,-2,-2,0,-7
27615213477,-9,-11,-9,-3,1,-1,-3,-21
27615222379,-3,-15,-23,-7,-2,-2,-5,5
27615222379,4,11,22,8,3,7,5,2
27615237255,-7,-11,-19,-7,-1,-1,-2,-11
27615237255,4,-3,4,-1,-6,-4,-3,5
27615238904,-11,2,1,2,0,-3,-3,-4
27615238904,-5,-2,-10,-6,-3,-3,-2,-19
27615259896,2,-4,7,2,2,4,0,-3
27615259896,9,-5,-6,-3,0,0,3,19
27615261381,3,-1,-2,-3,0,-1,-2,-13
27615261381,-11,-5,-5,-4,-5,-3,-2,3
27615273514,-7,-6,-8,0,-1,-2,-2,-12
27615273514,7,4,-1,2,0,0,-1,-4
27615282409,0,-5,1,0,-2,0,-4,-7
27615282409,15,1,7,-3,-3,0,4,18
27615297289,6,3,-5,-4,-2,-3,0,5
27615297289,-19,1,8,5,0,1,-1,-9
27615298921,-7,12,12,1,0,-1,-2,-24
27615298921,-8,-6,-5,0,1,-3,-3,2
27615319802,-17,-10,-3,0,-1,-4,-2,0
27615319802,-11,-1,-2,-1,3,7,3,1
27615321340,5,-5,-9,-2,-1,1,7,23
27615321340,-7,-10,-8,-3,-1,-1,-1,-3
27615333502,23,13,10,0,-3,-5,-1,7
27615333502,-21,-5,-1,0,-2,0,-4,-38
27615342411,-1,-9,-8,-4,0,1,-1,-23
27615342411,1,8,3,1,1,4,7,8
27615357373,15,4,5,2,-2,-1,-1,3
27615357373,14,3,0,-3,-4,-3,2,11
27615358906,-6,-3,0,-1,-2,-6,-7,-6
27615358906,2,-2,-13,-7,-3,-2,-2,-2
27615379851,-8,-3,11,5,3,0,-3,-15
27615379851,-4,-7,-1,0,-2,-5,-2,14
27615381346,-5,1,0,-1,-1,1,2,-2
27615381346,10,3,-1,0,-2,-3,-4,20
27615393525,1,-4,-8,-5,-2,-2,-1,11
27615393525,5,-1,0,-4,-1,-2,-1,-11
27615408525,-1,2,-3,1,-1,0,2,-6
27615408525,0,3,2,1,0,-1,-3,-9
27615417297,-1,-4,-3,-2,-2,2,2,5
27615417297,5,3,-2,-2,0,-3,-1,11
27615418903,1,2,6,0,0,-1,-3,-5
27615418903,-9,-14,-8,2,1,0,1,4
27615439874,-9,15,8,-3,-2,1,-2,0
27615439874,4,-11,-5,-3,-1,-2,-2,6
27615441408,-5,-2,-6,-1,-2,-1,2,27
27615441408,-7,0,1,-3,-2,-2,-5,-16
