26492281360,-0.0956420898438,-0.144226074219,0.864135742188,0.472534179688
26492296483,-0.0955810546875,-0.142517089844,0.864440917969,0.472473144531
26492317668,-0.097900390625,-0.138610839844,0.864929199219,0.472229003906
26492341430,-0.0906982421875,-0.13916015625,0.865173339844,0.47314453125
26492356333,-0.08447265625,-0.139953613281,0.865295410156,0.473815917969
26492377742,-0.0870971679688,-0.139953613281,0.865417480469,0.47314453125
26492401366,-0.096435546875,-0.138732910156,0.865600585938,0.471374511719
26492416421,-0.0958862304688,-0.138916015625,0.865661621094,0.471252441406
26492469074,-0.0888061523438,-0.140686035156,0.865356445312,0.472717285156
26492469771,-0.0924682617188,-0.140441894531,0.865112304688,0.472534179688
26492478418,-0.099365234375,-0.138671875,0.865112304688,0.471618652344
26492491329,-0.0943603515625,-0.139404296875,0.864868164062,0.472839355469
26492513446,-0.0948486328125,-0.142639160156,0.864379882812,0.472717285156
26492536424,-0.094970703125,-0.144287109375,0.864318847656,0.472351074219
26492580088,-0.09521484375,-0.145629882812,0.864135742188,0.47216796875
26492590308,-0.0953369140625,-0.146301269531,0.864013671875,0.472106933594
26492596443,-0.0953369140625,-0.146423339844,0.864013671875,0.47216796875
26492611426,-0.0936279296875,-0.148193359375,0.86376953125,0.472290039062
26492633927,-0.0897827148438,-0.150390625,0.863525390625,0.472839355469
26492663201,-0.0836181640625,-0.152648925781,0.863159179688,0.473876953125
26492679574,-0.0850219726562,-0.153625488281,0.862976074219,0.4736328125
26492702115,-0.0929565429688,-0.152465820312,0.863220214844,0.472106933594
26492724573,-0.0909423828125,-0.152099609375,0.863342285156,0.472351074219
26492739570,-0.0828247070312,-0.1533203125,0.863098144531,0.473937988281
26492762077,-0.0864868164062,-0.15283203125,0.863098144531,0.473510742188
26492784553,-0.0916748046875,-0.151184082031,0.86328125,0.47265625
26492799555,-0.084228515625,-0.151550292969,0.863220214844,0.474060058594
26492822091,-0.0824584960938,-0.149597167969,0.863525390625,0.474487304688
26492844555,-0.0816650390625,-0.149291992188,0.863708496094,0.474304199219
26492858962,-0.0814819335938,-0.148315429688,0.863830566406,0.474426269531
26492872536,-0.0814208984375,-0.147399902344,0.863891601562,0.474609375
26492895150,-0.0816040039062,-0.146667480469,0.863952636719,0.474670410156
26492910062,-0.0818481445312,-0.146118164062,0.864013671875,0.474731445312
26492932625,-0.0819091796875,-0.146057128906,0.864013671875,0.474731445312
26492947554,-0.08203125,-0.146057128906,0.864013671875,0.474670410156
26492970165,-0.0820922851562,-0.14599609375,0.864013671875,0.474670410156
26492992662,-0.0821533203125,-0.14599609375,0.864013671875,0.474670410156
26493007546,-0.0824584960938,-0.146179199219,0.864013671875,0.474609375
26493030021,-0.0828247070312,-0.146423339844,0.864013671875,0.474487304688
26493052417,-0.0829467773438,-0.146423339844,0.864013671875,0.474487304688
26493067473,-0.0830078125,-0.146423339844,0.864013671875,0.474426269531
26493090064,-0.0831298828125,-0.146423339844,0.864013671875,0.474426269531
26493112437,-0.0831909179688,-0.146240234375,0.864135742188,0.474243164062
26493127551,-0.083251953125,-0.146301269531,0.8642578125,0.473937988281
26493150042,-0.0833129882812,-0.146301269531,0.8642578125,0.473937988281
26493172440,-0.0833740234375,-0.146301269531,0.8642578125,0.473937988281
26493187487,-0.083740234375,-0.146362304688,0.8642578125,0.473815917969
26493209933,-0.0842895507812,-0.146728515625,0.8642578125,0.473693847656
26493232379,-0.0847778320312,-0.147155761719,0.8642578125,0.473510742188
26493247432,-0.0851440429688,-0.147766113281,0.8642578125,0.473205566406
26493270115,-0.08544921875,-0.148315429688,0.864318847656,0.472900390625
26493292457,-0.0856323242188,-0.148620605469,0.864379882812,0.47265625
26493307569,-0.0858154296875,-0.148742675781,0.864440917969,0.472412109375
26493329977,-0.0861206054688,-0.148803710938,0.864562988281,0.472106933594
26493352432,-0.08642578125,-0.148986816406,0.864624023438,0.471923828125
26493367601,-0.0867919921875,-0.149108886719,0.864624023438,0.471801757812
26493390014,-0.0868530273438,-0.149108886719,0.864624023438,0.471801757812
26493421380,-0.0869140625,-0.149108886719,0.864624023438,0.471801757812
26493427581,-0.0870361328125,-0.149047851562,0.864624023438,0.471740722656
26493450045,-0.0870971679688,-0.149047851562,0.864624023438,0.471740722656
26493472534,-0.0874633789062,-0.148681640625,0.864624023438,0.471740722656
26493495044,-0.0875244140625,-0.148681640625,0.864624023438,0.471740722656
26493510052,-0.0873413085938,-0.149536132812,0.864501953125,0.471801757812
26493532591,-0.0873413085938,-0.149841308594,0.864501953125,0.471740722656
26493547452,-0.0879516601562,-0.149719238281,0.864685058594,0.471313476562
26493570116,-0.0886840820312,-0.149658203125,0.864868164062,0.470886230469
26493592586,-0.089599609375,-0.149841308594,0.864929199219,0.470458984375
26493610357,-0.0901489257812,-0.150146484375,0.864990234375,0.470153808594
26493629979,-0.0902709960938,-0.150146484375,0.864990234375,0.470153808594
26493652619,-0.0902709960938,-0.150573730469,0.864929199219,0.470153808594
26493670372,-0.0902709960938,-0.151245117188,0.864868164062,0.470031738281
26493690005,-0.0906372070312,-0.151672363281,0.864868164062,0.469848632812
26493712449,-0.0911254882812,-0.151916503906,0.864929199219,0.469482421875
26493730332,-0.0919189453125,-0.152038574219,0.865051269531,0.469177246094
26493749915,-0.0928344726562,-0.15185546875,0.865112304688,0.468933105469
26493775327,-0.0936889648438,-0.151733398438,0.865051269531,0.468811035156
26493790385,-0.0942993164062,-0.151306152344,0.865112304688,0.46875
26493811379,-0.0948486328125,-0.150390625,0.865051269531,0.469055175781
26493832546,-0.0955200195312,-0.150390625,0.864685058594,0.469543457031
26493850505,-0.0968017578125,-0.150756835938,0.864562988281,0.469482421875
26493871366,-0.0984497070312,-0.150207519531,0.864624023438,0.469177246094
26493892555,-0.0997314453125,-0.148559570312,0.864685058594,0.469299316406
26493910312,-0.100341796875,-0.146545410156,0.864501953125,0.470153808594
26493931437,-0.101379394531,-0.145935058594,0.863891601562,0.47119140625
26493952561,-0.102233886719,-0.144775390625,0.863586425781,0.471984863281
26493970357,-0.10302734375,-0.142150878906,0.863647460938,0.472473144531
26493991373,-0.104431152344,-0.139953613281,0.863708496094,0.472717285156
26494012526,-0.105834960938,-0.137390136719,0.863830566406,0.472900390625
26494030344,-0.107360839844,-0.134948730469,0.864074707031,0.472839355469
26494051422,-0.108337402344,-0.130249023438,0.864562988281,0.473022460938
26494072552,-0.108520507812,-0.123596191406,0.865173339844,0.473693847656
26494090350,-0.108520507812,-0.115966796875,0.865539550781,0.474975585938
26494111374,-0.109008789062,-0.107482910156,0.866027832031,0.475891113281
26494132459,-0.110961914062,-0.0977783203125,0.8662109375,0.477233886719
26494150314,-0.114074707031,-0.0877685546875,0.866027832031,0.478820800781
26494177552,-0.119140625,-0.0784301757812,0.865600585938,0.479919433594
26494192521,-0.126892089844,-0.0699462890625,0.864624023438,0.481018066406
26494210356,-0.136108398438,-0.061279296875,0.86328125,0.482116699219
26494232885,-0.146301269531,-0.0521240234375,0.861877441406,0.482666015625
26494253885,-0.158020019531,-0.0432739257812,0.860473632812,0.482299804688
26494270334,-0.170959472656,-0.0349731445312,0.859130859375,0.481018066406
26494292890,-0.184387207031,-0.0247802734375,0.857604980469,0.479431152344
26494312578,-0.197937011719,-0.012451171875,0.855651855469,0.477966308594
26494330772,-0.211120605469,0.00042724609375,0.853393554688,0.476501464844
26494352942,-0.224182128906,0.013671875,0.851135253906,0.474365234375
26494372608,-0.236572265625,0.0285034179688,0.848876953125,0.471740722656
26494390341,-0.248474121094,0.044677734375,0.846313476562,0.468994140625
26494412952,-0.260375976562,0.0609130859375,0.843200683594,0.46630859375
26494432562,-0.272155761719,0.0765991210938,0.839782714844,0.46337890625
26494449510,-0.283264160156,0.092041015625,0.83642578125,0.460021972656
26494471992,-0.294494628906,0.106018066406,0.832885742188,0.456359863281
26494493250,-0.305480957031,0.119384765625,0.829040527344,0.452819824219
26494509547,-0.3154296875,0.133239746094,0.824890136719,0.449645996094
26494532017,-0.324035644531,0.148559570312,0.820373535156,0.447082519531
26494553207,-0.332275390625,0.163269042969,0.815368652344,0.445068359375
26494575722,-0.339721679688,0.177673339844,0.810546875,0.442687988281
26494592083,-0.345825195312,0.191528320312,0.806213378906,0.440063476562
26494613200,-0.351867675781,0.203552246094,0.802185058594,0.437255859375
26494629531,-0.356994628906,0.21484375,0.798217773438,0.434936523438
26494652019,-0.360290527344,0.226867675781,0.794372558594,0.43310546875
26494673227,-0.363220214844,0.238586425781,0.790649414062,0.431213378906
26494689690,-0.365173339844,0.250671386719,0.786743164062,0.429931640625
26494719584,-0.366271972656,0.263000488281,0.782592773438,0.429138183594
26494733028,-0.367492675781,0.273681640625,0.778442382812,0.428955078125
26494749461,-0.369018554688,0.281982421875,0.775268554688,0.427978515625
26494786198,-0.370300292969,0.289733886719,0.772338867188,0.427062988281
26494793180,-0.370788574219,0.294616699219,0.770202636719,0.427062988281
26494809520,-0.373657226562,0.302734375,0.765930175781,0.426635742188
26494832039,-0.374145507812,0.310668945312,0.762451171875,0.426696777344
26494853247,-0.375366210938,0.31640625,0.759399414062,0.426879882812
26494869556,-0.375671386719,0.322631835938,0.75634765625,0.427368164062
26494892050,-0.377685546875,0.326782226562,0.753479003906,0.427490234375
26494913187,-0.379516601562,0.330627441406,0.750915527344,0.427429199219
26494928920,-0.380615234375,0.334838867188,0.748168945312,0.427917480469
26494952036,-0.382873535156,0.337707519531,0.74560546875,0.42822265625
26494973218,-0.384948730469,0.340148925781,0.743225097656,0.428588867188
26494988959,-0.386779785156,0.342163085938,0.741149902344,0.428833007812
26495012042,-0.388977050781,0.343627929688,0.739685058594,0.428344726562
26495033139,-0.391174316406,0.344116210938,0.73876953125,0.427368164062
26495049660,-0.393310546875,0.342529296875,0.739013671875,0.426391601562
26495072488,-0.394592285156,0.341491699219,0.738830566406,0.42626953125
26495094500,-0.3955078125,0.340209960938,0.739074707031,0.426025390625
26495109548,-0.395935058594,0.339111328125,0.739624023438,0.425598144531
26495132021,-0.396362304688,0.337097167969,0.740417480469,0.425354003906
26495162019,-0.396850585938,0.334838867188,0.741149902344,0.425476074219
26495169547,-0.397644042969,0.332580566406,0.741760253906,0.425415039062
26495192000,-0.398498535156,0.329772949219,0.742492675781,0.425537109375
26495218124,-0.399047851562,0.327453613281,0.743041992188,0.425903320312
26495228912,-0.399353027344,0.326049804688,0.743225097656,0.426330566406
26495251975,-0.400329589844,0.322937011719,0.743957519531,0.426452636719
26495276070,-0.401611328125,0.319396972656,0.744689941406,0.426696777344
26495296970,-0.402465820312,0.315551757812,0.745788574219,0.426879882812
26495311989,-0.402893066406,0.311401367188,0.747009277344,0.427368164062
26495334540,-0.40234375,0.307861328125,0.748474121094,0.427856445312
26495363123,-0.40087890625,0.304992675781,0.750061035156,0.428466796875
26495372029,-0.39990234375,0.304321289062,0.750793457031,0.428649902344
26495394544,-0.398193359375,0.301452636719,0.752563476562,0.42919921875
26495417020,-0.397338867188,0.297241210938,0.754333496094,0.429809570312
26495431823,-0.398559570312,0.299377441406,0.753784179688,0.428100585938
26495454492,-0.398620605469,0.296997070312,0.755004882812,0.427612304688
26495468911,-0.3994140625,0.296081542969,0.755249023438,0.427001953125
26495492052,-0.399658203125,0.296936035156,0.755493164062,0.425720214844
26495514502,-0.399658203125,0.296936035156,0.75634765625,0.424255371094
26495528947,-0.399658203125,0.296936035156,0.757080078125,0.422912597656
26495552048,-0.399658203125,0.296508789062,0.757629394531,0.422302246094
26495574519,-0.399047851562,0.296875,0.758239746094,0.421508789062
26495595672,-0.398742675781,0.295715332031,0.759216308594,0.420776367188
26495612002,-0.398193359375,0.294494628906,0.76025390625,0.420349121094
26495634513,-0.397888183594,0.292724609375,0.761474609375,0.419677734375
26495655591,-0.397888183594,0.290832519531,0.762573242188,0.419006347656
26495679464,-0.397277832031,0.289611816406,0.763977050781,0.417785644531
26495694611,-0.395690917969,0.287658691406,0.765686035156,0.417541503906
26495717191,-0.3935546875,0.286499023438,0.766662597656,0.418518066406
26495731992,-0.392944335938,0.284912109375,0.766967773438,0.419616699219
26495754542,-0.39208984375,0.285766601562,0.767150878906,0.419555664062
26495775550,-0.390747070312,0.285949707031,0.768371582031,0.41845703125
26495791333,-0.390197753906,0.282287597656,0.770446777344,0.417602539062
26495814485,-0.388854980469,0.27783203125,0.772521972656,0.41796875
26495835572,-0.385620117188,0.2744140625,0.775024414062,0.418579101562
26495851449,-0.380432128906,0.269775390625,0.778991699219,0.419006347656
26495874513,-0.37451171875,0.262023925781,0.783996582031,0.419860839844
26495898464,-0.367065429688,0.25390625,0.789611816406,0.421081542969
26495911644,-0.3583984375,0.245544433594,0.79541015625,0.422485351562
26495935962,-0.348937988281,0.237487792969,0.801086425781,0.424255371094
26495955777,-0.338684082031,0.228698730469,0.806945800781,0.426330566406
26495971504,-0.327453613281,0.216552734375,0.813598632812,0.428833007812
26495995046,-0.314636230469,0.203552246094,0.820129394531,0.432250976562
26496015616,-0.304077148438,0.192565917969,0.825012207031,0.435668945312
26496045666,-0.294494628906,0.185485839844,0.828735351562,0.438171386719
26496054578,-0.283020019531,0.169738769531,0.834289550781,0.441528320312
26496076984,-0.275207519531,0.161560058594,0.837219238281,0.444030761719
26496091311,-0.263732910156,0.145263671875,0.841674804688,0.4482421875
26496114498,-0.255493164062,0.13818359375,0.843566894531,0.451538085938
26496137068,-0.242858886719,0.12451171875,0.846984863281,0.456176757812
26496151567,-0.234130859375,0.119750976562,0.848083496094,0.4599609375
26496174559,-0.222595214844,0.106689453125,0.8505859375,0.464233398438
26496197038,-0.212341308594,0.0974731445312,0.852416992188,0.467712402344
26496218678,-0.201782226562,0.0891723632812,0.853942871094,0.47119140625
26496234642,-0.191772460938,0.0812377929688,0.855224609375,0.474487304688
26496256950,-0.182678222656,0.072021484375,0.856201171875,0.477783203125
26496278154,-0.174133300781,0.0621948242188,0.857116699219,0.480712890625
26496294437,-0.165649414062,0.052978515625,0.858276367188,0.482788085938
26496317142,-0.15673828125,0.0443725585938,0.859619140625,0.484130859375
26496338123,-0.147521972656,0.03466796875,0.860961914062,0.485473632812
26496354598,-0.138305664062,0.0243530273438,0.861877441406,0.487182617188
26496377037,-0.129089355469,0.0142211914062,0.862487792969,0.489074707031
26496398152,-0.118957519531,0.00482177734375,0.862731933594,0.491333007812
26496414496,-0.108093261719,-0.00396728515625,0.862976074219,0.493469238281
26496437181,-0.0970458984375,-0.0126953125,0.863098144531,0.495361328125
26496458146,-0.0861206054688,-0.0208129882812,0.863098144531,0.497131347656
26496474535,-0.0753784179688,-0.028564453125,0.862976074219,0.498718261719
26496497019,-0.0640258789062,-0.0359497070312,0.862670898438,0.500305175781
26496518164,-0.0527954101562,-0.0421142578125,0.862243652344,0.501953125
26496534714,-0.0426635742188,-0.047119140625,0.861633300781,0.503479003906
26496557041,-0.0335083007812,-0.0518188476562,0.860900878906,0.5048828125
26496578034,-0.0254516601562,-0.0567626953125,0.859924316406,0.506591796875
26496594469,-0.01904296875,-0.0617065429688,0.858642578125,0.508361816406
26496617190,-0.0136108398438,-0.0662841796875,0.857543945312,0.509826660156
26496638274,-0.0081787109375,-0.0703735351562,0.856506347656,0.511169433594
26496654589,-0.00323486328125,-0.0737915039062,0.855285644531,0.512817382812
26496676990,0.00067138671875,-0.076904296875,0.853942871094,0.514526367188
26496698129,0.0037841796875,-0.0801391601562,0.852905273438,0.515808105469
26496721956,0.0064697265625,-0.0833129882812,0.85205078125,0.516662597656
26496736972,0.00933837890625,-0.0857543945312,0.851379394531,0.517333984375
26496758243,0.0121459960938,-0.0872192382812,0.850524902344,0.518432617188
26496773966,0.0140991210938,-0.0888061523438,0.849548339844,0.519714355469
26496796999,0.0155029296875,-0.0908203125,0.8486328125,0.520812988281
26496818193,0.0169677734375,-0.0928955078125,0.847900390625,0.521606445312
26496834495,0.0184936523438,-0.09423828125,0.847290039062,0.522338867188
26496857023,0.02001953125,-0.0953369140625,0.846801757812,0.522827148438
26496878105,0.0215454101562,-0.0967407226562,0.846374511719,0.523193359375
26496894500,0.0231323242188,-0.0986938476562,0.846069335938,0.523254394531
26496916961,0.0245971679688,-0.0982666015625,0.845825195312,0.523681640625
26496938227,0.0263671875,-0.0965576171875,0.845825195312,0.52392578125
26496954531,0.02734375,-0.0947875976562,0.845886230469,0.524108886719
26496976978,0.0277709960938,-0.0940551757812,0.845764160156,0.524353027344
26496999515,0.0281982421875,-0.0935668945312,0.845764160156,0.5244140625
26497014239,0.029296875,-0.09326171875,0.845825195312,0.5244140625
26497037093,0.0308837890625,-0.0929565429688,0.845764160156,0.5244140625
26497059469,0.032470703125,-0.0928344726562,0.845581054688,0.524597167969
26497074547,0.0336303710938,-0.0927124023438,0.845520019531,0.524658203125
26497097031,0.0345458984375,-0.0926513671875,0.845520019531,0.524597167969
26497119517,0.03515625,-0.0927734375,0.845520019531,0.524597167969
26497133928,0.0353393554688,-0.0930786132812,0.845397949219,0.524719238281
26497157001,0.0350952148438,-0.0936889648438,0.84521484375,0.52490234375
26497179466,0.03466796875,-0.0946044921875,0.844970703125,0.525146484375
26497193926,0.0343017578125,-0.0955810546875,0.844604492188,0.525573730469
26497217259,0.0340576171875,-0.0962524414062,0.844299316406,0.525939941406
26497239544,0.0338745117188,-0.0966186523438,0.844055175781,0.526306152344
26497253798,0.0335693359375,-0.0963745117188,0.843811035156,0.526794433594
26497276968,0.0331420898438,-0.095458984375,0.843505859375,0.527465820312
26497299500,0.0319213867188,-0.094970703125,0.842712402344,0.528869628906
26497320725,0.0285034179688,-0.096435546875,0.841247558594,0.531127929688
26497336976,0.0238037109375,-0.0985107421875,0.83935546875,0.533996582031
26497359496,0.0182495117188,-0.102600097656,0.837280273438,0.53662109375
26497381973,0.00982666015625,-0.1044921875,0.835327148438,0.539611816406
26497396970,-0.00054931640625,-0.104614257812,0.833679199219,0.542236328125
26497419497,-0.01220703125,-0.101867675781,0.83251953125,0.544372558594
26497440782,-0.0258178710938,-0.0967407226562,0.831604003906,0.546203613281
26497456966,-0.0410766601562,-0.0903930664062,0.830688476562,0.547729492188
26497479489,-0.0581665039062,-0.081787109375,0.829833984375,0.548828125
26497500694,-0.0759887695312,-0.0720825195312,0.829345703125,0.548767089844
26497517026,-0.09375,-0.0621337890625,0.828735351562,0.548156738281
26497539458,-0.111328125,-0.0503540039062,0.828491210938,0.546447753906
26497560687,-0.128112792969,-0.0362548828125,0.828430175781,0.5439453125
26497576988,-0.145324707031,-0.0205078125,0.827880859375,0.541259765625
26497599468,-0.161804199219,-0.003662109375,0.827209472656,0.538024902344
26497628184,-0.178039550781,0.0133666992188,0.826477050781,0.533813476562
26497637021,-0.194091796875,0.0305786132812,0.825256347656,0.529418945312
26497661413,-0.210144042969,0.048095703125,0.823669433594,0.5244140625
26497680712,-0.225463867188,0.0662231445312,0.821655273438,0.519226074219
26497696965,-0.240539550781,0.0834350585938,0.819213867188,0.513793945312
26497719499,-0.255187988281,0.098876953125,0.81689453125,0.507690429688
26497740511,-0.268371582031,0.114379882812,0.814514160156,0.501403808594
26497747355,-0.280700683594,0.131530761719,0.811401367188,0.495422363281
26497763906,-0.291625976562,0.148803710938,0.808227539062,0.489379882812
26497785098,-0.302673339844,0.16357421875,0.805297851562,0.482849121094
26497807474,-0.313659667969,0.1767578125,0.802001953125,0.476501464844
26497822617,-0.323974609375,0.190002441406,0.798400878906,0.470581054688
26497844971,-0.332946777344,0.203552246094,0.794860839844,0.464599609375
26497867468,-0.341247558594,0.216796875,0.791320800781,0.458557128906
26497885379,-0.348815917969,0.229248046875,0.787963867188,0.452575683594
26497905051,-0.356262207031,0.240966796875,0.784484863281,0.446716308594
26497927497,-0.362426757812,0.252624511719,0.78125,0.44091796875
26497942569,-0.367248535156,0.263366699219,0.778503417969,0.435485839844
26497964921,-0.371948242188,0.2734375,0.775512695312,0.430603027344
26497987510,-0.376281738281,0.282958984375,0.772521972656,0.426025390625
26498002554,-0.380065917969,0.290893554688,0.770141601562,0.421630859375
26498025222,-0.384094238281,0.2978515625,0.767578125,0.417785644531
26498047538,-0.387634277344,0.304016113281,0.765441894531,0.413940429688
26498062447,-0.390930175781,0.309020996094,0.763427734375,0.410888671875
26498085051,-0.393432617188,0.314819335938,0.760986328125,0.408508300781
26498107594,-0.395874023438,0.320678710938,0.758239746094,0.40673828125
26498122522,-0.397644042969,0.326293945312,0.755798339844,0.405090332031
26498145021,-0.399169921875,0.3310546875,0.753662109375,0.403686523438
26498167461,-0.401672363281,0.335266113281,0.751342773438,0.402160644531
26498183806,-0.404235839844,0.339050292969,0.749084472656,0.400512695312
26498205079,-0.406921386719,0.341857910156,0.747497558594,0.3984375
26498227476,-0.409973144531,0.344421386719,0.745544433594,0.396789550781
26498242384,-0.412963867188,0.347534179688,0.743225097656,0.395202636719
26498264964,-0.415893554688,0.350891113281,0.741088867188,0.393310546875
26498287442,-0.419067382812,0.352355957031,0.739501953125,0.3916015625
26498302478,-0.422119140625,0.354553222656,0.737426757812,0.390258789062
26498324955,-0.425048828125,0.357055664062,0.735412597656,0.388488769531
26498347404,-0.427368164062,0.358032226562,0.734619140625,0.386657714844
26498370059,-0.429504394531,0.358825683594,0.733947753906,0.384765625
26498384981,-0.432006835938,0.359252929688,0.733337402344,0.382690429688
26498407544,-0.434448242188,0.358337402344,0.733093261719,0.381225585938
26498425289,-0.435546875,0.358215332031,0.732788085938,0.380737304688
26498444964,-0.436889648438,0.357727050781,0.732604980469,0.380004882812
26498470243,-0.438781738281,0.354614257812,0.733276367188,0.37939453125
26498485260,-0.440246582031,0.350769042969,0.734130859375,0.379699707031
26498505054,-0.441101074219,0.348510742188,0.734313964844,0.38037109375
26498527506,-0.442077636719,0.34619140625,0.734802246094,0.380432128906
26498543924,-0.444396972656,0.342651367188,0.735412597656,0.379760742188
26498566323,-0.446166992188,0.338439941406,0.736206054688,0.3798828125
26498587504,-0.44677734375,0.336608886719,0.73583984375,0.381530761719
26498603848,-0.446533203125,0.336608886719,0.735778808594,0.381958007812
26498625054,-0.447631835938,0.334167480469,0.736694335938,0.380981445312
26498647449,-0.448608398438,0.33056640625,0.73828125,0.3798828125
26498663875,-0.448059082031,0.329223632812,0.739074707031,0.380187988281
26498684982,-0.447570800781,0.328796386719,0.739624023438,0.380065917969
26498707452,-0.447326660156,0.326843261719,0.741088867188,0.379211425781
26498723815,-0.447326660156,0.324096679688,0.742431640625,0.37890625
26498744955,-0.446838378906,0.32275390625,0.743103027344,0.379272460938
26498768797,-0.446472167969,0.321838378906,0.743774414062,0.379272460938
26498783805,-0.446472167969,0.319763183594,0.744812011719,0.378967285156
26498805011,-0.445922851562,0.318603515625,0.745361328125,0.379516601562
26498822792,-0.444519042969,0.318969726562,0.745788574219,0.380065917969
26498843772,-0.443420410156,0.317810058594,0.747009277344,0.379943847656
26498864965,-0.4423828125,0.315185546875,0.748840332031,0.379577636719
26498882837,-0.441162109375,0.312927246094,0.75048828125,0.379638671875
26498905284,-0.439758300781,0.311706542969,0.751586914062,0.380065917969
26498924914,-0.438415527344,0.309936523438,0.753112792969,0.380065917969
26498947617,-0.437377929688,0.306884765625,0.755187988281,0.379638671875
26498970014,-0.435546875,0.304382324219,0.75732421875,0.379577636719
26498984918,-0.433715820312,0.302734375,0.759094238281,0.379455566406
26499002813,-0.431457519531,0.301574707031,0.761047363281,0.379028320312
26499025259,-0.429504394531,0.299377441406,0.763305664062,0.378356933594
26499046299,-0.427551269531,0.297485351562,0.765258789062,0.378173828125
26499062741,-0.424499511719,0.297912597656,0.766784667969,0.378234863281
26499085279,-0.42236328125,0.298767089844,0.767822265625,0.377746582031
26499104968,-0.422485351562,0.296508789062,0.769348144531,0.376342773438
26499122758,-0.421875,0.290832519531,0.772888183594,0.374206542969
26499145296,-0.418090820312,0.283813476562,0.778259277344,0.372680664062
26499164953,-0.413513183594,0.279052734375,0.782348632812,0.372802734375
26499182788,-0.408630371094,0.276489257812,0.78466796875,0.375244140625
26499205235,-0.403198242188,0.2744140625,0.787170410156,0.377319335938
26499225019,-0.3984375,0.269592285156,0.790771484375,0.37841796875
26499242840,-0.393005371094,0.263793945312,0.795043945312,0.379211425781
26499267295,-0.386901855469,0.257446289062,0.800109863281,0.379150390625
26499285483,-0.381225585938,0.251403808594,0.804382324219,0.379943847656
26499302801,-0.37646484375,0.245422363281,0.8076171875,0.381774902344
26499324388,-0.371704101562,0.238220214844,0.810791015625,0.384216308594
26499345795,-0.366821289062,0.232177734375,0.813842773438,0.38623046875
26499361917,-0.361633300781,0.226196289062,0.816955566406,0.388000488281
26499385783,-0.354125976562,0.216918945312,0.821411132812,0.390930175781
26499405476,-0.350280761719,0.212280273438,0.8232421875,0.393005371094
26499421918,-0.342102050781,0.200866699219,0.827575683594,0.397155761719
26499444446,-0.336791992188,0.194274902344,0.829467773438,0.40087890625
26499465636,-0.326232910156,0.183898925781,0.833923339844,0.4052734375
26499481977,-0.320251464844,0.17822265625,0.8359375,0.408447265625
26499504538,-0.310180664062,0.166442871094,0.839721679688,0.413391113281
26499525622,-0.304809570312,0.161376953125,0.840881347656,0.4169921875
26499541941,-0.294250488281,0.149536132812,0.844604492188,0.421508789062
26499564465,-0.285583496094,0.140197753906,0.847473144531,0.4248046875
26499585586,-0.277404785156,0.130554199219,0.849914550781,0.428466796875
26499602425,-0.268493652344,0.122131347656,0.851745605469,0.432922363281
26499624434,-0.259033203125,0.114562988281,0.853454589844,0.437316894531
26499645597,-0.249450683594,0.106628417969,0.855102539062,0.441711425781
26499661316,-0.239440917969,0.0990600585938,0.856506347656,0.446228027344
26499684738,-0.229797363281,0.0911254882812,0.857849121094,0.450500488281
26499705601,-0.219970703125,0.0830078125,0.859130859375,0.454406738281
26499728107,-0.209594726562,0.0755004882812,0.8603515625,0.458435058594
26499750508,-0.199645996094,0.067138671875,0.861022949219,0.462768554688
26499765611,-0.189453125,0.0586547851562,0.861450195312,0.467468261719
26499781272,-0.179077148438,0.05078125,0.861694335938,0.471984863281
26499804936,-0.168823242188,0.0439453125,0.861755371094,0.476318359375
26499826951,-0.158813476562,0.0374755859375,0.861511230469,0.480651855469
26499841264,-0.1494140625,0.0296020507812,0.861206054688,0.484802246094
26499864429,-0.14013671875,0.0208129882812,0.860900878906,0.488586425781
26499887000,-0.130615234375,0.0127563476562,0.860717773438,0.491760253906
26499901294,-0.121215820312,0.0064697265625,0.860473632812,0.494750976562
26499924445,-0.112121582031,0.00152587890625,0.860107421875,0.497497558594
26499946952,-0.103454589844,-0.00390625,0.859680175781,0.500122070312
26499968020,-0.0949096679688,-0.0103149414062,0.859252929688,0.502502441406
26499984472,-0.0863647460938,-0.0162353515625,0.858825683594,0.504638671875
26500006939,-0.07763671875,-0.0205078125,0.8583984375,0.506591796875
26500029503,-0.0697631835938,-0.0244140625,0.857788085938,0.508544921875
26500044435,-0.0626831054688,-0.0292358398438,0.856994628906,0.510559082031
26500066918,-0.055908203125,-0.034423828125,0.856079101562,0.512573242188
26500088075,-0.0498046875,-0.0393676757812,0.855163574219,0.514404296875
26500104493,-0.0440673828125,-0.0439453125,0.854248046875,0.516052246094
26500126924,-0.0383911132812,-0.0485229492188,0.853515625,0.517333984375
26500147796,-0.03271484375,-0.0528564453125,0.852783203125,0.518493652344
26500164404,-0.027587890625,-0.0560302734375,0.85205078125,0.519653320312
26500186995,-0.0228881835938,-0.0578002929688,0.851257324219,0.520935058594
26500208122,-0.0189208984375,-0.0592041015625,0.850524902344,0.522155761719
26500224451,-0.015625,-0.0615844726562,0.849853515625,0.523132324219
26500246945,-0.0128784179688,-0.0646362304688,0.84912109375,0.523986816406
26500268081,-0.0101928710938,-0.0675659179688,0.848449707031,0.524841308594
26500284447,-0.00714111328125,-0.0697631835938,0.847717285156,0.525756835938
26500306940,-0.00396728515625,-0.0714721679688,0.847106933594,0.526550292969
26500328071,-0.00128173828125,-0.0728149414062,0.846496582031,0.527282714844
26500344474,0.0010986328125,-0.0739135742188,0.845947265625,0.528076171875
26500366964,0.0030517578125,-0.0751953125,0.845336914062,0.528869628906
26500388209,0.004638671875,-0.0767822265625,0.8447265625,0.529541015625
26500404428,0.006103515625,-0.078369140625,0.84423828125,0.530151367188
26500427011,0.00787353515625,-0.079345703125,0.843811035156,0.530639648438
26500455587,0.0098876953125,-0.0799560546875,0.843444824219,0.531127929688
26500464423,0.0115356445312,-0.0809936523438,0.843078613281,0.531433105469
26500486993,0.0133056640625,-0.0820922851562,0.8427734375,0.531677246094
26500508241,0.0153198242188,-0.08251953125,0.842590332031,0.531921386719
26500524448,0.01708984375,-0.0828247070312,0.842407226562,0.532104492188
26500554439,0.0184326171875,-0.0833129882812,0.842102050781,0.532409667969
26500568121,0.0194091796875,-0.0841674804688,0.841857910156,0.532653808594
26500584919,0.0198974609375,-0.08544921875,0.841491699219,0.533020019531
26500606926,0.0203247070312,-0.0867919921875,0.841125488281,0.533325195312
26500628080,0.0208740234375,-0.0878295898438,0.841003417969,0.533386230469
26500644465,0.0213623046875,-0.0885009765625,0.8408203125,0.533569335938
26500666923,0.0217895507812,-0.089111328125,0.840576171875,0.533813476562
26500688051,0.0222778320312,-0.0899047851562,0.84033203125,0.534057617188
26500704427,0.0227661132812,-0.0907592773438,0.840148925781,0.5341796875
26500733021,0.0232543945312,-0.0914306640625,0.839904785156,0.534423828125
26500748125,0.0238647460938,-0.0919189453125,0.839721679688,0.534606933594
26500764455,0.0245971679688,-0.0924072265625,0.839477539062,0.534851074219
26500786948,0.0250244140625,-0.0928955078125,0.839294433594,0.535034179688
26500809466,0.0250244140625,-0.0934448242188,0.839111328125,0.53515625
26500824422,0.0252075195312,-0.0940551757812,0.838928222656,0.535400390625
26500846913,0.0254516601562,-0.0946044921875,0.838745117188,0.535583496094
26500869421,0.0254516601562,-0.095458984375,0.838623046875,0.535583496094
26500884426,0.025390625,-0.0960693359375,0.838562011719,0.535583496094
26500906948,0.0255126953125,-0.0963134765625,0.838562011719,0.535583496094
26500929420,0.0254516601562,-0.0966186523438,0.838439941406,0.535705566406
26500943774,0.0257568359375,-0.0966796875,0.83837890625,0.535766601562
26500966917,0.0260620117188,-0.0967407226562,0.838195800781,0.535949707031
26500989914,0.0259399414062,-0.096923828125,0.838012695312,0.536254882812
26501010576,0.0256958007812,-0.0972900390625,0.837829589844,0.536437988281
26501026904,0.0253295898438,-0.09814453125,0.837646484375,0.53662109375
26501049440,0.0250854492188,-0.0989990234375,0.837463378906,0.536804199219
26501063860,0.0249633789062,-0.0994873046875,0.837341308594,0.536865234375
26501086918,0.0250854492188,-0.0999755859375,0.837158203125,0.537048339844
26501109394,0.0253295898438,-0.100341796875,0.836975097656,0.537231445312
26501123791,0.025390625,-0.100708007812,0.8369140625,0.537292480469
26501146943,0.0254516601562,-0.101013183594,0.836791992188,0.537475585938
26501169419,0.0255126953125,-0.100769042969,0.836486816406,0.537963867188
26501183754,0.0255126953125,-0.100891113281,0.836181640625,0.538391113281
26501206918,0.0250244140625,-0.100891113281,0.836059570312,0.53857421875
26501229428,0.0247192382812,-0.101135253906,0.8359375,0.538757324219
26501243749,0.0244140625,-0.101257324219,0.835815429688,0.538940429688
26501266922,0.0242919921875,-0.101135253906,0.835815429688,0.539001464844
26501289449,0.0244140625,-0.100891113281,0.835815429688,0.5390625
26501311901,0.0244140625,-0.100952148438,0.835815429688,0.5390625
26501326924,0.0245971679688,-0.10107421875,0.835754394531,0.5390625
26501349440,0.0248413085938,-0.101257324219,0.835693359375,0.539123535156
26501370572,0.025146484375,-0.101257324219,0.835571289062,0.539306640625
26501386907,0.025146484375,-0.101379394531,0.83544921875,0.539428710938
26501409447,0.0250854492188,-0.101684570312,0.835266113281,0.539672851562
26501430572,0.0250854492188,-0.101745605469,0.835266113281,0.539672851562
26501446973,0.0250854492188,-0.1015625,0.835327148438,0.539672851562
26501469401,0.0250854492188,-0.1015625,0.835327148438,0.539672851562
26501491914,0.0250854492188,-0.1015625,0.835327148438,0.539672851562
26501506970,0.025390625,-0.101379394531,0.835205078125,0.539855957031
26501529444,0.0256958007812,-0.101135253906,0.835083007812,0.5400390625
26501550574,0.025634765625,-0.101318359375,0.8349609375,0.540222167969
26501566934,0.0255737304688,-0.101501464844,0.834838867188,0.540405273438
26501589918,0.025634765625,-0.101379394531,0.834777832031,0.540466308594
26501610622,0.026123046875,-0.100830078125,0.834838867188,0.54052734375
26501626922,0.0264282226562,-0.100280761719,0.834838867188,0.540588378906
26501649401,0.0267333984375,-0.0997924804688,0.834838867188,0.540710449219
26501670626,0.02685546875,-0.0994262695312,0.834777832031,0.540771484375
26501686979,0.027099609375,-0.0992431640625,0.834777832031,0.540832519531
26501709416,0.027099609375,-0.0992431640625,0.834777832031,0.540893554688
26501731941,0.027099609375,-0.0992431640625,0.834716796875,0.540893554688
26501746931,0.0270385742188,-0.0994262695312,0.834655761719,0.540954589844
26501769389,0.02685546875,-0.0996704101562,0.834594726562,0.541015625
26501791908,0.0267333984375,-0.10009765625,0.834533691406,0.541076660156
26501806896,0.0267333984375,-0.100158691406,0.834533691406,0.541076660156
26501829394,0.0266723632812,-0.100158691406,0.834594726562,0.540954589844
26501851915,0.0269165039062,-0.0999145507812,0.834594726562,0.540954589844
26501866936,0.0272827148438,-0.0997924804688,0.834594726562,0.540954589844
26501889196,0.0277709960938,-0.0995483398438,0.834533691406,0.541076660156
26501911947,0.0283203125,-0.0993041992188,0.834533691406,0.541137695312
26501926265,0.02880859375,-0.0990600585938,0.83447265625,0.541198730469
26501949906,0.0292358398438,-0.098876953125,0.83447265625,0.541198730469
26501972015,0.0296630859375,-0.0988159179688,0.83447265625,0.541259765625
26501994420,0.0300903320312,-0.0987548828125,0.834350585938,0.541381835938
26502009427,0.0300903320312,-0.0986328125,0.834350585938,0.541381835938
26502031926,0.0300903320312,-0.0987548828125,0.834350585938,0.541442871094
26502046274,0.0296630859375,-0.0995483398438,0.834167480469,0.541564941406
26502069427,0.0288696289062,-0.100708007812,0.833984375,0.541687011719
26502091720,0.028076171875,-0.101867675781,0.833923339844,0.541625976562
26502106210,0.0274047851562,-0.102783203125,0.833984375,0.541381835938
26502129423,0.0267944335938,-0.103515625,0.834045410156,0.541137695312
26502151913,0.0261840820312,-0.103881835938,0.834106445312,0.541076660156
26502166246,0.0250244140625,-0.10498046875,0.833862304688,0.541198730469
26502189375,0.0223388671875,-0.106506347656,0.833129882812,0.542175292969
26502211966,0.0193481445312,-0.108337402344,0.832153320312,0.54345703125
26502233117,0.0165405273438,-0.109069824219,0.831176757812,0.544921875
26502249410,0.0135498046875,-0.109375,0.830078125,0.546569824219
26502271931,0.00970458984375,-0.109252929688,0.828857421875,0.548522949219
26502292977,0.0048828125,-0.108459472656,0.827514648438,0.550720214844
26502309428,-0.001220703125,-0.106689453125,0.826232910156,0.553100585938
26502331921,-0.0081787109375,-0.103515625,0.82470703125,0.555908203125
26502353097,-0.0155029296875,-0.0989379882812,0.823303222656,0.558654785156
26502369205,-0.0223999023438,-0.0940551757812,0.822570800781,0.560363769531
26502391908,-0.0303955078125,-0.090576171875,0.821655273438,0.561828613281
26502412955,-0.0404052734375,-0.0875854492188,0.820983886719,0.562744140625
26502429427,-0.050537109375,-0.0829467773438,0.820861816406,0.562683105469
26502451909,-0.0603637695312,-0.0764770507812,0.820861816406,0.562683105469
26502473152,-0.0701904296875,-0.068603515625,0.82080078125,0.562683105469
26502496920,-0.0802001953125,-0.0598754882812,0.821105957031,0.561889648438
26502511919,-0.0911865234375,-0.05078125,0.821350097656,0.560729980469
26502533068,-0.103759765625,-0.0426635742188,0.8212890625,0.559265136719
26502548741,-0.117553710938,-0.0354614257812,0.821166992188,0.557250976562
26502578079,-0.131469726562,-0.0286254882812,0.821350097656,0.554260253906
26502601133,-0.145629882812,-0.0220336914062,0.821533203125,0.550720214844
26502602717,-0.159240722656,-0.0133666992188,0.821655273438,0.547058105469
26502616223,-0.171691894531,-0.0023193359375,0.821838378906,0.543151855469
26502637468,-0.184326171875,0.0084228515625,0.821960449219,0.538757324219
26502659964,-0.197021484375,0.0189819335938,0.822143554688,0.53369140625
26502676219,-0.210205078125,0.0294799804688,0.822265625,0.527954101562
26502697438,-0.223876953125,0.0400390625,0.822204589844,0.521667480469
26502728019,-0.236999511719,0.05078125,0.822021484375,0.515197753906
26502737770,-0.25,0.0617065429688,0.821594238281,0.508544921875
26502764903,-0.263305664062,0.0725708007812,0.82080078125,0.501647949219
26502779870,-0.276306152344,0.0836181640625,0.819885253906,0.494384765625
26502796252,-0.288940429688,0.0946655273438,0.818664550781,0.487121582031
26502817367,-0.301696777344,0.105529785156,0.817199707031,0.479553222656
26502839958,-0.31396484375,0.1162109375,0.815307617188,0.472351074219
26502857640,-0.325988769531,0.126770019531,0.813171386719,0.465148925781
26502878751,-0.337890625,0.136779785156,0.810791015625,0.457885742188
26502899848,-0.349670410156,0.146667480469,0.808227539062,0.450500488281
26502917696,-0.361083984375,0.156066894531,0.8056640625,0.442810058594
26502937457,-0.371948242188,0.165893554688,0.802978515625,0.43505859375
26502959970,-0.382568359375,0.17626953125,0.799926757812,0.427368164062
26502974844,-0.393005371094,0.186462402344,0.796691894531,0.419494628906
26503013698,-0.403381347656,0.195861816406,0.793334960938,0.41162109375
26503019924,-0.413208007812,0.205139160156,0.789794921875,0.404235839844
26503034900,-0.422790527344,0.21337890625,0.786437988281,0.396484375
26503057367,-0.430969238281,0.221923828125,0.783264160156,0.38916015625
26503083155,-0.438232421875,0.22998046875,0.7802734375,0.38232421875
26503102347,-0.444702148438,0.236572265625,0.77783203125,0.375671386719
26503117375,-0.450012207031,0.242492675781,0.776062011719,0.369262695312
26503140079,-0.454223632812,0.248352050781,0.774108886719,0.3642578125
26503157736,-0.458190917969,0.253356933594,0.772216796875,0.35986328125
26503180234,-0.461975097656,0.257202148438,0.770751953125,0.35546875
26503208752,-0.465270996094,0.260498046875,0.769836425781,0.350646972656
26503214924,-0.468811035156,0.263061523438,0.768981933594,0.345825195312
26503237400,-0.472412109375,0.26513671875,0.768188476562,0.341125488281
26503262682,-0.475219726562,0.267761230469,0.767456054688,0.336730957031
26503276237,-0.477722167969,0.270446777344,0.7666015625,0.3330078125
26503297340,-0.480224609375,0.272888183594,0.765808105469,0.329284667969
26503336929,-0.482849121094,0.274475097656,0.765319824219,0.325134277344
26503339217,-0.485290527344,0.275756835938,0.764953613281,0.321350097656
26503357461,-0.4873046875,0.276977539062,0.764526367188,0.318176269531
26503379869,-0.489196777344,0.277404785156,0.764465332031,0.315002441406
26503396225,-0.490783691406,0.277465820312,0.764587402344,0.312194824219
26503417536,-0.492004394531,0.278076171875,0.764526367188,0.309814453125
26503439983,-0.493347167969,0.278198242188,0.764465332031,0.307739257812
26503457611,-0.495544433594,0.276550292969,0.764404296875,0.305908203125
26503480181,-0.496520996094,0.275512695312,0.764770507812,0.304443359375
26503495240,-0.496948242188,0.274780273438,0.76513671875,0.303344726562
26503516181,-0.498962402344,0.273315429688,0.764953613281,0.301940917969
26503538698,-0.500061035156,0.271545410156,0.765075683594,0.30126953125
26503562701,-0.49951171875,0.270568847656,0.766174316406,0.300415039062
26503585833,-0.499816894531,0.269897460938,0.766296386719,0.300170898438
26503614371,-0.501159667969,0.268615722656,0.765991210938,0.2998046875
26503616790,-0.501098632812,0.267822265625,0.766418457031,0.299621582031
26503637620,-0.500244140625,0.26708984375,0.76708984375,0.299926757812
26503660207,-0.500366210938,0.265686035156,0.767211914062,0.300537109375
26503688725,-0.500610351562,0.263854980469,0.767517089844,0.301147460938
26503697625,-0.499572753906,0.262756347656,0.768310546875,0.3017578125
26503717289,-0.498596191406,0.261413574219,0.769226074219,0.302185058594
26503735201,-0.498962402344,0.259338378906,0.769470214844,0.302795410156
26503765162,-0.499145507812,0.257629394531,0.769592285156,0.303588867188
26503784865,-0.49853515625,0.257080078125,0.77001953125,0.303955078125
26503795159,-0.498718261719,0.256164550781,0.770141601562,0.304138183594
26503817729,-0.499328613281,0.254516601562,0.770202636719,0.304382324219
26503840157,-0.499389648438,0.253540039062,0.770324707031,0.3046875
26503862712,-0.498596191406,0.253112792969,0.770935058594,0.304870605469
26503885217,-0.498291015625,0.252014160156,0.771423339844,0.304992675781
26503897318,-0.498229980469,0.2509765625,0.771789550781,0.305114746094
26503915626,-0.497253417969,0.250793457031,0.772338867188,0.305419921875
26503937689,-0.496032714844,0.250915527344,0.77294921875,0.305786132812
26503967686,-0.49609375,0.249450683594,0.773315429688,0.305908203125
26503975160,-0.496215820312,0.247863769531,0.773742675781,0.305908203125
26503997624,-0.495727539062,0.247192382812,0.774230957031,0.306091308594
26504017313,-0.495544433594,0.2470703125,0.774230957031,0.306457519531
26504041236,-0.495849609375,0.246948242188,0.773986816406,0.306640625
26504065226,-0.495910644531,0.247009277344,0.773864746094,0.306884765625
26504077367,-0.496032714844,0.247436523438,0.773498535156,0.30712890625
26504095192,-0.496398925781,0.24755859375,0.773193359375,0.307189941406
26504118182,-0.496704101562,0.2470703125,0.773132324219,0.307250976562
26504137368,-0.496765136719,0.246459960938,0.773376464844,0.307067871094
26504155167,-0.496398925781,0.245971679688,0.773803710938,0.307006835938
26504177594,-0.495971679688,0.245239257812,0.774291992188,0.307006835938
26504197946,-0.495483398438,0.244812011719,0.774780273438,0.307006835938
26504214390,-0.495056152344,0.244018554688,0.775329589844,0.306884765625
26504236941,-0.494812011719,0.243041992188,0.775939941406,0.306579589844
26504265587,-0.494812011719,0.242126464844,0.776184082031,0.306701660156
26504274342,-0.494873046875,0.241394042969,0.776306152344,0.306823730469
26504296915,-0.494995117188,0.240234375,0.776611328125,0.306823730469
26504318107,-0.494750976562,0.238891601562,0.777160644531,0.306762695312
26504341928,-0.493957519531,0.237609863281,0.778076171875,0.306640625
26504364376,-0.4931640625,0.23583984375,0.779113769531,0.306640625
26504378051,-0.492248535156,0.234191894531,0.780212402344,0.306640625
26504393726,-0.490905761719,0.232177734375,0.781982421875,0.305908203125
26504416942,-0.488464355469,0.231140136719,0.783935546875,0.305480957031
26504439402,-0.486694335938,0.228088378906,0.786193847656,0.304870605469
26504469402,-0.485229492188,0.224914550781,0.788024902344,0.304809570312
26504476920,-0.483093261719,0.223022460938,0.789978027344,0.304565429688
26504497909,-0.480163574219,0.221984863281,0.792236328125,0.30419921875
26504521908,-0.476867675781,0.2197265625,0.794982910156,0.303833007812
26504536931,-0.4736328125,0.215637207031,0.798156738281,0.303466796875
26504565449,-0.470092773438,0.210266113281,0.801513671875,0.303833007812
26504573672,-0.465942382812,0.204833984375,0.804931640625,0.304870605469
26504596937,-0.460754394531,0.200134277344,0.808227539062,0.307250976562
26504619400,-0.455261230469,0.195495605469,0.811279296875,0.310302734375
26504641923,-0.449951171875,0.190490722656,0.814147949219,0.313598632812
26504656879,-0.444885253906,0.184509277344,0.816955566406,0.317077636719
26504679335,-0.439697265625,0.178283691406,0.81982421875,0.320495605469
26504693780,-0.433959960938,0.171936035156,0.82275390625,0.324157714844
26504716968,-0.427917480469,0.166076660156,0.825561523438,0.328247070312
26504740087,-0.421447753906,0.161010742188,0.828063964844,0.332763671875
26504767926,-0.414855957031,0.155944824219,0.830322265625,0.337707519531
26504776891,-0.408020019531,0.150146484375,0.832824707031,0.342590332031
26504799370,-0.400329589844,0.144165039062,0.83544921875,0.347778320312
26504820596,-0.391845703125,0.137451171875,0.83837890625,0.353088378906
26504836879,-0.383239746094,0.130065917969,0.841064453125,0.358764648438
26504859355,-0.374450683594,0.122497558594,0.843444824219,0.365112304688
26504880605,-0.365234375,0.115234375,0.845581054688,0.371826171875
26504896934,-0.355285644531,0.108154296875,0.847473144531,0.379150390625
26504919399,-0.344421386719,0.101257324219,0.849426269531,0.386779785156
26504940562,-0.332946777344,0.0936889648438,0.851440429688,0.394165039062
26504958346,-0.321228027344,0.0846557617188,0.853332519531,0.401794433594
26504979348,-0.309326171875,0.0750732421875,0.854675292969,0.410095214844
26505000542,-0.296997070312,0.0664672851562,0.855407714844,0.419006347656
26505016908,-0.284240722656,0.0592041015625,0.85595703125,0.427795410156
26505039099,-0.271545410156,0.0515747070312,0.856384277344,0.436096191406
26505060431,-0.259399414062,0.042236328125,0.856628417969,0.443969726562
26505077324,-0.24755859375,0.0322875976562,0.856506347656,0.45166015625
26505099396,-0.235656738281,0.0233764648438,0.856018066406,0.459350585938
26505120544,-0.223022460938,0.016357421875,0.855651855469,0.466613769531
26505136926,-0.210632324219,0.00860595703125,0.855163574219,0.473449707031
26505159415,-0.198974609375,-0.00042724609375,0.854248046875,0.480224609375
26505180646,-0.187438964844,-0.009033203125,0.853210449219,0.486572265625
26505196922,-0.175842285156,-0.0156860351562,0.85205078125,0.492736816406
26505219351,-0.164794921875,-0.0219116210938,0.8505859375,0.498779296875
26505240365,-0.155578613281,-0.0302124023438,0.848876953125,0.504211425781
26505256917,-0.147033691406,-0.0399780273438,0.846923828125,0.50927734375
26505279344,-0.138427734375,-0.0489501953125,0.84521484375,0.513854980469
26505300498,-0.129943847656,-0.055908203125,0.843627929688,0.517822265625
26505316206,-0.121887207031,-0.0621337890625,0.842224121094,0.521423339844
26505339316,-0.114318847656,-0.0685424804688,0.840637207031,0.524841308594
26505360407,-0.107238769531,-0.0740356445312,0.83935546875,0.527709960938
26505376226,-0.100524902344,-0.078369140625,0.838134765625,0.5302734375
26505399365,-0.0946655273438,-0.0827026367188,0.836853027344,0.53271484375
26505428141,-0.08935546875,-0.0872802734375,0.83544921875,0.53515625
26505436223,-0.084228515625,-0.0912475585938,0.834167480469,0.537231445312
26505459375,-0.0795288085938,-0.0949096679688,0.833068847656,0.5390625
26505480530,-0.0755004882812,-0.09814453125,0.831970214844,0.540710449219
26505496259,-0.0718383789062,-0.101013183594,0.830932617188,0.542297363281
26505519423,-0.0685424804688,-0.103942871094,0.829833984375,0.543884277344
26505541942,-0.06591796875,-0.107238769531,0.828735351562,0.545288085938
26505556217,-0.0633544921875,-0.110046386719,0.827880859375,0.546264648438
26505579375,-0.0604858398438,-0.1123046875,0.827270507812,0.547058105469
26505601915,-0.0576171875,-0.114318847656,0.82666015625,0.547912597656
26505616219,-0.054443359375,-0.115905761719,0.825988769531,0.548828125
26505639324,-0.0511474609375,-0.117309570312,0.825561523438,0.549560546875
26505661906,-0.0480346679688,-0.119018554688,0.825073242188,0.550170898438
26505683050,-0.0449829101562,-0.120544433594,0.824645996094,0.55078125
26505706904,-0.0421752929688,-0.121948242188,0.82421875,0.55126953125
26505721883,-0.0399780273438,-0.123779296875,0.823791503906,0.551696777344
26505743109,-0.0377807617188,-0.12548828125,0.823364257812,0.552124023438
26505759345,-0.0355834960938,-0.126953125,0.822998046875,0.552490234375
26505781945,-0.0333251953125,-0.128173828125,0.822570800781,0.552978515625
26505796188,-0.0309448242188,-0.128845214844,0.822265625,0.553344726562
26505819381,-0.0283203125,-0.129516601562,0.821838378906,0.554016113281
26505841806,-0.0255126953125,-0.130493164062,0.821228027344,0.554809570312
26505863194,-0.0223999023438,-0.131958007812,0.820617675781,0.555541992188
26505879398,-0.0186767578125,-0.133483886719,0.819946289062,0.556335449219
26505901924,-0.0145874023438,-0.134826660156,0.819091796875,0.557312011719
26505922872,-0.0105590820312,-0.135986328125,0.818237304688,0.558410644531
26505939325,-0.00628662109375,-0.137756347656,0.817077636719,0.559692382812
26505961965,-0.003173828125,-0.138549804688,0.815490722656,0.561889648438
26505984321,-0.002197265625,-0.139770507812,0.814575195312,0.562927246094
26505999349,-0.00286865234375,-0.141296386719,0.814086914062,0.563232421875
26506021935,-0.003662109375,-0.141967773438,0.814147949219,0.56298828125
26506043021,-0.0037841796875,-0.141906738281,0.814575195312,0.562377929688
26506059779,-0.0028076171875,-0.141967773438,0.815002441406,0.561767578125
26506081919,-0.00067138671875,-0.142333984375,0.815185546875,0.561401367188
26506103223,0.00189208984375,-0.142700195312,0.815185546875,0.561279296875
26506119324,0.0045166015625,-0.142517089844,0.815307617188,0.561096191406
26506141921,0.00665283203125,-0.141662597656,0.815612792969,0.560913085938
26506162988,0.00836181640625,-0.140380859375,0.815856933594,0.560791015625
26506179064,0.00958251953125,-0.138549804688,0.816162109375,0.560852050781
26506201818,0.0103759765625,-0.136840820312,0.816345214844,0.560974121094
26506223008,0.01123046875,-0.135620117188,0.816467285156,0.56103515625
26506239323,0.012451171875,-0.13525390625,0.81640625,0.561157226562
26506261923,0.013671875,-0.135559082031,0.816345214844,0.561157226562
26506283083,0.0149536132812,-0.135559082031,0.816467285156,0.560974121094
26506299300,0.0162353515625,-0.135009765625,0.816711425781,0.560729980469
26506322006,0.017333984375,-0.134460449219,0.816833496094,0.560607910156
26506342977,0.0181274414062,-0.134094238281,0.816833496094,0.560668945312
26506359304,0.0186157226562,-0.134216308594,0.816589355469,0.560974121094
26506381924,0.0186767578125,-0.134399414062,0.816345214844,0.561340332031
26506402946,0.0185546875,-0.134399414062,0.816223144531,0.561462402344
26506419429,0.018798828125,-0.133911132812,0.816223144531,0.561645507812
26506441829,0.019287109375,-0.132995605469,0.816223144531,0.561828613281
26506464386,0.0198974609375,-0.131958007812,0.816223144531,0.56201171875
26506479343,0.0204467773438,-0.130981445312,0.816223144531,0.562194824219
26506501827,0.0206909179688,-0.13037109375,0.816284179688,0.562316894531
26506524319,0.0208740234375,-0.1298828125,0.816223144531,0.562438964844
26506539833,0.0211181640625,-0.129516601562,0.816162109375,0.562622070312
26506561922,0.0211181640625,-0.129455566406,0.816040039062,0.562866210938
26506584327,0.0210571289062,-0.129577636719,0.815856933594,0.563049316406
26506599322,0.0208740234375,-0.129577636719,0.815795898438,0.563171386719
26506621935,0.0208740234375,-0.129211425781,0.815734863281,0.563354492188
26506644274,0.0210571289062,-0.128784179688,0.815795898438,0.563415527344
26506658646,0.021240234375,-0.128479003906,0.815673828125,0.563598632812
26506681801,0.021240234375,-0.128356933594,0.815551757812,0.563781738281
26506704349,0.021240234375,-0.12841796875,0.8154296875,0.56396484375
26506718671,0.0213012695312,-0.128601074219,0.815246582031,0.564147949219
26506741823,0.0213012695312,-0.128662109375,0.815246582031,0.564147949219
26506764351,0.021484375,-0.128479003906,0.815368652344,0.564025878906
26506778670,0.0216674804688,-0.128051757812,0.815612792969,0.563781738281
26506801828,0.0216064453125,-0.127563476562,0.815734863281,0.563659667969
26506824391,0.021240234375,-0.127685546875,0.815795898438,0.563598632812
26506838714,0.02099609375,-0.127990722656,0.815551757812,0.563842773438
26506861910,0.0199584960938,-0.128112792969,0.8154296875,0.564086914062
26506884317,0.018310546875,-0.128356933594,0.815307617188,0.564270019531
26506898681,0.0157470703125,-0.12890625,0.815246582031,0.564270019531
26506921924,0.012939453125,-0.129821777344,0.815185546875,0.564270019531
26506944350,0.009521484375,-0.131164550781,0.815124511719,0.564025878906
26506965473,0.00555419921875,-0.132934570312,0.815063476562,0.563842773438
26506981758,0.0009765625,-0.134399414062,0.815063476562,0.563537597656
26507004347,-0.00384521484375,-0.134094238281,0.815063476562,0.563537597656
26507025549,-0.00836181640625,-0.132141113281,0.81494140625,0.564208984375
26507041825,-0.0130615234375,-0.130004882812,0.814880371094,0.564636230469
26507064334,-0.0182495117188,-0.127685546875,0.815124511719,0.564697265625
26507092946,-0.0243530273438,-0.125854492188,0.815124511719,0.564880371094
26507101811,-0.03076171875,-0.123901367188,0.81494140625,0.565185546875
26507124393,-0.0377807617188,-0.121887207031,0.814880371094,0.565368652344
26507145420,-0.044921875,-0.118896484375,0.815002441406,0.565246582031
26507161125,-0.0523681640625,-0.115112304688,0.815124511719,0.565246582031
26507184327,-0.0602416992188,-0.111022949219,0.815185546875,0.565185546875
26507205516,-0.0693359375,-0.106262207031,0.815490722656,0.564636230469
26507221624,-0.0789794921875,-0.101318359375,0.815795898438,0.563842773438
26507244293,-0.0885620117188,-0.095458984375,0.815979003906,0.563171386719
26507265529,-0.0983276367188,-0.08935546875,0.815979003906,0.562561035156
26507281114,-0.109008789062,-0.0839233398438,0.816467285156,0.560729980469
26507304372,-0.11962890625,-0.0787353515625,0.8173828125,0.557922363281
26507325367,-0.130004882812,-0.0731811523438,0.817749023438,0.555847167969
26507341110,-0.14013671875,-0.0654296875,0.817565917969,0.554565429688
26507371920,-0.151184082031,-0.0571899414062,0.817626953125,0.552551269531
26507386830,-0.1630859375,-0.050048828125,0.818237304688,0.548889160156
26507401140,-0.175354003906,-0.0438842773438,0.818420410156,0.545349121094
26507424348,-0.188232421875,-0.0364990234375,0.818115234375,0.542114257812
26507446944,-0.201293945312,-0.028564453125,0.817810058594,0.538330078125
26507467924,-0.213073730469,-0.019775390625,0.817749023438,0.534240722656
26507484285,-0.224304199219,-0.00970458984375,0.8173828125,0.530517578125
26507489680,-0.2353515625,0.00140380859375,0.816711425781,0.52685546875
26507512227,-0.247009277344,0.01220703125,0.815979003906,0.522399902344
26507528662,-0.25927734375,0.0221557617188,0.81494140625,0.517761230469
26507549851,-0.271423339844,0.0321655273438,0.81396484375,0.512512207031
26507572332,-0.283813476562,0.0424194335938,0.812683105469,0.507019042969
26507588675,-0.296081542969,0.0537719726562,0.811279296875,0.501220703125
26507609730,-0.307739257812,0.065673828125,0.809692382812,0.495300292969
26507632226,-0.3193359375,0.0779418945312,0.807678222656,0.489440917969
26507648712,-0.332214355469,0.0904541015625,0.805236816406,0.482666015625
26507669827,-0.345764160156,0.102478027344,0.802490234375,0.475280761719
26507692335,-0.358581542969,0.115173339844,0.799621582031,0.467651367188
26507708657,-0.371520996094,0.128234863281,0.796264648438,0.459777832031
26507729815,-0.384765625,0.140014648438,0.792602539062,0.451721191406
26507760503,-0.397521972656,0.151062011719,0.789001464844,0.443420410156
26507768647,-0.41015625,0.16162109375,0.784790039062,0.435607910156
26507789875,-0.422668457031,0.171691894531,0.780090332031,0.428100585938
26507812341,-0.434448242188,0.180725097656,0.775390625,0.421081542969
26507828599,-0.444091796875,0.190002441406,0.77099609375,0.414978027344
26507849675,-0.4521484375,0.199035644531,0.76708984375,0.409240722656
26507875124,-0.459411621094,0.206420898438,0.763793945312,0.403564453125
26507888678,-0.465576171875,0.212524414062,0.76123046875,0.398193359375
26507909706,-0.470153808594,0.218994140625,0.759033203125,0.393493652344
26507932309,-0.474914550781,0.224975585938,0.756713867188,0.388793945312
26507948678,-0.479431152344,0.230895996094,0.754455566406,0.384033203125
26507969805,-0.484191894531,0.23681640625,0.752014160156,0.379333496094
26507992280,-0.489318847656,0.242797851562,0.749389648438,0.374206542969
26508008643,-0.493896484375,0.247741699219,0.747314453125,0.368957519531
26508029801,-0.497863769531,0.252014160156,0.74560546875,0.364196777344
26508052341,-0.501892089844,0.256164550781,0.74365234375,0.359680175781
26508068644,-0.505187988281,0.260437011719,0.742065429688,0.355346679688
26508089850,-0.507385253906,0.264709472656,0.741027832031,0.351196289062
26508112295,-0.509460449219,0.268493652344,0.740173339844,0.346984863281
26508128615,-0.511779785156,0.271240234375,0.739379882812,0.343200683594
26508149850,-0.513549804688,0.273559570312,0.738586425781,0.340393066406
26508172225,-0.514709472656,0.275512695312,0.738159179688,0.338012695312
26508188653,-0.516662597656,0.276184082031,0.737670898438,0.335571289062
26508209824,-0.5185546875,0.276062011719,0.7373046875,0.333435058594
26508232261,-0.519409179688,0.276550292969,0.737487792969,0.331237792969
26508248672,-0.520263671875,0.277099609375,0.737915039062,0.32861328125
26508269829,-0.521423339844,0.276794433594,0.73828125,0.326110839844
26508287611,-0.522216796875,0.276672363281,0.738708496094,0.323974609375
26508308648,-0.521911621094,0.277404785156,0.739318847656,0.322509765625
26508329655,-0.522583007812,0.276916503906,0.739685058594,0.321044921875
26508348247,-0.524230957031,0.275939941406,0.739501953125,0.319641113281
26508368675,-0.525756835938,0.275024414062,0.739074707031,0.31884765625
26508389803,-0.526550292969,0.275634765625,0.738403320312,0.318481445312
26508408116,-0.528015136719,0.276123046875,0.737548828125,0.317687988281
26508430088,-0.529479980469,0.275695800781,0.737121582031,0.316650390625
26508449823,-0.530090332031,0.275268554688,0.737060546875,0.316162109375
26508467638,-0.530212402344,0.274780273438,0.737243652344,0.31591796875
26508490080,-0.530456542969,0.273559570312,0.737426757812,0.316040039062
26508509789,-0.530212402344,0.273010253906,0.737548828125,0.316711425781
26508527602,-0.529418945312,0.273010253906,0.737731933594,0.317565917969
26508550147,-0.529479980469,0.271606445312,0.737915039062,0.318359375
26508569842,-0.5302734375,0.270080566406,0.737670898438,0.31884765625
26508587623,-0.530883789062,0.269165039062,0.737243652344,0.319641113281
26508610118,-0.530639648438,0.268920898438,0.737243652344,0.320129394531
26508629871,-0.530395507812,0.268188476562,0.737670898438,0.320190429688
26508647621,-0.530639648438,0.267456054688,0.737854003906,0.320068359375
26508670063,-0.530517578125,0.266906738281,0.738403320312,0.319396972656
26508689822,-0.529602050781,0.265808105469,0.739868164062,0.318481445312
26508707616,-0.529479980469,0.263366699219,0.741149902344,0.317687988281
26508730088,-0.529113769531,0.261535644531,0.742065429688,0.317749023438
26508749836,-0.528259277344,0.261047363281,0.742553710938,0.318420410156
26508767661,-0.527526855469,0.260437011719,0.742858886719,0.3193359375
26508790074,-0.527404785156,0.259216308594,0.7431640625,0.319885253906
26508809915,-0.527893066406,0.2578125,0.7431640625,0.320190429688
26508829060,-0.527770996094,0.2578125,0.742919921875,0.320983886719
26508857591,-0.527526855469,0.257507324219,0.742980957031,0.321350097656
26508869700,-0.52783203125,0.25634765625,0.743408203125,0.320861816406
26508887604,-0.528259277344,0.255004882812,0.743896484375,0.320129394531
26508910124,-0.527648925781,0.254089355469,0.744689941406,0.320007324219
26508929764,-0.526123046875,0.254211425781,0.745727539062,0.320068359375
26508947605,-0.525634765625,0.253356933594,0.746398925781,0.31982421875
26508970119,-0.526306152344,0.251770019531,0.746520996094,0.31982421875
26508991214,-0.526306152344,0.250915527344,0.746643066406,0.320129394531
26509007605,-0.52587890625,0.25048828125,0.746948242188,0.320556640625
26509030789,-0.526123046875,0.249328613281,0.747131347656,0.320617675781
26509058670,-0.526550292969,0.248046875,0.747497558594,0.320129394531
26509066754,-0.526428222656,0.247802734375,0.747802734375,0.319702148438
26509089302,-0.525939941406,0.247802734375,0.748107910156,0.319702148438
26509110469,-0.526245117188,0.246948242188,0.748352050781,0.319396972656
26509128245,-0.526611328125,0.246337890625,0.748352050781,0.319152832031
26509150572,-0.5263671875,0.246337890625,0.748352050781,0.319641113281
26509170493,-0.526184082031,0.246276855469,0.748291015625,0.320068359375
26509186735,-0.527587890625,0.244079589844,0.748352050781,0.319396972656
26509209474,-0.529235839844,0.242797851562,0.748046875,0.318359375
26509230453,-0.529357910156,0.242858886719,0.748168945312,0.31787109375
26509246797,-0.527099609375,0.240234375,0.750549316406,0.317932128906
26509269255,-0.528503417969,0.242065429688,0.749877929688,0.315856933594
26509291806,-0.52685546875,0.238403320312,0.752319335938,0.315490722656
26509306758,-0.527648925781,0.240051269531,0.752014160156,0.313720703125
26509329354,-0.524719238281,0.238586425781,0.754943847656,0.312622070312
26509351911,-0.524353027344,0.23974609375,0.755554199219,0.310852050781
26509366123,-0.521606445312,0.235595703125,0.759033203125,0.310302734375
26509389274,-0.521606445312,0.235168457031,0.759948730469,0.308410644531
26509411798,-0.517150878906,0.231079101562,0.764526367188,0.3076171875
26509434259,-0.513061523438,0.228515625,0.768432617188,0.306518554688
26509449276,-0.508728027344,0.225219726562,0.772583007812,0.305847167969
26509472435,-0.50390625,0.221862792969,0.776672363281,0.305969238281
26509492963,-0.499267578125,0.217407226562,0.780578613281,0.306762695312
26509509229,-0.494689941406,0.212158203125,0.784423828125,0.308044433594
26509531801,-0.490051269531,0.206359863281,0.787963867188,0.310302734375
26509552853,-0.484130859375,0.200317382812,0.791870117188,0.313598632812
26509569298,-0.477416992188,0.194091796875,0.796142578125,0.317077636719
26509591779,-0.470947265625,0.186889648438,0.800476074219,0.320129394531
26509612984,-0.464111328125,0.18017578125,0.804748535156,0.3232421875
26509629302,-0.457275390625,0.172790527344,0.809143066406,0.325988769531
26509651955,-0.450622558594,0.164306640625,0.813537597656,0.328796386719
26509672935,-0.443176269531,0.155883789062,0.817932128906,0.33203125
26509689279,-0.435302734375,0.147644042969,0.822021484375,0.336120605469
26509711778,-0.427307128906,0.139770507812,0.825500488281,0.341064453125
26509732742,-0.419006347656,0.132446289062,0.82861328125,0.346740722656
26509749308,-0.410217285156,0.125305175781,0.831909179688,0.352111816406
26509771755,-0.401306152344,0.116821289062,0.835266113281,0.357177734375
26509792989,-0.392578125,0.107604980469,0.838500976562,0.362121582031
26509809295,-0.383544921875,0.0992431640625,0.841491699219,0.367309570312
26509831770,-0.374267578125,0.0923461914062,0.844177246094,0.372436523438
26509852829,-0.365051269531,0.085693359375,0.846496582031,0.377868652344
26509869726,-0.356567382812,0.0782470703125,0.848388671875,0.38330078125
26509891785,-0.347717285156,0.0704956054688,0.849975585938,0.389343261719
26509920497,-0.338073730469,0.06298828125,0.851806640625,0.395080566406
26509929247,-0.327575683594,0.0548706054688,0.853942871094,0.400512695312
26509952053,-0.316833496094,0.046630859375,0.855651855469,0.406433105469
26509974242,-0.305908203125,0.0397338867188,0.856811523438,0.4130859375
26509995454,-0.294799804688,0.0355224609375,0.857604980469,0.419860839844
26510011790,-0.28369140625,0.0307006835938,0.858459472656,0.426147460938
26510032936,-0.272338867188,0.0248413085938,0.859008789062,0.432739257812
26510049295,-0.261108398438,0.018798828125,0.859375,0.439147949219
26510071758,-0.249877929688,0.0137939453125,0.859497070312,0.445678710938
26510092968,-0.239318847656,0.0089111328125,0.859375,0.451721191406
26510108619,-0.228942871094,0.00286865234375,0.859252929688,0.457458496094
26510131776,-0.218322753906,-0.00384521484375,0.858947753906,0.463134765625
26510152809,-0.207946777344,-0.0101928710938,0.858459472656,0.468627929688
26510168850,-0.197570800781,-0.0157470703125,0.857849121094,0.47412109375
26510191746,-0.186340332031,-0.0205688476562,0.857116699219,0.479736328125
26510213054,-0.175048828125,-0.0254516601562,0.856323242188,0.485168457031
26510228695,-0.163635253906,-0.0307006835938,0.855407714844,0.490356445312
26510251850,-0.15185546875,-0.0357666015625,0.854370117188,0.495666503906
26510272962,-0.140319824219,-0.0401611328125,0.853149414062,0.500793457031
26510295533,-0.12939453125,-0.0446166992188,0.851928710938,0.50537109375
26510311770,-0.118530273438,-0.04931640625,0.850708007812,0.509643554688
26510349388,-0.108215332031,-0.054443359375,0.849365234375,0.513610839844
26510351612,-0.0977172851562,-0.0592651367188,0.847961425781,0.517517089844
26510371780,-0.0874633789062,-0.0640258789062,0.846435546875,0.521240234375
26510394293,-0.0768432617188,-0.0687866210938,0.8447265625,0.525146484375
26510408649,-0.0658569335938,-0.0734252929688,0.842712402344,0.529174804688
26510431771,-0.0548706054688,-0.0770874023438,0.8408203125,0.532958984375
26510454310,-0.0444946289062,-0.0799560546875,0.838806152344,0.536560058594
26510475433,-0.035400390625,-0.0830688476562,0.836730957031,0.5400390625
26510491820,-0.0275268554688,-0.086669921875,0.834594726562,0.543212890625
26510514274,-0.020751953125,-0.0902099609375,0.832641601562,0.545959472656
26510535464,-0.0148315429688,-0.0933837890625,0.830871582031,0.54833984375
26510551735,-0.009521484375,-0.0967407226562,0.829284667969,0.550231933594
26510574712,-0.005126953125,-0.100402832031,0.827697753906,0.552001953125
26510595431,-0.00103759765625,-0.103149414062,0.826354980469,0.553527832031
26510611733,0.00299072265625,-0.104858398438,0.825256347656,0.554809570312
26510634272,0.0068359375,-0.106384277344,0.824157714844,0.55615234375
26510655455,0.0107421875,-0.107666015625,0.8232421875,0.557189941406
26510671780,0.01416015625,-0.108947753906,0.822448730469,0.55810546875
26510694296,0.0172119140625,-0.110229492188,0.821838378906,0.55859375
26510715492,0.0203247070312,-0.111633300781,0.821350097656,0.558898925781
26510731779,0.0234375,-0.11279296875,0.820983886719,0.559143066406
26510754246,0.026123046875,-0.114074707031,0.820434570312,0.559509277344
26510775569,0.0285034179688,-0.115783691406,0.820129394531,0.5595703125
26510791800,0.0313720703125,-0.117553710938,0.819702148438,0.559692382812
26510814239,0.0344848632812,-0.118774414062,0.819152832031,0.559997558594
26510835551,0.0372314453125,-0.119384765625,0.818786621094,0.560241699219
26510851749,0.0397338867188,-0.120056152344,0.818420410156,0.560485839844
26510874273,0.0420532226562,-0.121215820312,0.817932128906,0.560791015625
26510895317,0.044677734375,-0.123962402344,0.817199707031,0.560974121094
26510911758,0.0469970703125,-0.121337890625,0.817016601562,0.561645507812
26510934295,0.04931640625,-0.118530273438,0.817077636719,0.561950683594
26510955451,0.04931640625,-0.117797851562,0.817199707031,0.561950683594
26510979242,0.0487670898438,-0.11865234375,0.817077636719,0.562072753906
26510994245,0.049072265625,-0.119506835938,0.816833496094,0.562133789062
26511015407,0.0502319335938,-0.1201171875,0.816650390625,0.562194824219
26511031713,0.0513916015625,-0.120666503906,0.816528320312,0.562133789062
26511054256,0.0525512695312,-0.120666503906,0.816589355469,0.561950683594
26511075411,0.0535888671875,-0.120483398438,0.816650390625,0.561767578125
26511091750,0.0550537109375,-0.120422363281,0.816772460938,0.561462402344
26511114292,0.0567016601562,-0.11962890625,0.81689453125,0.561340332031
26511135386,0.0590209960938,-0.118286132812,0.816955566406,0.561340332031
26511151752,0.0611572265625,-0.117126464844,0.816833496094,0.5615234375
26511174286,0.0625,-0.116943359375,0.816528320312,0.561828613281
26511195426,0.0635375976562,-0.117492675781,0.816345214844,0.561828613281
26511211843,0.0648193359375,-0.117980957031,0.816223144531,0.561706542969
26511234261,0.0657348632812,-0.118103027344,0.816223144531,0.561645507812
26511256768,0.0662231445312,-0.118225097656,0.816223144531,0.5615234375
26511271093,0.0665893554688,-0.118347167969,0.816162109375,0.561584472656
26511294278,0.0670166015625,-0.118591308594,0.816040039062,0.561584472656
26511316870,0.0676879882812,-0.118957519531,0.81591796875,0.561645507812
26511331825,0.0687255859375,-0.118957519531,0.815795898438,0.561706542969
26511354246,0.0695190429688,-0.118835449219,0.815551757812,0.561950683594
26511376777,0.0697631835938,-0.118957519531,0.815307617188,0.562316894531
26511391104,0.069580078125,-0.119323730469,0.815002441406,0.562622070312
26511414258,0.069580078125,-0.119384765625,0.81494140625,0.562744140625
26511436726,0.0695190429688,-0.118957519531,0.815002441406,0.562744140625
26511451768,0.0693969726562,-0.118469238281,0.815124511719,0.562744140625
26511474273,0.069091796875,-0.118347167969,0.815246582031,0.562622070312
26511496751,0.0684204101562,-0.118835449219,0.815246582031,0.562561035156
26511511125,0.0675659179688,-0.119689941406,0.815124511719,0.562622070312
26511534704,0.06689453125,-0.120544433594,0.815002441406,0.562805175781
26511556779,0.0664672851562,-0.121032714844,0.814880371094,0.562805175781
26511571165,0.0662231445312,-0.121032714844,0.81494140625,0.562805175781
26511594198,0.0662231445312,-0.120727539062,0.81494140625,0.562927246094
26511616745,0.066162109375,-0.120544433594,0.814819335938,0.563110351562
26511631106,0.0659790039062,-0.120300292969,0.814758300781,0.563293457031
26511654266,0.0659790039062,-0.120300292969,0.814758300781,0.563293457031
26511676773,0.0657958984375,-0.120483398438,0.814636230469,0.563415527344
26511691098,0.0657958984375,-0.120483398438,0.814636230469,0.563415527344
26511714278,0.0657958984375,-0.120544433594,0.814636230469,0.563415527344
26511736726,0.0657958984375,-0.120544433594,0.814636230469,0.563415527344
26511757916,0.0657958984375,-0.120544433594,0.814636230469,0.563415527344
26511774297,0.0658569335938,-0.120544433594,0.814514160156,0.563598632812
26511796727,0.0658569335938,-0.120544433594,0.814514160156,0.563598632812
26511817910,0.0658569335938,-0.120544433594,0.814514160156,0.563598632812
26511834229,0.0660400390625,-0.120422363281,0.814514160156,0.563598632812
26511856748,0.0663452148438,-0.120483398438,0.814392089844,0.563659667969
26511877991,0.06640625,-0.120483398438,0.814392089844,0.563659667969
26511894221,0.06640625,-0.120483398438,0.814392089844,0.563659667969
26511916752,0.06640625,-0.120483398438,0.814392089844,0.563659667969
26511937847,0.066650390625,-0.120544433594,0.814331054688,0.563720703125
26511954235,0.066650390625,-0.120544433594,0.814331054688,0.563720703125
26511976774,0.066650390625,-0.120544433594,0.814331054688,0.563720703125
26511997918,0.0667724609375,-0.120666503906,0.814331054688,0.563659667969
26512014265,0.0672607421875,-0.120666503906,0.814331054688,0.563659667969
26512036719,0.0675659179688,-0.120544433594,0.814331054688,0.563659667969
26512057996,0.06787109375,-0.120300292969,0.814270019531,0.563720703125
26512074324,0.0681762695312,-0.1201171875,0.814208984375,0.563781738281
26512096727,0.068115234375,-0.119873046875,0.814392089844,0.563598632812
26512117914,0.0679321289062,-0.119262695312,0.814636230469,0.563415527344
26512134230,0.0675048828125,-0.119201660156,0.814819335938,0.563232421875
26512156823,0.0663452148438,-0.119262695312,0.814819335938,0.563415527344
26512179215,0.0642700195312,-0.119567871094,0.815002441406,0.563232421875
26512194215,0.0611572265625,-0.119506835938,0.815246582031,0.563293457031
26512216733,0.0570678710938,-0.119689941406,0.815063476562,0.56396484375
26512239219,0.0543212890625,-0.1181640625,0.814575195312,0.565246582031
26512253582,0.0494384765625,-0.115417480469,0.814697265625,0.566040039062
26512276842,0.0424194335938,-0.113952636719,0.815002441406,0.566467285156
26512299325,0.0347900390625,-0.114807128906,0.815063476562,0.566711425781
26512320378,0.0275268554688,-0.115173339844,0.815185546875,0.566955566406
26512336867,0.02001953125,-0.113647460938,0.814880371094,0.567932128906
26512342198,0.0122680664062,-0.10986328125,0.814636230469,0.569213867188
26512364774,0.00433349609375,-0.105102539062,0.814697265625,0.570190429688
26512382569,-0.00372314453125,-0.100646972656,0.81494140625,0.570678710938
26512402151,-0.0131225585938,-0.09716796875,0.815307617188,0.570556640625
26512424892,-0.0233764648438,-0.0934448242188,0.81591796875,0.570007324219
26512441082,-0.034423828125,-0.0885620117188,0.816345214844,0.569641113281
26512462250,-0.046142578125,-0.082275390625,0.816955566406,0.56884765625
26512492879,-0.0585327148438,-0.0756225585938,0.817687988281,0.567565917969
26512501099,-0.0712280273438,-0.06884765625,0.818359375,0.566040039062
26512522214,-0.0842895507812,-0.0617065429688,0.81884765625,0.564392089844
26512544883,-0.0982055664062,-0.0543823242188,0.819396972656,0.56201171875
26512568578,-0.11181640625,-0.0467529296875,0.820251464844,0.558959960938
26512582281,-0.124938964844,-0.0382690429688,0.821044921875,0.5556640625
26512604819,-0.138488769531,-0.0291748046875,0.821716308594,0.552001953125
26512623982,-0.152465820312,-0.0198364257812,0.822570800781,0.547424316406
26512645031,-0.166198730469,-0.0100708007812,0.823425292969,0.542419433594
26512664757,-0.179931640625,0.00048828125,0.823974609375,0.537231445312
26512681045,-0.193603515625,0.0115966796875,0.824523925781,0.531494140625
26512702246,-0.206665039062,0.0234985351562,0.824951171875,0.525451660156
26512724824,-0.219665527344,0.0359497070312,0.825256347656,0.518981933594
26512741052,-0.233032226562,0.0484619140625,0.8251953125,0.51220703125
26512762314,-0.246704101562,0.06005859375,0.824890136719,0.505065917969
26512784669,-0.260437011719,0.0709838867188,0.824584960938,0.497131347656
26512801091,-0.273559570312,0.08203125,0.82421875,0.488891601562
26512822266,-0.2861328125,0.0938720703125,0.823425292969,0.480834960938
26512844701,-0.298278808594,0.105895996094,0.822265625,0.472900390625
26512861093,-0.31005859375,0.117370605469,0.821228027344,0.46435546875
26512882270,-0.321166992188,0.128173828125,0.8203125,0.455505371094
26512904698,-0.331298828125,0.138549804688,0.8193359375,0.44677734375
26512921080,-0.340515136719,0.14892578125,0.818298339844,0.438415527344
26512942249,-0.348876953125,0.159606933594,0.817016601562,0.430419921875
26512964764,-0.356689453125,0.170654296875,0.815673828125,0.422180175781
26512981068,-0.363830566406,0.180358886719,0.814697265625,0.413879394531
26513002134,-0.370239257812,0.189880371094,0.813354492188,0.406494140625
26513024680,-0.376525878906,0.199890136719,0.811645507812,0.399291992188
26513041068,-0.382263183594,0.209228515625,0.810119628906,0.39208984375
26513062302,-0.387939453125,0.217102050781,0.808654785156,0.38525390625
26513084694,-0.392883300781,0.225036621094,0.807006835938,0.379028320312
26513101078,-0.397583007812,0.232666015625,0.805419921875,0.372863769531
26513122126,-0.402221679688,0.240356445312,0.803649902344,0.366760253906
26513144715,-0.406799316406,0.24755859375,0.802001953125,0.360534667969
26513162598,-0.411499023438,0.254211425781,0.800170898438,0.3544921875
26513185026,-0.416137695312,0.260925292969,0.798156738281,0.348754882812
26513204698,-0.420715332031,0.267639160156,0.796203613281,0.342590332031
26513222528,-0.424987792969,0.273376464844,0.794555664062,0.336608886719
26513242224,-0.428466796875,0.279479980469,0.792785644531,0.331298828125
26513264845,-0.431457519531,0.285217285156,0.791076660156,0.326538085938
26513282527,-0.434509277344,0.290405273438,0.789489746094,0.321838378906
26513302203,-0.436889648438,0.295166015625,0.788208007812,0.317260742188
26513326051,-0.438781738281,0.298950195312,0.787353515625,0.313171386719
26513348550,-0.440551757812,0.302429199219,0.786499023438,0.309509277344
26513362221,-0.442443847656,0.30615234375,0.785217285156,0.306396484375
26513384812,-0.443969726562,0.309936523438,0.784057617188,0.303344726562
26513403990,-0.445617675781,0.3125,0.783081054688,0.300720214844
26513425035,-0.447021484375,0.314514160156,0.7822265625,0.298767089844
26513444722,-0.448852539062,0.315979003906,0.78125,0.297180175781
26513462523,-0.451232910156,0.316955566406,0.780212402344,0.295166015625
26513482197,-0.453125,0.31787109375,0.779541015625,0.293090820312
26513499956,-0.455078125,0.318542480469,0.778686523438,0.291625976562
26513522549,-0.457092285156,0.318969726562,0.777893066406,0.290100097656
26513549760,-0.459289550781,0.319274902344,0.777282714844,0.287902832031
26513560003,-0.460876464844,0.31884765625,0.777282714844,0.285949707031
26513582527,-0.46142578125,0.318542480469,0.777465820312,0.284790039062
26513602358,-0.461853027344,0.318908691406,0.777465820312,0.283752441406
26513627554,-0.462463378906,0.319274902344,0.777404785156,0.282531738281
26513642559,-0.462890625,0.318786621094,0.777709960938,0.281372070312
26513662228,-0.463562011719,0.317626953125,0.778076171875,0.280639648438
26513680028,-0.464233398438,0.316772460938,0.778259277344,0.279968261719
26513702480,-0.464660644531,0.317077636719,0.778015136719,0.279541015625
26513723594,-0.465270996094,0.316650390625,0.778076171875,0.278930664062
26513740040,-0.466064453125,0.315795898438,0.778015136719,0.27880859375
26513762513,-0.466674804688,0.3154296875,0.777770996094,0.278930664062
26513783544,-0.466796875,0.315795898438,0.777587890625,0.27880859375
26513799996,-0.467224121094,0.315063476562,0.777648925781,0.278564453125
26513827173,-0.468444824219,0.313415527344,0.777709960938,0.2783203125
26513852537,-0.469787597656,0.311767578125,0.777465820312,0.278625488281
26513860027,-0.471008300781,0.311218261719,0.776916503906,0.278625488281
26513882534,-0.472595214844,0.308959960938,0.777099609375,0.277954101562
26513903674,-0.47412109375,0.306518554688,0.777282714844,0.277526855469
26513927455,-0.474975585938,0.304931640625,0.777648925781,0.276733398438
26513941728,-0.47509765625,0.303955078125,0.778381347656,0.275756835938
26513962934,-0.474792480469,0.302734375,0.779296875,0.27490234375
26513979209,-0.474548339844,0.301025390625,0.780212402344,0.274658203125
26514001686,-0.474487304688,0.299438476562,0.78076171875,0.274841308594
26514030459,-0.474304199219,0.298706054688,0.781005859375,0.275207519531
26514039207,-0.474304199219,0.297607421875,0.78125,0.275756835938
26514061696,-0.474060058594,0.296936035156,0.781311035156,0.276672363281
26514084226,-0.473876953125,0.296508789062,0.781311035156,0.277404785156
26514098553,-0.473937988281,0.295349121094,0.78173828125,0.27734375
26514121699,-0.473937988281,0.294006347656,0.782348632812,0.277099609375
26514151715,-0.474060058594,0.29248046875,0.782836914062,0.277221679688
26514159267,-0.474426269531,0.292053222656,0.782836914062,0.277038574219
26514181715,-0.474731445312,0.291381835938,0.783142089844,0.2763671875
26514204302,-0.474670410156,0.290588378906,0.783569335938,0.276000976562
26514218590,-0.474975585938,0.289489746094,0.783996582031,0.275512695312
26514241725,-0.475219726562,0.289001464844,0.784362792969,0.274597167969
26514264196,-0.474853515625,0.288146972656,0.78515625,0.273803710938
26514278523,-0.474060058594,0.287536621094,0.785949707031,0.273559570312
26514309180,-0.473754882812,0.286865234375,0.786437988281,0.273498535156
26514324196,-0.473205566406,0.286376953125,0.786804199219,0.273803710938
26514338542,-0.472106933594,0.285766601562,0.787414550781,0.274536132812
26514361703,-0.471801757812,0.285461425781,0.787414550781,0.275390625
26514384271,-0.472473144531,0.284729003906,0.787109375,0.27587890625
26514398538,-0.472778320312,0.283813476562,0.787048339844,0.276428222656
26514429222,-0.472900390625,0.283325195312,0.786987304688,0.276977539062
26514444192,-0.473693847656,0.282592773438,0.786682128906,0.277038574219
26514458518,-0.474670410156,0.282104492188,0.786437988281,0.276672363281
26514481701,-0.474792480469,0.282043457031,0.786499023438,0.2763671875
26514504074,-0.474365234375,0.281982421875,0.786865234375,0.276245117188
26514518526,-0.47412109375,0.281860351562,0.787170410156,0.275939941406
26514541678,-0.474304199219,0.281494140625,0.787353515625,0.275268554688
26514564207,-0.474060058594,0.281066894531,0.787780761719,0.274963378906
26514586679,-0.473449707031,0.281433105469,0.787963867188,0.275146484375
26514601713,-0.4736328125,0.281677246094,0.787719726562,0.275146484375
26514624195,-0.473876953125,0.281188964844,0.787841796875,0.275024414062
26514645351,-0.473693847656,0.280822753906,0.788024902344,0.275146484375
26514661678,-0.473266601562,0.281433105469,0.788146972656,0.274963378906
26514684199,-0.47314453125,0.281555175781,0.788330078125,0.274597167969
26514705367,-0.472900390625,0.281677246094,0.788635253906,0.273986816406
26514721695,-0.471984863281,0.281433105469,0.789489746094,0.273315429688
26514744238,-0.470947265625,0.282104492188,0.789794921875,0.273620605469
26514765372,-0.469909667969,0.283203125,0.789611816406,0.274719238281
26514781697,-0.469055175781,0.284790039062,0.789184570312,0.275756835938
26514804224,-0.468627929688,0.285217285156,0.788940429688,0.276672363281
26514825119,-0.467468261719,0.284423828125,0.789672851562,0.277404785156
26514841673,-0.465393066406,0.2841796875,0.790588378906,0.278564453125
26514864199,-0.463256835938,0.284118652344,0.791259765625,0.280151367188
26514885323,-0.461669921875,0.283386230469,0.791870117188,0.281921386719
26514901671,-0.460083007812,0.282409667969,0.792419433594,0.283874511719
26514924249,-0.457946777344,0.281127929688,0.793212890625,0.286437988281
26514945365,-0.455749511719,0.279418945312,0.794006347656,0.289428710938
26514961042,-0.45361328125,0.276062011719,0.795043945312,0.293029785156
26514984197,-0.450622558594,0.271789550781,0.796752929688,0.296997070312
26515005360,-0.446960449219,0.266967773438,0.798706054688,0.301635742188
26515021069,-0.443298339844,0.261962890625,0.800537109375,0.306640625
26515044222,-0.439086914062,0.257507324219,0.80224609375,0.311889648438
26515066705,-0.434875488281,0.25146484375,0.804443359375,0.316955566406
26515081028,-0.430541992188,0.24462890625,0.806823730469,0.322143554688
26515104164,-0.425720214844,0.237121582031,0.809448242188,0.327453613281
26515129474,-0.420532226562,0.229370117188,0.812133789062,0.333068847656
26515148311,-0.414916992188,0.22314453125,0.814147949219,0.339294433594
26515164629,-0.4091796875,0.218139648438,0.815856933594,0.345336914062
26515186673,-0.403076171875,0.212768554688,0.817932128906,0.35107421875
26515215951,-0.397827148438,0.207153320312,0.819519042969,0.356689453125
26515224889,-0.393676757812,0.201782226562,0.820495605469,0.361999511719
26515246693,-0.386596679688,0.194091796875,0.822998046875,0.368041992188
26515267843,-0.380554199219,0.185302734375,0.825073242188,0.374267578125
26515284147,-0.374755859375,0.180053710938,0.826171875,0.380187988281
26515306671,-0.3671875,0.169372558594,0.828491210938,0.387329101562
26515327776,-0.360961914062,0.165222167969,0.829223632812,0.393310546875
26515343948,-0.3525390625,0.155212402344,0.83154296875,0.400146484375
26515366669,-0.345397949219,0.151489257812,0.832275390625,0.40625
26515389175,-0.337097167969,0.141418457031,0.834045410156,0.413208007812
26515404241,-0.329772949219,0.137512207031,0.834533691406,0.419372558594
26515426673,-0.321594238281,0.130798339844,0.835754394531,0.425354003906
26515447758,-0.313781738281,0.122924804688,0.837036132812,0.430908203125
26515470252,-0.306274414062,0.113891601562,0.838256835938,0.4365234375
26515486698,-0.298522949219,0.10498046875,0.839233398438,0.442199707031
26515507817,-0.290283203125,0.0967407226562,0.839965820312,0.448120117188
26515524196,-0.281494140625,0.0892333984375,0.840393066406,0.454406738281
26515546673,-0.272521972656,0.0826416015625,0.840576171875,0.460693359375
26515567877,-0.263488769531,0.0755615234375,0.840759277344,0.466796875
26515584206,-0.254272460938,0.06787109375,0.8408203125,0.472961425781
26515606735,-0.245178222656,0.060302734375,0.840698242188,0.478942871094
26515627842,-0.236267089844,0.0534057617188,0.840515136719,0.484558105469
26515644159,-0.227600097656,0.0466918945312,0.840087890625,0.490112304688
26515666719,-0.219421386719,0.039306640625,0.83935546875,0.495727539062
26515687577,-0.21142578125,0.0320434570312,0.838562011719,0.5009765625
26515704196,-0.203247070312,0.0255126953125,0.837951660156,0.505737304688
26515726651,-0.195190429688,0.0196533203125,0.837280273438,0.510314941406
26515747892,-0.187561035156,0.0138549804688,0.83642578125,0.514709472656
26515763552,-0.180603027344,0.00836181640625,0.835693359375,0.5185546875
26515786690,-0.173950195312,0.003173828125,0.835144042969,0.521728515625
26515807835,-0.167663574219,-0.00244140625,0.834533691406,0.524719238281
26515823568,-0.161804199219,-0.00830078125,0.833862304688,0.527587890625
26515846705,-0.155944824219,-0.0138549804688,0.833251953125,0.530212402344
26515867707,-0.149597167969,-0.0187377929688,0.832641601562,0.532836914062
26515883603,-0.14306640625,-0.023193359375,0.831909179688,0.535583496094
26515906703,-0.13671875,-0.02734375,0.831237792969,0.538146972656
26515927818,-0.130920410156,-0.0313110351562,0.830505371094,0.540405273438
26515943525,-0.12548828125,-0.0355224609375,0.829833984375,0.542541503906
26515966684,-0.119873046875,-0.0399169921875,0.828918457031,0.544860839844
26515989197,-0.1142578125,-0.0440673828125,0.827941894531,0.547180175781
26516003531,-0.108581542969,-0.0479125976562,0.827087402344,0.54931640625
26516026710,-0.102722167969,-0.0518798828125,0.826354980469,0.551208496094
26516049140,-0.0968017578125,-0.0557250976562,0.825622558594,0.553039550781
26516063548,-0.0908203125,-0.0592651367188,0.82470703125,0.554931640625
26516086594,-0.0850830078125,-0.062255859375,0.823791503906,0.556945800781
26516109160,-0.0799560546875,-0.0647583007812,0.822937011719,0.558654785156
26516130406,-0.0756225585938,-0.0677490234375,0.822082519531,0.560180664062
26516146701,-0.0717163085938,-0.071044921875,0.821044921875,0.561828613281
26516169227,-0.0681762695312,-0.0742797851562,0.81982421875,0.563598632812
26516190480,-0.06494140625,-0.0767822265625,0.818786621094,0.565124511719
26516206676,-0.0617065429688,-0.0791625976562,0.817932128906,0.566467285156
26516229203,-0.0587158203125,-0.08203125,0.816955566406,0.567749023438
26516250424,-0.055419921875,-0.08447265625,0.816223144531,0.568786621094
26516266669,-0.0521850585938,-0.0865478515625,0.815612792969,0.569641113281
26516289195,-0.0491333007812,-0.0882568359375,0.815124511719,0.570373535156
26516310480,-0.0462646484375,-0.0894775390625,0.814697265625,0.570983886719
26516326739,-0.0437622070312,-0.0907592773438,0.814453125,0.571411132812
26516349146,-0.0414428710938,-0.091796875,0.814147949219,0.57177734375
26516363550,-0.039306640625,-0.0924072265625,0.813903808594,0.572204589844
26516386696,-0.037353515625,-0.0931396484375,0.813720703125,0.572509765625
26516409195,-0.03564453125,-0.0943603515625,0.8134765625,0.572692871094
26516423491,-0.0338745117188,-0.0955200195312,0.813415527344,0.572692871094
26516452886,-0.0319213867188,-0.096435546875,0.813415527344,0.572631835938
26516469293,-0.029296875,-0.0970458984375,0.813354492188,0.57275390625
26516490393,-0.026611328125,-0.0972900390625,0.813293457031,0.572998046875
26516506676,-0.0242919921875,-0.097900390625,0.813232421875,0.573120117188
26516529146,-0.0222778320312,-0.098876953125,0.813110351562,0.573181152344
26516550352,-0.0202026367188,-0.0997314453125,0.813049316406,0.573181152344
26516566698,-0.01806640625,-0.100341796875,0.813049316406,0.573120117188
26516589143,-0.0155029296875,-0.100952148438,0.813171386719,0.572875976562
26516610183,-0.0128784179688,-0.101684570312,0.813232421875,0.572814941406
26516626634,-0.0103759765625,-0.102233886719,0.813293457031,0.572692871094
26516649269,-0.00775146484375,-0.102600097656,0.813354492188,0.572570800781
26516670341,-0.0048828125,-0.103088378906,0.813354492188,0.572509765625
26516686638,-0.00189208984375,-0.103698730469,0.813354492188,0.572387695312
26516709195,0.00115966796875,-0.104370117188,0.813232421875,0.572387695312
26516730336,0.00384521484375,-0.105224609375,0.813110351562,0.572448730469
26516746673,0.006103515625,-0.106323242188,0.812866210938,0.572509765625
26516769147,0.00830078125,-0.107238769531,0.812683105469,0.572631835938
26516790350,0.0103759765625,-0.108154296875,0.8125,0.572692871094
26516806670,0.0125122070312,-0.108825683594,0.812377929688,0.572692871094
26516829150,0.0146484375,-0.109436035156,0.812194824219,0.57275390625
26516850370,0.0166015625,-0.110107421875,0.81201171875,0.572814941406
26516866703,0.0183715820312,-0.11083984375,0.811767578125,0.572998046875
26516889173,0.02001953125,-0.111572265625,0.8115234375,0.573181152344
26516911693,0.021484375,-0.112548828125,0.811340332031,0.573181152344
26516926673,0.0224609375,-0.113403320312,0.811218261719,0.573181152344
26516949159,0.0233764648438,-0.11328125,0.811157226562,0.573181152344
26516971672,0.0242919921875,-0.112731933594,0.811279296875,0.573120117188
26516986680,0.0249633789062,-0.112731933594,0.811279296875,0.573120117188
26517009138,0.0254516601562,-0.113403320312,0.81103515625,0.5732421875
26517031625,0.0257568359375,-0.114379882812,0.810791015625,0.573425292969
26517046724,0.0263061523438,-0.115417480469,0.810668945312,0.573303222656
26517069192,0.0274658203125,-0.1162109375,0.810607910156,0.573181152344
26517091692,0.029052734375,-0.116577148438,0.810485839844,0.5732421875
26517106010,0.03076171875,-0.116516113281,0.810424804688,0.5732421875
26517129162,0.0324096679688,-0.116333007812,0.810546875,0.573059082031
26517151668,0.0339965820312,-0.116027832031,0.810607910156,0.572875976562
26517166007,0.0357666015625,-0.11572265625,0.810607910156,0.572814941406
26517189206,0.0380859375,-0.115966796875,0.810546875,0.57275390625
26517211674,0.0387573242188,-0.114807128906,0.810485839844,0.572998046875
26517217156,0.0393676757812,-0.113586425781,0.810729980469,0.572814941406
26517233523,0.03955078125,-0.113037109375,0.81103515625,0.572509765625
26517254654,0.0399780273438,-0.112915039062,0.811218261719,0.572204589844
26517285404,0.04052734375,-0.113098144531,0.811157226562,0.572265625
26517293486,0.0408935546875,-0.113586425781,0.81103515625,0.572387695312
26517314656,0.0408325195312,-0.114074707031,0.810913085938,0.572448730469
26517337274,0.0408325195312,-0.114135742188,0.810913085938,0.572448730469
26517359612,0.041015625,-0.113952636719,0.810974121094,0.572326660156
26517374563,0.0413208007812,-0.113525390625,0.81103515625,0.572265625
26517397226,0.0419921875,-0.112854003906,0.811279296875,0.572082519531
26517413451,0.0429077148438,-0.112243652344,0.811340332031,0.572021484375
26517434616,0.0438842773438,-0.111938476562,0.811218261719,0.572143554688
26517457000,0.0444946289062,-0.111938476562,0.81103515625,0.572387695312
26517473497,0.0450439453125,-0.111877441406,0.810913085938,0.572570800781
26517494494,0.04541015625,-0.111877441406,0.810791015625,0.572631835938
26517517283,0.04541015625,-0.111877441406,0.810791015625,0.572631835938
26517533431,0.04541015625,-0.111877441406,0.810791015625,0.572631835938
26517554531,0.04541015625,-0.111877441406,0.810791015625,0.572631835938
26517577387,0.0454711914062,-0.112060546875,0.810729980469,0.57275390625
26517593549,0.04541015625,-0.112426757812,0.810607910156,0.572814941406
26517614644,0.0455322265625,-0.112915039062,0.810546875,0.57275390625
26517638461,0.046142578125,-0.113098144531,0.810546875,0.57275390625
26517653516,0.0467529296875,-0.113037109375,0.810424804688,0.572814941406
26517674618,0.04736328125,-0.112915039062,0.810363769531,0.572937011719
26517697179,0.0477905273438,-0.112670898438,0.810363769531,0.572937011719
26517713672,0.0482177734375,-0.1123046875,0.810363769531,0.572998046875
26517734520,0.0486450195312,-0.112121582031,0.810241699219,0.573181152344
26517757216,0.0487670898438,-0.112243652344,0.809997558594,0.573425292969
26517773493,0.0487060546875,-0.112548828125,0.809997558594,0.573425292969
26517794692,0.0486450195312,-0.112548828125,0.809997558594,0.573425292969
26517816967,0.0488891601562,-0.112548828125,0.81005859375,0.573303222656
26517839546,0.049072265625,-0.112670898438,0.809997558594,0.573364257812
26517854577,0.048828125,-0.113037109375,0.809936523438,0.573364257812
26517877194,0.0487060546875,-0.113403320312,0.809814453125,0.573486328125
26517894936,0.0487060546875,-0.113464355469,0.809814453125,0.573486328125
26517914621,0.0486450195312,-0.113464355469,0.809814453125,0.573425292969
26517937168,0.0487670898438,-0.11328125,0.809753417969,0.573547363281
26517954913,0.0490112304688,-0.113342285156,0.809631347656,0.57373046875
26517974750,0.049072265625,-0.113464355469,0.809448242188,0.573913574219
26517997258,0.049072265625,-0.113464355469,0.809448242188,0.573913574219
26518014966,0.049072265625,-0.113464355469,0.809448242188,0.573913574219
26518034615,0.049072265625,-0.113525390625,0.809387207031,0.574035644531
26518057050,0.048828125,-0.113891601562,0.809265136719,0.574157714844
26518074941,0.0484619140625,-0.114440917969,0.809143066406,0.574279785156
26518094664,0.0479736328125,-0.114868164062,0.809143066406,0.57421875
26518119895,0.0476684570312,-0.114990234375,0.809143066406,0.574157714844
26518134925,0.04736328125,-0.114990234375,0.80908203125,0.574279785156
26518154651,0.046630859375,-0.115173339844,0.808898925781,0.574645996094
26518177125,0.0457153320312,-0.115234375,0.808715820312,0.574951171875
26518194941,0.044921875,-0.115051269531,0.808715820312,0.575073242188
26518214655,0.0440063476562,-0.114990234375,0.808715820312,0.575073242188
26518237122,0.0428466796875,-0.115051269531,0.808715820312,0.575134277344
26518254964,0.041015625,-0.114990234375,0.808898925781,0.575073242188
26518274639,0.038818359375,-0.115112304688,0.809143066406,0.574829101562
26518297151,0.0366821289062,-0.115844726562,0.809204101562,0.574768066406
26518315043,0.0343627929688,-0.116821289062,0.809020996094,0.574951171875
26518334680,0.0327758789062,-0.117370605469,0.809020996094,0.574951171875
26518357084,0.0316162109375,-0.118103027344,0.809020996094,0.574890136719
26518374957,0.0305786132812,-0.118103027344,0.80908203125,0.574829101562
26518394558,0.0299072265625,-0.117919921875,0.809143066406,0.574829101562
26518417268,0.0296630859375,-0.117431640625,0.809204101562,0.574829101562
26518434907,0.0299682617188,-0.116760253906,0.809204101562,0.574951171875
26518455963,0.030517578125,-0.115966796875,0.809265136719,0.575073242188
26518472510,0.0310668945312,-0.115295410156,0.809265136719,0.575073242188
26518494923,0.031494140625,-0.115112304688,0.809204101562,0.5751953125
26518515942,0.0318603515625,-0.115356445312,0.80908203125,0.575378417969
26518532473,0.0321044921875,-0.115661621094,0.809020996094,0.575317382812
26518554918,0.032470703125,-0.116027832031,0.80908203125,0.5751953125
26518575967,0.032470703125,-0.116027832031,0.80908203125,0.5751953125
26518598443,0.032470703125,-0.116271972656,0.80908203125,0.575134277344
26518614946,0.0326538085938,-0.116577148438,0.80908203125,0.575073242188
26518636009,0.0330200195312,-0.116821289062,0.809020996094,0.575012207031
26518652436,0.0333862304688,-0.116943359375,0.808959960938,0.575073242188
26518674924,0.0337524414062,-0.116760253906,0.808959960938,0.575073242188
26518695955,0.0340576171875,-0.116271972656,0.808959960938,0.575134277344
26518712472,0.0345458984375,-0.115905761719,0.809020996094,0.575134277344
26518734962,0.0350341796875,-0.11572265625,0.808959960938,0.575256347656
26518755941,0.0355224609375,-0.115661621094,0.808898925781,0.575256347656
26518772412,0.0359497070312,-0.11572265625,0.808776855469,0.575378417969
26518794098,0.0361938476562,-0.115539550781,0.808776855469,0.575378417969
26518822824,0.0361938476562,-0.115539550781,0.808776855469,0.575378417969
26518830966,0.0362548828125,-0.115539550781,0.808776855469,0.575439453125
26518854128,0.0362548828125,-0.115661621094,0.808837890625,0.575317382812
26518876646,0.035888671875,-0.115539550781,0.808959960938,0.5751953125
26518890970,0.0350341796875,-0.115539550781,0.809143066406,0.575012207031
26518914121,0.0338745117188,-0.115600585938,0.809326171875,0.574768066406
26518936644,0.0325927734375,-0.115539550781,0.8095703125,0.574523925781
26518951014,0.0307006835938,-0.115295410156,0.809753417969,0.574462890625
26518974148,0.02783203125,-0.115417480469,0.809936523438,0.574340820312
26518996617,0.0241088867188,-0.115905761719,0.810180664062,0.574035644531
26519017622,0.02099609375,-0.116455078125,0.810363769531,0.57373046875
26519034127,0.018310546875,-0.116516113281,0.810485839844,0.57373046875
26519056643,0.0155639648438,-0.115905761719,0.810485839844,0.573913574219
26519077662,0.0130004882812,-0.113159179688,0.810546875,0.574401855469
26519094145,0.0100708007812,-0.109497070312,0.810913085938,0.574645996094
26519116646,0.005126953125,-0.107482910156,0.811279296875,0.574645996094
26519137793,-0.0008544921875,-0.106079101562,0.8115234375,0.574584960938
26519154118,-0.00775146484375,-0.103881835938,0.812194824219,0.573913574219
26519176600,-0.0154418945312,-0.100646972656,0.813354492188,0.572692871094
26519197833,-0.023193359375,-0.095947265625,0.814453125,0.571716308594
26519214197,-0.0304565429688,-0.0908813476562,0.815246582031,0.571044921875
26519236621,-0.0382690429688,-0.0852661132812,0.816345214844,0.569885253906
26519257687,-0.04638671875,-0.0792236328125,0.817626953125,0.568298339844
26519274080,-0.0548706054688,-0.0725708007812,0.818725585938,0.56689453125
26519304101,-0.0634765625,-0.0646362304688,0.819885253906,0.565246582031
26519317805,-0.072509765625,-0.05615234375,0.820983886719,0.5634765625
26519334099,-0.0821533203125,-0.04736328125,0.821960449219,0.561584472656
26519356652,-0.0921020507812,-0.0380249023438,0.822570800781,0.559753417969
26519377681,-0.102661132812,-0.0279541015625,0.823303222656,0.557434082031
26519394128,-0.113830566406,-0.0177612304688,0.823913574219,0.554809570312
26519416622,-0.125122070312,-0.0069580078125,0.82421875,0.552185058594
26519437681,-0.136596679688,0.00396728515625,0.824340820312,0.549255371094
26519454127,-0.148315429688,0.0149536132812,0.824401855469,0.545959472656
26519476587,-0.159851074219,0.0263061523438,0.824401855469,0.542236328125
26519497642,-0.170959472656,0.0381469726562,0.82421875,0.538452148438
26519514095,-0.181335449219,0.0507202148438,0.823913574219,0.534484863281
26519536733,-0.191345214844,0.0637817382812,0.823547363281,0.530151367188
26519557674,-0.201110839844,0.0768432617188,0.823059082031,0.525451660156
26519581627,-0.210571289062,0.0899047851562,0.822631835938,0.520385742188
26519596650,-0.220092773438,0.102783203125,0.821838378906,0.515258789062
26519617766,-0.229919433594,0.115417480469,0.82080078125,0.509887695312
26519633464,-0.2392578125,0.1279296875,0.819641113281,0.504516601562
26519656621,-0.247985839844,0.140441894531,0.818298339844,0.499145507812
26519677772,-0.256286621094,0.153015136719,0.817138671875,0.493041992188
26519693465,-0.264343261719,0.164855957031,0.816101074219,0.486633300781
26519716591,-0.271911621094,0.1767578125,0.815002441406,0.480102539062
26519739123,-0.279052734375,0.188415527344,0.81396484375,0.473327636719
26519753445,-0.2861328125,0.199645996094,0.812805175781,0.466430664062
26519777064,-0.292602539062,0.2109375,0.811401367188,0.459777832031
26519800594,-0.298828125,0.221862792969,0.810180664062,0.452819824219
26519813448,-0.304992675781,0.232238769531,0.808837890625,0.44580078125
26519837252,-0.310974121094,0.241943359375,0.807495117188,0.438903808594
26519859544,-0.31689453125,0.250610351562,0.806213378906,0.432067871094
26519880255,-0.322387695312,0.258728027344,0.804809570312,0.425842285156
26519896660,-0.327209472656,0.266540527344,0.803466796875,0.419860839844
26519919692,-0.331665039062,0.273803710938,0.802124023438,0.414123535156
26519940097,-0.336303710938,0.280334472656,0.800842285156,0.408630371094
26519956598,-0.340515136719,0.285949707031,0.799682617188,0.403381347656
26519979227,-0.344970703125,0.290588378906,0.798767089844,0.398132324219
26520000666,-0.349426269531,0.294799804688,0.797912597656,0.392700195312
26520016575,-0.353332519531,0.298034667969,0.797485351562,0.387634277344
26520039118,-0.356567382812,0.301147460938,0.796997070312,0.383239746094
26520060240,-0.360412597656,0.304931640625,0.795959472656,0.37890625
26520076595,-0.364624023438,0.309814453125,0.79443359375,0.3740234375
26520100812,-0.366455078125,0.31201171875,0.794921875,0.369323730469
26520120213,-0.368591308594,0.309448242188,0.796630859375,0.365661621094
26520136593,-0.370910644531,0.312927246094,0.7958984375,0.36181640625
26520159089,-0.372436523438,0.313415527344,0.796325683594,0.359008789062
26520180278,-0.373718261719,0.312866210938,0.797058105469,0.356506347656
26520196643,-0.375,0.312194824219,0.797729492188,0.354125976562
26520219112,-0.375854492188,0.311279296875,0.798706054688,0.351806640625
26520233464,-0.376892089844,0.309814453125,0.799743652344,0.349731445312
26520262669,-0.377319335938,0.308410644531,0.800720214844,0.348266601562
26520279117,-0.377136230469,0.307495117188,0.801513671875,0.347412109375
26520300067,-0.376647949219,0.306762695312,0.802307128906,0.346740722656
26520316645,-0.376586914062,0.305725097656,0.803100585938,0.345886230469
26520339123,-0.376831054688,0.304260253906,0.803833007812,0.345275878906
26520360395,-0.376586914062,0.302795410156,0.8046875,0.344848632812
26520376674,-0.376098632812,0.301574707031,0.805297851562,0.344970703125
26520399484,-0.375610351562,0.300903320312,0.805725097656,0.34521484375
26520420140,-0.374755859375,0.300354003906,0.806213378906,0.345397949219
26520436596,-0.374145507812,0.299438476562,0.806762695312,0.345642089844
26520459110,-0.373779296875,0.298645019531,0.807189941406,0.345581054688
26520480289,-0.373474121094,0.297729492188,0.807678222656,0.345703125
26520496627,-0.372802734375,0.296752929688,0.808044433594,0.346374511719
26520519111,-0.372314453125,0.296813964844,0.807800292969,0.347412109375
26520540266,-0.3720703125,0.297424316406,0.807434082031,0.348022460938
26520556570,-0.371948242188,0.296813964844,0.807739257812,0.347900390625
26520578935,-0.372802734375,0.294982910156,0.808044433594,0.347900390625
26520600287,-0.372741699219,0.294006347656,0.808166503906,0.348388671875
26520616647,-0.37255859375,0.293518066406,0.808349609375,0.3486328125
26520639088,-0.372436523438,0.292602539062,0.808776855469,0.348510742188
26520660252,-0.3720703125,0.291198730469,0.809448242188,0.348510742188
26520676642,-0.371643066406,0.290405273438,0.809997558594,0.348327636719
26520699133,-0.37158203125,0.289001464844,0.810607910156,0.348205566406
26520721624,-0.371459960938,0.288391113281,0.810913085938,0.348205566406
26520736622,-0.371337890625,0.28759765625,0.811157226562,0.348266601562
26520759102,-0.371459960938,0.286315917969,0.8115234375,0.348449707031
26520781631,-0.371398925781,0.285827636719,0.811645507812,0.348693847656
26520796598,-0.371520996094,0.285034179688,0.811889648438,0.348571777344
26520819092,-0.37158203125,0.283935546875,0.812072753906,0.348937988281
26520841619,-0.371459960938,0.283935546875,0.811889648438,0.349548339844
26520855893,-0.371398925781,0.283264160156,0.811950683594,0.350036621094
26520879097,-0.371765136719,0.282348632812,0.811828613281,0.350708007812
26520901619,-0.372192382812,0.28125,0.811950683594,0.350769042969
26520915943,-0.372924804688,0.280151367188,0.81201171875,0.350769042969
26520939104,-0.37255859375,0.280090332031,0.812133789062,0.350952148438
26520961572,-0.372497558594,0.279113769531,0.812438964844,0.35107421875
26520975973,-0.372802734375,0.278564453125,0.8125,0.350952148438
26520999130,-0.373168945312,0.278198242188,0.812744140625,0.350280761719
26521021565,-0.373718261719,0.276794433594,0.813171386719,0.349853515625
26521042724,-0.373840332031,0.275939941406,0.813415527344,0.349792480469
26521059057,-0.373901367188,0.275756835938,0.813537597656,0.349731445312
26521081667,-0.373901367188,0.27490234375,0.813842773438,0.349548339844
26521095898,-0.374389648438,0.273498535156,0.814086914062,0.349487304688
26521119057,-0.374755859375,0.271667480469,0.814392089844,0.349975585938
26521141599,-0.374633789062,0.271240234375,0.814331054688,0.3505859375
26521164074,-0.375183105469,0.270629882812,0.814453125,0.35009765625
26521179105,-0.376098632812,0.268493652344,0.815002441406,0.349609375
26521201602,-0.376770019531,0.267639160156,0.81494140625,0.349609375
26521222895,-0.376708984375,0.268005371094,0.815002441406,0.349243164062
26521239167,-0.377380371094,0.267395019531,0.815246582031,0.348449707031
26521261612,-0.377624511719,0.266174316406,0.815979003906,0.347351074219
26521282762,-0.377685546875,0.265502929688,0.81640625,0.346862792969
26521299117,-0.377563476562,0.265319824219,0.816711425781,0.346435546875
26521321548,-0.37744140625,0.26513671875,0.817077636719,0.345703125
26521342722,-0.37744140625,0.264343261719,0.817810058594,0.3447265625
26521359098,-0.377502441406,0.263305664062,0.818481445312,0.34375
26521381559,-0.377075195312,0.263061523438,0.819274902344,0.342590332031
26521402622,-0.376220703125,0.263000488281,0.820190429688,0.341369628906
26521419143,-0.375610351562,0.262878417969,0.820983886719,0.340148925781
26521441587,-0.3759765625,0.262329101562,0.821472167969,0.339050292969
26521462733,-0.376281738281,0.26123046875,0.822204589844,0.337829589844
26521479090,-0.376159667969,0.258972167969,0.823425292969,0.336608886719
26521501587,-0.375061035156,0.256164550781,0.825134277344,0.335815429688
26521522759,-0.373168945312,0.253479003906,0.826965332031,0.335510253906
26521539072,-0.371154785156,0.252319335938,0.828308105469,0.335327148438
26521561606,-0.369384765625,0.251220703125,0.829650878906,0.334777832031
26521582748,-0.3681640625,0.248474121094,0.831298828125,0.334106445312
26521598420,-0.366271972656,0.245483398438,0.833129882812,0.333740234375
26521621664,-0.364013671875,0.24267578125,0.834838867188,0.334045410156
26521642592,-0.361999511719,0.240356445312,0.835998535156,0.3349609375
26521658393,-0.360046386719,0.237915039062,0.836791992188,0.336853027344
26521681608,-0.357788085938,0.235046386719,0.837585449219,0.339233398438
26521704068,-0.354736328125,0.231750488281,0.838745117188,0.341857910156
26521718476,-0.351501464844,0.228149414062,0.839965820312,0.3447265625
26521741618,-0.348449707031,0.224365234375,0.840881347656,0.348022460938
26521764090,-0.345764160156,0.219604492188,0.841674804688,0.351806640625
26521785256,-0.341979980469,0.21484375,0.842712402344,0.355834960938
26521801570,-0.337646484375,0.209350585938,0.84423828125,0.359741210938
26521824099,-0.333251953125,0.203674316406,0.845397949219,0.3642578125
26521845171,-0.328491210938,0.199340820312,0.846008300781,0.369506835938
26521861599,-0.323364257812,0.194458007812,0.846557617188,0.375305175781
26521884050,-0.317810058594,0.188293457031,0.847412109375,0.381164550781
26521905229,-0.312622070312,0.179565429688,0.848693847656,0.386901855469
26521921594,-0.307373046875,0.16943359375,0.849853515625,0.39306640625
26521951571,-0.301696777344,0.159729003906,0.850646972656,0.399780273438
26521965174,-0.295104980469,0.151550292969,0.851013183594,0.406982421875
26521981532,-0.287536621094,0.144165039062,0.851257324219,0.414489746094
26522004073,-0.279235839844,0.136413574219,0.851623535156,0.422058105469
26522025254,-0.271606445312,0.127319335938,0.851989746094,0.429016113281
26522041557,-0.264587402344,0.117858886719,0.852416992188,0.435302734375
26522064157,-0.257202148438,0.107604980469,0.852905273438,0.441223144531
26522085222,-0.24951171875,0.096435546875,0.853332519531,0.447387695312
26522101569,-0.241516113281,0.0856323242188,0.853515625,0.453674316406
26522106966,-0.232971191406,0.0765991210938,0.853515625,0.459716796875
26522129551,-0.223754882812,0.0682983398438,0.853393554688,0.465759277344
26522152074,-0.214233398438,0.05908203125,0.853210449219,0.471801757812
26522167073,-0.20458984375,0.049072265625,0.852844238281,0.477844238281
26522189599,-0.194519042969,0.0399780273438,0.852172851562,0.484008789062
26522212065,-0.184143066406,0.0321655273438,0.851501464844,0.489807128906
26522226983,-0.173828125,0.023193359375,0.850708007812,0.495483398438
26522249535,-0.163513183594,0.0137939453125,0.849609375,0.501220703125
26522272082,-0.153381347656,0.00457763671875,0.848449707031,0.506469726562
26522287094,-0.143188476562,-0.00396728515625,0.847534179688,0.510986328125
26522309566,-0.133239746094,-0.0118408203125,0.846496582031,0.515197753906
26522332135,-0.124084472656,-0.0191650390625,0.845458984375,0.518981933594
26522347031,-0.115661621094,-0.0257568359375,0.844482421875,0.522216796875
26522369556,-0.10791015625,-0.0316772460938,0.843566894531,0.525024414062
26522392103,-0.101135253906,-0.0377807617188,0.842529296875,0.527648925781
26522407084,-0.0949096679688,-0.0433959960938,0.841674804688,0.529724121094
26522429651,-0.0884399414062,-0.0482177734375,0.841125488281,0.531311035156
26522452080,-0.082275390625,-0.0527954101562,0.840637207031,0.532592773438
26522467121,-0.0763549804688,-0.0574951171875,0.840026855469,0.533935546875
26522489459,-0.0704345703125,-0.0619506835938,0.839233398438,0.535522460938
26522511972,-0.06494140625,-0.065673828125,0.838562011719,0.536865234375
26522527121,-0.0597534179688,-0.0684204101562,0.838073730469,0.537902832031
26522549585,-0.0546875,-0.071533203125,0.837341308594,0.539123535156
26522567407,-0.0503540039062,-0.0758666992188,0.83642578125,0.540405273438
26522587085,-0.046142578125,-0.0804443359375,0.835693359375,0.541198730469
26522609536,-0.0416870117188,-0.0841674804688,0.835266113281,0.541687011719
26522627348,-0.037109375,-0.0865478515625,0.834777832031,0.542419433594
26522647071,-0.0325317382812,-0.0880126953125,0.834167480469,0.54345703125
26522669604,-0.028564453125,-0.0899047851562,0.833557128906,0.544250488281
26522687382,-0.0252685546875,-0.09228515625,0.833190917969,0.544555664062
26522707078,-0.0220947265625,-0.0938720703125,0.832946777344,0.544860839844
26522729674,-0.0192260742188,-0.0953369140625,0.832580566406,0.545166015625
26522747367,-0.0165405273438,-0.097412109375,0.831970214844,0.545837402344
26522767054,-0.0140380859375,-0.100158691406,0.831237792969,0.546569824219
26522789581,-0.0115356445312,-0.10302734375,0.830688476562,0.546936035156
26522807392,-0.0084228515625,-0.10498046875,0.830322265625,0.547180175781
26522827045,-0.00482177734375,-0.105651855469,0.829956054688,0.547668457031
26522849548,-0.001220703125,-0.1064453125,0.829406738281,0.54833984375
26522867358,0.001953125,-0.108093261719,0.828796386719,0.548950195312
26522887059,0.00482177734375,-0.110290527344,0.828369140625,0.549072265625
26522909600,0.00799560546875,-0.112121582031,0.828247070312,0.548889160156
26522927379,0.01171875,-0.113098144531,0.828125,0.548828125
26522947134,0.0154418945312,-0.113891601562,0.827697753906,0.549194335938
26522969616,0.0187377929688,-0.114685058594,0.827209472656,0.549682617188
26522987402,0.0217895507812,-0.117736816406,0.826477050781,0.550048828125
26523007047,0.023193359375,-0.116455078125,0.825988769531,0.550964355469
26523029456,0.0249633789062,-0.114074707031,0.826171875,0.551086425781
26523047416,0.0255737304688,-0.113891601562,0.826293945312,0.550903320312
26523067156,0.0262451171875,-0.115112304688,0.826293945312,0.550659179688
26523089574,0.0277099609375,-0.116638183594,0.826171875,0.550476074219
26523107381,0.0287475585938,-0.118286132812,0.825805664062,0.550598144531
26523127051,0.0293579101562,-0.120239257812,0.825378417969,0.55078125
26523149475,0.0299682617188,-0.1220703125,0.824951171875,0.551025390625
26523167353,0.0305786132812,-0.123474121094,0.824645996094,0.551025390625
26523188452,0.0313110351562,-0.123840332031,0.82470703125,0.550903320312
26523209617,0.0322265625,-0.123413085938,0.824829101562,0.550720214844
26523227380,0.033447265625,-0.123107910156,0.824829101562,0.55078125
26523248385,0.0346069335938,-0.123229980469,0.824584960938,0.551025390625
26523269577,0.0352172851562,-0.123596191406,0.82421875,0.551452636719
26523287354,0.0354614257812,-0.123962402344,0.823913574219,0.551818847656
26523308372,0.0355834960938,-0.123840332031,0.823852539062,0.551879882812
26523329595,0.0359497070312,-0.123168945312,0.823852539062,0.552001953125
26523347410,0.036376953125,-0.122497558594,0.823852539062,0.552124023438
26523368391,0.0365600585938,-0.122375488281,0.82373046875,0.552307128906
26523389610,0.0364990234375,-0.122680664062,0.823608398438,0.552429199219
26523407346,0.0366821289062,-0.122924804688,0.823547363281,0.552490234375
26523428369,0.037109375,-0.122985839844,0.823547363281,0.552429199219
26523449611,0.03759765625,-0.122985839844,0.823547363281,0.552429199219
26523467455,0.0379638671875,-0.123168945312,0.823486328125,0.552429199219
26523488407,0.0383911132812,-0.123229980469,0.823425292969,0.552429199219
26523509658,0.0388793945312,-0.123229980469,0.823364257812,0.552490234375
26523527339,0.0392456054688,-0.123229980469,0.8232421875,0.552673339844
26523548374,0.0392456054688,-0.123413085938,0.823181152344,0.552795410156
26523564921,0.0394897460938,-0.123352050781,0.823059082031,0.552856445312
26523587361,0.0399780273438,-0.122985839844,0.822998046875,0.553039550781
26523609901,0.0404663085938,-0.12255859375,0.822937011719,0.553161621094
26523624813,0.0410766601562,-0.122131347656,0.822937011719,0.55322265625
26523647355,0.0416870117188,-0.121948242188,0.822875976562,0.553344726562
26523669832,0.0420532226562,-0.121887207031,0.82275390625,0.553466796875
26523690257,0.0421752929688,-0.122009277344,0.822631835938,0.553649902344
26523706570,0.0419921875,-0.122253417969,0.822448730469,0.553894042969
26523729027,0.0419311523438,-0.122314453125,0.822265625,0.554138183594
26523750294,0.0420532226562,-0.122009277344,0.822143554688,0.554382324219
26523766569,0.0419921875,-0.121643066406,0.822021484375,0.554626464844
26523789047,0.0419311523438,-0.121398925781,0.821838378906,0.554992675781
26523803372,0.0419921875,-0.121032714844,0.821716308594,0.555236816406
26523826520,0.0420532226562,-0.120544433594,0.821655273438,0.555419921875
26523849076,0.0421752929688,-0.1201171875,0.821655273438,0.555480957031
26523863384,0.042236328125,-0.1201171875,0.821655273438,0.555480957031
26523886551,0.042236328125,-0.1201171875,0.821655273438,0.555480957031
26523909070,0.042236328125,-0.1201171875,0.821655273438,0.555480957031
26523923398,0.042236328125,-0.1201171875,0.821655273438,0.555480957031
26523946563,0.0420532226562,-0.1201171875,0.821533203125,0.555725097656
26523969021,0.0419921875,-0.119934082031,0.821411132812,0.555969238281
26523983484,0.0418090820312,-0.119812011719,0.821166992188,0.556274414062
26524006565,0.0411987304688,-0.119689941406,0.820983886719,0.556701660156
26524029021,0.040283203125,-0.119445800781,0.820861816406,0.557006835938
26524043384,0.0393676757812,-0.118957519531,0.820861816406,0.55712890625
26524066523,0.0384521484375,-0.118774414062,0.820983886719,0.557067871094
26524089046,0.0377197265625,-0.119018554688,0.820983886719,0.557067871094
26524110211,0.0369873046875,-0.119689941406,0.820861816406,0.557189941406
26524126521,0.0363159179688,-0.120239257812,0.820739746094,0.557250976562
26524149054,0.0359497070312,-0.1201171875,0.820678710938,0.557373046875
26524170192,0.035400390625,-0.119934082031,0.820678710938,0.557495117188
26524186557,0.0346069335938,-0.120178222656,0.820556640625,0.557678222656
26524209022,0.0339965820312,-0.120727539062,0.820556640625,0.557495117188
26524230202,0.0324096679688,-0.121704101562,0.820739746094,0.557189941406
26524246553,0.0310668945312,-0.122192382812,0.820861816406,0.557006835938
26524269050,0.0305786132812,-0.122375488281,0.82080078125,0.557067871094
26524290015,0.0282592773438,-0.123657226562,0.8203125,0.5576171875
26524306520,0.0252075195312,-0.123718261719,0.81982421875,0.558471679688
26524329054,0.0223999023438,-0.122619628906,0.818969726562,0.56005859375
26524350299,0.0194091796875,-0.121704101562,0.817626953125,0.562377929688
26524365973,0.0139770507812,-0.122680664062,0.815979003906,0.564636230469
26524389026,0.0072021484375,-0.123840332031,0.814514160156,0.566650390625
26524410050,-0.0003662109375,-0.126037597656,0.812866210938,0.568603515625
26524425911,-0.00726318359375,-0.127868652344,0.8115234375,0.570068359375
26524449140,-0.0126953125,-0.127685546875,0.810363769531,0.571594238281
26524470232,-0.01806640625,-0.126708984375,0.809631347656,0.57275390625
26524485921,-0.0232543945312,-0.123840332031,0.809631347656,0.573181152344
26524509007,-0.02685546875,-0.119567871094,0.809631347656,0.573913574219
26524531570,-0.0299072265625,-0.115661621094,0.809326171875,0.574951171875
26524545953,-0.0343627929688,-0.112915039062,0.809448242188,0.5751953125
26524576524,-0.0398559570312,-0.111511230469,0.809387207031,0.575134277344
26524591521,-0.0451049804688,-0.109008789062,0.8095703125,0.574951171875
26524605912,-0.0502319335938,-0.105407714844,0.810119628906,0.574401855469
26524629047,-0.0562133789062,-0.101379394531,0.810607910156,0.573974609375
26524651590,-0.0623168945312,-0.0964965820312,0.811096191406,0.573425292969
26524672679,-0.0687255859375,-0.0911865234375,0.811828613281,0.572570800781
26524688993,-0.0758056640625,-0.085205078125,0.8125,0.571655273438
26524711543,-0.0830688476562,-0.078857421875,0.813232421875,0.570495605469
