30369034360,-0.7333984375,0.0258178710938,-0.679382324219,-0.0032958984375
30369055581,-0.7333984375,0.02587890625,-0.679382324219,-0.00323486328125
30369071340,-0.7314453125,0.026611328125,-0.681457519531,-0.00347900390625
30369094374,-0.731811523438,0.0266723632812,-0.681030273438,-0.0029296875
30369115675,-0.732543945312,0.0281372070312,-0.680236816406,-0.00079345703125
30369130602,-0.73681640625,0.029296875,-0.675537109375,0.000732421875
30369154352,-0.738098144531,0.0294799804688,-0.674133300781,0.0008544921875
30369175956,-0.742431640625,0.0294799804688,-0.669311523438,0.0
30369214993,-0.743530273438,0.0284423828125,-0.668151855469,-0.0018310546875
30369217051,-0.740966796875,0.0269775390625,-0.671020507812,-0.003662109375
30369229311,-0.739685058594,0.026611328125,-0.672485351562,-0.0040283203125
30369251240,-0.733825683594,0.0262451171875,-0.678894042969,-0.0042724609375
30369275060,-0.730590820312,0.0274658203125,-0.682312011719,-0.0042724609375
30369289252,-0.732482910156,0.0284423828125,-0.680236816406,-0.00335693359375
30369333048,-0.732727050781,0.0288696289062,-0.679992675781,-0.003173828125
30369343100,-0.732238769531,0.0289306640625,-0.680480957031,-0.0030517578125
30369349297,-0.732360839844,0.0289916992188,-0.680358886719,-0.0028076171875
30369371068,-0.729125976562,0.0294799804688,-0.683837890625,-0.0025634765625
30369393781,-0.72509765625,0.0317993164062,-0.68798828125,-0.000732421875
30369408086,-0.724792480469,0.0322265625,-0.688293457031,-0.0009765625
30369431060,-0.723571777344,0.0320434570312,-0.689575195312,-0.00103759765625
30369453782,-0.722595214844,0.0322265625,-0.690612792969,-0.0008544921875
30369468086,-0.723022460938,0.03369140625,-0.690063476562,0.0013427734375
30369491182,-0.727294921875,0.0350952148438,-0.685485839844,0.00286865234375
30369513560,-0.728759765625,0.03515625,-0.683898925781,0.00286865234375
30369528099,-0.732238769531,0.0342407226562,-0.680236816406,0.00115966796875
30369551097,-0.730651855469,0.03271484375,-0.682006835938,-0.00091552734375
30369573640,-0.731262207031,0.0309448242188,-0.681396484375,-0.00177001953125
30369587931,-0.733337402344,0.0296630859375,-0.679321289062,-0.00201416015625
30369611095,-0.732666015625,0.0297241210938,-0.679992675781,-0.00152587890625
30369633596,-0.733154296875,0.0293579101562,-0.679504394531,-0.00152587890625
30369649339,-0.733703613281,0.0292358398438,-0.678894042969,-0.0013427734375
30369671181,-0.733642578125,0.0291748046875,-0.678955078125,-0.00140380859375
30369693681,-0.733642578125,0.0292358398438,-0.678955078125,-0.00140380859375
30369709341,-0.733642578125,0.0291748046875,-0.678955078125,-0.00140380859375
30369731063,-0.733642578125,0.0291748046875,-0.678955078125,-0.00140380859375
30369753590,-0.733642578125,0.0291748046875,-0.678955078125,-0.00140380859375
30369769342,-0.733642578125,0.0291748046875,-0.678955078125,-0.00140380859375
30369791152,-0.733642578125,0.0291748046875,-0.678955078125,-0.00140380859375
30369813568,-0.733642578125,0.0291748046875,-0.679016113281,-0.00146484375
30369829325,-0.733581542969,0.0291748046875,-0.679016113281,-0.00146484375
30369851163,-0.733581542969,0.0291137695312,-0.679016113281,-0.00146484375
30369873688,-0.733581542969,0.0291137695312,-0.679016113281,-0.00146484375
30369889341,-0.733581542969,0.0291137695312,-0.679016113281,-0.00146484375
30369911155,-0.733581542969,0.0291137695312,-0.679016113281,-0.00152587890625
30369933518,-0.733581542969,0.0291137695312,-0.679077148438,-0.00152587890625
30369949362,-0.733581542969,0.0291137695312,-0.679077148438,-0.00152587890625
30369970338,-0.733581542969,0.029052734375,-0.679077148438,-0.00152587890625
30369993645,-0.733581542969,0.029052734375,-0.679077148438,-0.00152587890625
30370009293,-0.733520507812,0.029052734375,-0.679077148438,-0.0015869140625
30370030384,-0.733581542969,0.029052734375,-0.679077148438,-0.0015869140625
30370053662,-0.733520507812,0.029052734375,-0.679077148438,-0.0015869140625
30370069325,-0.733520507812,0.0289916992188,-0.679077148438,-0.0015869140625
30370090471,-0.733520507812,0.0289916992188,-0.679077148438,-0.0015869140625
30370113619,-0.733520507812,0.0289916992188,-0.679077148438,-0.00164794921875
30370129332,-0.733520507812,0.0289916992188,-0.679077148438,-0.00164794921875
30370150508,-0.733520507812,0.0289306640625,-0.679077148438,-0.00164794921875
30370181049,-0.733520507812,0.0289306640625,-0.679138183594,-0.00164794921875
30370189302,-0.733520507812,0.0289306640625,-0.679138183594,-0.00164794921875
30370210505,-0.733520507812,0.0289306640625,-0.679138183594,-0.001708984375
30370226862,-0.733520507812,0.0289306640625,-0.679138183594,-0.001708984375
30370249353,-0.733520507812,0.0288696289062,-0.679138183594,-0.001708984375
30370270578,-0.733459472656,0.0288696289062,-0.679138183594,-0.001708984375
30370286764,-0.733459472656,0.0288696289062,-0.67919921875,-0.001708984375
30370309297,-0.733459472656,0.0288696289062,-0.67919921875,-0.00177001953125
30370331846,-0.733459472656,0.0288696289062,-0.67919921875,-0.00177001953125
30370355017,-0.733459472656,0.02880859375,-0.67919921875,-0.00177001953125
30370369328,-0.733459472656,0.02880859375,-0.67919921875,-0.0018310546875
30370391824,-0.733459472656,0.02880859375,-0.67919921875,-0.0018310546875
30370414966,-0.7333984375,0.02880859375,-0.67919921875,-0.0018310546875
30370429297,-0.7333984375,0.02880859375,-0.679260253906,-0.0018310546875
30370451805,-0.7333984375,0.0287475585938,-0.679260253906,-0.0018310546875
30370474921,-0.7333984375,0.0287475585938,-0.679260253906,-0.0018310546875
30370489285,-0.7333984375,0.0287475585938,-0.679260253906,-0.0018310546875
30370511823,-0.7333984375,0.0287475585938,-0.679260253906,-0.0018310546875
30370534966,-0.7333984375,0.0287475585938,-0.679260253906,-0.00189208984375
30370549316,-0.7333984375,0.0287475585938,-0.679260253906,-0.00189208984375
30370571823,-0.7333984375,0.0287475585938,-0.679260253906,-0.00189208984375
30370594942,-0.7333984375,0.0286865234375,-0.679260253906,-0.00189208984375
30370609371,-0.7333984375,0.0286865234375,-0.679260253906,-0.001953125
30370631822,-0.7333984375,0.0286865234375,-0.679260253906,-0.001953125
30370655372,-0.733337402344,0.0286865234375,-0.679321289062,-0.001953125
30370676158,-0.733337402344,0.0286254882812,-0.679321289062,-0.001953125
30370691906,-0.733337402344,0.0286254882812,-0.679321289062,-0.00201416015625
30370714968,-0.733337402344,0.0286254882812,-0.679321289062,-0.00201416015625
30370736126,-0.733337402344,0.0286254882812,-0.679321289062,-0.00201416015625
30370751797,-0.733337402344,0.028564453125,-0.679321289062,-0.00201416015625
30370774963,-0.733337402344,0.028564453125,-0.679321289062,-0.0020751953125
30370796176,-0.733337402344,0.028564453125,-0.679321289062,-0.0020751953125
30370811828,-0.733337402344,0.028564453125,-0.679321289062,-0.0020751953125
30370834965,-0.733337402344,0.0285034179688,-0.679321289062,-0.0020751953125
30370856149,-0.733337402344,0.0285034179688,-0.679321289062,-0.00213623046875
30370871800,-0.733337402344,0.0285034179688,-0.679321289062,-0.00213623046875
30370894963,-0.733337402344,0.0285034179688,-0.679321289062,-0.00213623046875
30370916146,-0.733337402344,0.0285034179688,-0.679321289062,-0.00213623046875
30370931837,-0.733337402344,0.0284423828125,-0.679321289062,-0.00213623046875
30370954323,-0.733337402344,0.0284423828125,-0.679321289062,-0.002197265625
30370976015,-0.733337402344,0.0284423828125,-0.679321289062,-0.002197265625
30370991775,-0.733337402344,0.0284423828125,-0.679321289062,-0.002197265625
30371014321,-0.733337402344,0.0284423828125,-0.679321289062,-0.002197265625
30371036099,-0.733276367188,0.0283813476562,-0.679382324219,-0.00225830078125
30371051048,-0.733337402344,0.0283813476562,-0.679382324219,-0.00225830078125
30371065348,-0.733276367188,0.0283813476562,-0.679382324219,-0.00225830078125
30371087963,-0.733276367188,0.0283813476562,-0.679382324219,-0.00225830078125
30371111098,-0.733276367188,0.0283813476562,-0.679382324219,-0.0023193359375
30371125420,-0.733276367188,0.0283203125,-0.679382324219,-0.0023193359375
30371147891,-0.733276367188,0.0283203125,-0.679382324219,-0.0023193359375
30371171094,-0.733276367188,0.0283203125,-0.679382324219,-0.0023193359375
30371185476,-0.733276367188,0.0282592773438,-0.679382324219,-0.00238037109375
30371207947,-0.733276367188,0.0282592773438,-0.679382324219,-0.00238037109375
30371231031,-0.733276367188,0.0282592773438,-0.679443359375,-0.00238037109375
30371245471,-0.733215332031,0.0282592773438,-0.679443359375,-0.00238037109375
30371268011,-0.733215332031,0.0282592773438,-0.679443359375,-0.00244140625
30371291093,-0.733215332031,0.0281982421875,-0.679443359375,-0.00244140625
30371305465,-0.733215332031,0.0281982421875,-0.679443359375,-0.00244140625
30371327953,-0.733215332031,0.0281982421875,-0.679443359375,-0.00244140625
30371351054,-0.733215332031,0.0281982421875,-0.679443359375,-0.00244140625
30371365447,-0.733215332031,0.0281982421875,-0.679443359375,-0.00250244140625
30371387962,-0.733215332031,0.0281372070312,-0.679504394531,-0.00250244140625
30371411098,-0.733215332031,0.0281372070312,-0.679504394531,-0.00250244140625
30371425416,-0.733215332031,0.0281372070312,-0.679504394531,-0.00250244140625
30371447835,-0.733215332031,0.0281372070312,-0.679504394531,-0.0025634765625
30371471006,-0.733154296875,0.028076171875,-0.679504394531,-0.0025634765625
30371485337,-0.733154296875,0.028076171875,-0.679504394531,-0.0025634765625
30371508080,-0.733154296875,0.028076171875,-0.679504394531,-0.0025634765625
30371531046,-0.733154296875,0.028076171875,-0.679504394531,-0.00262451171875
30371545480,-0.733154296875,0.028076171875,-0.679504394531,-0.00262451171875
30371567925,-0.733154296875,0.0280151367188,-0.679504394531,-0.00262451171875
30371591067,-0.733154296875,0.0280151367188,-0.679565429688,-0.00262451171875
30371605428,-0.733154296875,0.0280151367188,-0.679504394531,-0.002685546875
30371627893,-0.733154296875,0.0280151367188,-0.679565429688,-0.002685546875
30371650428,-0.733154296875,0.0279541015625,-0.679565429688,-0.002685546875
30371665374,-0.733154296875,0.0279541015625,-0.679565429688,-0.002685546875
30371687986,-0.733154296875,0.0279541015625,-0.679565429688,-0.002685546875
30371711101,-0.733154296875,0.0279541015625,-0.679565429688,-0.00274658203125
30371725380,-0.733154296875,0.0279541015625,-0.679565429688,-0.00274658203125
30371747857,-0.733154296875,0.0278930664062,-0.679565429688,-0.00274658203125
30371771126,-0.733154296875,0.0278930664062,-0.679565429688,-0.00274658203125
30371785450,-0.733093261719,0.0278930664062,-0.679565429688,-0.0028076171875
30371807971,-0.733093261719,0.0278930664062,-0.679565429688,-0.0028076171875
30371831112,-0.733093261719,0.0278930664062,-0.679565429688,-0.0028076171875
30371845388,-0.733093261719,0.0278930664062,-0.679565429688,-0.0028076171875
30371867966,-0.733093261719,0.02783203125,-0.679565429688,-0.0028076171875
30371891066,-0.733093261719,0.02783203125,-0.679565429688,-0.00286865234375
30371905446,-0.733093261719,0.02783203125,-0.679626464844,-0.00286865234375
30371927951,-0.733093261719,0.02783203125,-0.679626464844,-0.00286865234375
30371951165,-0.733093261719,0.02783203125,-0.679626464844,-0.00286865234375
30371965380,-0.733093261719,0.0277709960938,-0.679626464844,-0.00286865234375
30371987796,-0.733093261719,0.0277709960938,-0.679626464844,-0.0029296875
30372010552,-0.733093261719,0.0277709960938,-0.679626464844,-0.0029296875
30372025453,-0.733093261719,0.0277709960938,-0.679626464844,-0.0029296875
30372047952,-0.733093261719,0.0277099609375,-0.679626464844,-0.0029296875
30372064329,-0.733093261719,0.0277099609375,-0.679626464844,-0.00299072265625
30372085502,-0.733093261719,0.0277099609375,-0.679626464844,-0.00299072265625
30372107976,-0.733093261719,0.0277099609375,-0.679626464844,-0.00299072265625
30372124268,-0.733093261719,0.0276489257812,-0.679626464844,-0.00299072265625
30372145549,-0.733093261719,0.0276489257812,-0.679626464844,-0.0030517578125
30372167853,-0.733093261719,0.0276489257812,-0.679626464844,-0.0030517578125
30372184272,-0.733093261719,0.0276489257812,-0.679626464844,-0.0030517578125
30372205271,-0.733093261719,0.0276489257812,-0.679626464844,-0.0030517578125
30372227936,-0.733093261719,0.0276489257812,-0.679626464844,-0.0030517578125
30372244294,-0.733032226562,0.027587890625,-0.6796875,-0.0030517578125
30372265344,-0.733032226562,0.027587890625,-0.6796875,-0.00311279296875
30372287953,-0.733032226562,0.027587890625,-0.6796875,-0.00311279296875
30372304298,-0.733032226562,0.027587890625,-0.6796875,-0.00311279296875
30372325421,-0.733032226562,0.027587890625,-0.6796875,-0.00311279296875
30372347971,-0.733032226562,0.0275268554688,-0.6796875,-0.003173828125
30372364243,-0.733032226562,0.0275268554688,-0.6796875,-0.003173828125
30372385460,-0.733032226562,0.0275268554688,-0.6796875,-0.003173828125
30372407973,-0.733032226562,0.0275268554688,-0.6796875,-0.003173828125
30372424367,-0.733032226562,0.0275268554688,-0.6796875,-0.003173828125
30372445457,-0.733032226562,0.0274658203125,-0.6796875,-0.00323486328125
30372467926,-0.733032226562,0.0274658203125,-0.679748535156,-0.00323486328125
30372484251,-0.733032226562,0.0274658203125,-0.679748535156,-0.00323486328125
30372505360,-0.733032226562,0.0274658203125,-0.679748535156,-0.00323486328125
30372527929,-0.733032226562,0.0274047851562,-0.679748535156,-0.0032958984375
30372544302,-0.733032226562,0.0274047851562,-0.679748535156,-0.0032958984375
30372565328,-0.733032226562,0.0274047851562,-0.679748535156,-0.0032958984375
30372587945,-0.733032226562,0.0274047851562,-0.679748535156,-0.0032958984375
30372604293,-0.733032226562,0.0274047851562,-0.679748535156,-0.0032958984375
30372625454,-0.732971191406,0.0274047851562,-0.679748535156,-0.00335693359375
30372647874,-0.732971191406,0.02734375,-0.679748535156,-0.00335693359375
30372664245,-0.732971191406,0.02734375,-0.679748535156,-0.00335693359375
30372685475,-0.732971191406,0.02734375,-0.679748535156,-0.00335693359375
30372707890,-0.732971191406,0.02734375,-0.679748535156,-0.00335693359375
30372724266,-0.732971191406,0.02734375,-0.679748535156,-0.00341796875
30372745422,-0.732971191406,0.0272827148438,-0.679748535156,-0.00341796875
30372767929,-0.732971191406,0.0272827148438,-0.679748535156,-0.00341796875
30372784276,-0.732971191406,0.0272827148438,-0.679748535156,-0.00341796875
