28387280492,0.01708984375,-0.52978515625,0.81884765625
28387304255,0.01416015625,-0.52978515625,0.82177734375
28387325484,0.150390625,-0.60498046875,1.00146484375
28387340617,-0.07568359375,-0.830078125,1.275390625
28387371769,0.2841796875,-0.685546875,1.34912109375
28387386768,-0.31396484375,-0.82177734375,1.13134765625
28387401700,-0.59130859375,-0.611328125,0.45166015625
28387423018,0.15771484375,-0.255859375,0.39208984375
28387446789,0.6572265625,-0.38671875,1.095703125
28387477427,-0.01513671875,-0.7724609375,1.29541015625
28387479580,-0.634765625,-0.7080078125,0.60009765625
28387499822,-0.01806640625,-0.3017578125,0.3125
28387531220,-0.28369140625,-0.39794921875,0.5302734375
28387535470,-0.02587890625,-0.52978515625,0.78466796875
28387559917,0.0185546875,-0.53564453125,0.82080078125
28387578264,0.01220703125,-0.52978515625,0.8203125
28387627159,0.02099609375,-0.5302734375,0.8134765625
28387627909,0.09326171875,-0.53955078125,0.8271484375
28387635517,-0.421875,-0.41748046875,0.52490234375
28387649214,-0.109375,-0.80712890625,1.24560546875
28387671030,-0.4619140625,-0.810546875,0.9853515625
28387692837,-0.53369140625,-0.5478515625,0.3740234375
28387707903,0.2734375,-0.24365234375,0.44921875
28387730221,0.63232421875,-0.43994140625,1.16162109375
28387752845,-0.12158203125,-0.80517578125,1.25
28387775282,-0.62451171875,-0.66455078125,0.50830078125
28387790367,0.08544921875,-0.27978515625,0.3486328125
28387829918,0.53759765625,-0.34765625,0.82568359375
28387832192,-0.08056640625,-0.4638671875,0.72607421875
28387853186,0.0380859375,-0.52978515625,0.79736328125
28387882372,0.01806640625,-0.52880859375,0.8134765625
28387889228,0.017578125,-0.53466796875,0.81494140625
28387910327,0.01953125,-0.53125,0.8154296875
28387932795,0.015625,-0.53271484375,0.81591796875
28387949195,0.01318359375,-0.5341796875,0.8203125
28387977881,0.01220703125,-0.529296875,0.8125
28388000983,0.013671875,-0.53125,0.8134765625
28388009222,0.01806640625,-0.53515625,0.814453125
28388030513,0.01513671875,-0.53271484375,0.8134765625
28388054194,0.02099609375,-0.5439453125,0.8173828125
28388069208,0.02490234375,-0.53955078125,0.8173828125
28388090364,0.0185546875,-0.53271484375,0.8232421875
28388112778,0.0234375,-0.5419921875,0.83935546875
28388130650,0.02099609375,-0.5361328125,0.83056640625
28388150415,0.01416015625,-0.53125,0.8408203125
28388172909,0.0205078125,-0.5439453125,0.83642578125
28388190680,0.03369140625,-0.54443359375,0.84814453125
28388210385,0.013671875,-0.54052734375,0.8251953125
28388234180,-0.01416015625,-0.51220703125,0.8125
28388250681,-0.02490234375,-0.5166015625,0.826171875
28388277772,-0.017578125,-0.53662109375,0.8232421875
28388292872,-0.0146484375,-0.53857421875,0.8271484375
28388310684,-0.02099609375,-0.53466796875,0.8330078125
28388333199,-0.03076171875,-0.5419921875,0.8212890625
28388354185,-0.03125,-0.5537109375,0.828125
28388370741,-0.033203125,-0.5478515625,0.83837890625
28388390370,-0.0341796875,-0.54736328125,0.84912109375
28388413025,-0.0458984375,-0.54248046875,0.83740234375
28388430621,-0.06103515625,-0.55078125,0.8330078125
28388457932,-0.08837890625,-0.54443359375,0.84130859375
28388480523,-0.10546875,-0.53955078125,0.83837890625
28388490676,-0.12109375,-0.5087890625,0.8525390625
28388510290,-0.11328125,-0.51416015625,0.86279296875
28388535659,-0.125,-0.50146484375,0.845703125
28388556696,-0.14501953125,-0.48876953125,0.84423828125
28388570265,-0.18798828125,-0.51220703125,0.8388671875
28388592766,-0.189453125,-0.51025390625,0.84326171875
28388609212,-0.2021484375,-0.52490234375,0.83154296875
28388632909,-0.2197265625,-0.501953125,0.82275390625
28388653430,-0.248046875,-0.4931640625,0.82666015625
28388669214,-0.2783203125,-0.49609375,0.81201171875
28388692347,-0.29345703125,-0.48974609375,0.8173828125
28388714924,-0.33203125,-0.50537109375,0.81591796875
28388737316,-0.28955078125,-0.44287109375,0.7919921875
28388759900,-0.34130859375,-0.38720703125,0.77734375
28388774927,-0.4013671875,-0.36279296875,0.7626953125
28388789193,-0.4248046875,-0.34814453125,0.78125
28388812346,-0.4130859375,-0.37548828125,0.78125
28388834915,-0.4501953125,-0.38623046875,0.74462890625
28388849193,-0.4814453125,-0.3916015625,0.7392578125
28388872344,-0.49853515625,-0.40771484375,0.7373046875
28388894814,-0.52099609375,-0.40185546875,0.72705078125
28388916071,-0.53515625,-0.384765625,0.7099609375
28388939926,-0.55517578125,-0.375,0.7119140625
28388962378,-0.5712890625,-0.3515625,0.69970703125
28388993043,-0.58837890625,-0.32666015625,0.69970703125
28388995366,-0.6083984375,-0.31884765625,0.69140625
28389014930,-0.6240234375,-0.32470703125,0.66357421875
28389036000,-0.64404296875,-0.31201171875,0.658203125
28389052371,-0.6650390625,-0.2890625,0.6484375
28389074984,-0.681640625,-0.28759765625,0.63427734375
28389096029,-0.701171875,-0.28857421875,0.599609375
28389112319,-0.712890625,-0.27099609375,0.63037109375
28389142363,-0.71826171875,-0.2431640625,0.62255859375
28389163466,-0.72900390625,-0.2294921875,0.5947265625
28389172368,-0.75439453125,-0.224609375,0.587890625
28389194966,-0.7568359375,-0.2001953125,0.58154296875
28389216095,-0.7646484375,-0.19970703125,0.5859375
28389239813,-0.787109375,-0.20361328125,0.5830078125
28389262398,-0.7958984375,-0.189453125,0.5615234375
28389283489,-0.79931640625,-0.154296875,0.52099609375
28389292371,-0.82958984375,-0.13720703125,0.5263671875
28389315365,-0.82568359375,-0.134765625,0.52978515625
28389344929,-0.8193359375,-0.13720703125,0.5234375
28389367365,-0.8212890625,-0.15234375,0.5341796875
28389374935,-0.85498046875,-0.1376953125,0.4853515625
28389396113,-0.85986328125,-0.1142578125,0.46044921875
28389412822,-0.86181640625,-0.10205078125,0.45703125
28389434845,-0.87109375,-0.14794921875,0.49072265625
28389463499,-0.87109375,-0.16650390625,0.45166015625
28389472374,-0.876953125,-0.13623046875,0.42529296875
28389494899,-0.8876953125,-0.119140625,0.46630859375
28389517330,-0.87744140625,-0.1337890625,0.44677734375
28389547303,-0.89208984375,-0.109375,0.44921875
28389554836,-0.884765625,-0.12353515625,0.4560546875
28389576049,-0.86328125,-0.1298828125,0.46826171875
28389591706,-0.88427734375,-0.1171875,0.47021484375
28389622793,-0.90185546875,-0.09375,0.43310546875
28389637119,-0.92529296875,-0.07763671875,0.4228515625
28389651675,-0.90234375,-0.04345703125,0.40185546875
28389674828,-0.90185546875,-0.0361328125,0.41259765625
28389697820,-0.908203125,-0.0087890625,0.40283203125
28389721328,-0.89892578125,-0.03466796875,0.408203125
28389742995,-0.90283203125,-0.0419921875,0.42578125
28389757089,-0.87744140625,-0.0458984375,0.4453125
28389771760,-0.90185546875,-0.0302734375,0.4326171875
28389794803,-0.90576171875,-0.0361328125,0.4287109375
28389825342,-0.88818359375,-0.0625,0.4375
28389847399,-0.89990234375,-0.05126953125,0.43212890625
28389854815,-0.89306640625,-0.06689453125,0.46435546875
28389877398,-0.89453125,-0.06689453125,0.44140625
28389900304,-0.89306640625,-0.05419921875,0.43896484375
28389914910,-0.88818359375,-0.07177734375,0.453125
28389944840,-0.8857421875,-0.06201171875,0.45947265625
28389951672,-0.890625,-0.0615234375,0.455078125
28389974794,-0.88671875,-0.0556640625,0.44970703125
28389997353,-0.8837890625,-0.060546875,0.44140625
28390027392,-0.87451171875,-0.0458984375,0.46630859375
28390034916,-0.89599609375,-0.05029296875,0.45263671875
28390057312,-0.88427734375,-0.04736328125,0.4462890625
28390071650,-0.884765625,-0.07080078125,0.447265625
28390100944,-0.88623046875,-0.0615234375,0.46142578125
28390117382,-0.88623046875,-0.056640625,0.45947265625
28390131697,-0.89208984375,-0.05859375,0.44677734375
28390154917,-0.892578125,-0.06005859375,0.44873046875
28390177298,-0.892578125,-0.06005859375,0.44677734375
28390198529,-0.8916015625,-0.05859375,0.45166015625
28390222968,-0.89111328125,-0.05859375,0.44677734375
28390252999,-0.87841796875,-0.072265625,0.47119140625
28390258532,-0.890625,-0.0537109375,0.45166015625
28390274911,-0.9013671875,-0.04052734375,0.435546875
28390305389,-0.88916015625,-0.07763671875,0.45947265625
28390327330,-0.8798828125,-0.083984375,0.46484375
28390334825,-0.88916015625,-0.0517578125,0.44677734375
28390357371,-0.89111328125,-0.03466796875,0.44677734375
28390379824,-0.8828125,-0.05615234375,0.45849609375
28390395286,-0.880859375,-0.0517578125,0.45947265625
28390423512,-0.88330078125,-0.044921875,0.47021484375
28390455507,-0.88623046875,-0.06201171875,0.4599609375
28390457863,-0.87744140625,-0.072265625,0.46142578125
28390477321,-0.87744140625,-0.0673828125,0.46630859375
28390499925,-0.884765625,-0.06591796875,0.46875
28390514919,-0.8798828125,-0.056640625,0.46044921875
28390537302,-0.8857421875,-0.05224609375,0.4619140625
28390558496,-0.86767578125,-0.0712890625,0.470703125
28390574921,-0.88427734375,-0.0556640625,0.4609375
28390597300,-0.87548828125,-0.06689453125,0.47119140625
28390627310,-0.88232421875,-0.0654296875,0.4599609375
28390634841,-0.87841796875,-0.06591796875,0.4736328125
28390657292,-0.8740234375,-0.078125,0.47509765625
28390679812,-0.87158203125,-0.0673828125,0.4716796875
28390694848,-0.8818359375,-0.0595703125,0.46435546875
28390717345,-0.87890625,-0.0810546875,0.46875
28390739827,-0.8671875,-0.091796875,0.48828125
28390754137,-0.87548828125,-0.06201171875,0.4794921875
28390777266,-0.86962890625,-0.068359375,0.47900390625
28390799812,-0.87841796875,-0.0771484375,0.47802734375
28390814172,-0.865234375,-0.076171875,0.49365234375
28390837326,-0.8662109375,-0.07763671875,0.48046875
28390859923,-0.87255859375,-0.0615234375,0.466796875
28390882273,-0.8779296875,-0.07568359375,0.4794921875
28390904929,-0.87158203125,-0.080078125,0.48388671875
28390926092,-0.87158203125,-0.07470703125,0.484375
28390934165,-0.87890625,-0.060546875,0.47900390625
28390957345,-0.873046875,-0.06787109375,0.47119140625
28390979804,-0.8779296875,-0.078125,0.482421875
28390994168,-0.876953125,-0.068359375,0.48046875
28391017325,-0.8720703125,-0.068359375,0.48046875
28391039823,-0.880859375,-0.07421875,0.4775390625
28391054149,-0.8642578125,-0.0830078125,0.49658203125
28391085369,-0.86474609375,-0.060546875,0.48974609375
28391099828,-0.86474609375,-0.0673828125,0.4853515625
28391128632,-0.8642578125,-0.06689453125,0.49267578125
28391137285,-0.87158203125,-0.0498046875,0.47802734375
28391159816,-0.87353515625,-0.0703125,0.4765625
28391180971,-0.853515625,-0.0791015625,0.50390625
28391204789,-0.87451171875,-0.0634765625,0.48779296875
28391220022,-0.86962890625,-0.07275390625,0.4765625
28391241007,-0.89599609375,-0.06396484375,0.45263671875
28391257326,-0.8818359375,-0.07763671875,0.46435546875
28391279798,-0.8798828125,-0.06982421875,0.4677734375
28391308505,-0.8916015625,-0.076171875,0.4482421875
28391317332,-0.8681640625,-0.0888671875,0.4873046875
28391339804,-0.8564453125,-0.0986328125,0.5068359375
28391361025,-0.865234375,-0.07666015625,0.494140625
28391377996,-0.85693359375,-0.0712890625,0.48681640625
28391407297,-0.86865234375,-0.07958984375,0.4814453125
28391420918,-0.86376953125,-0.07470703125,0.49267578125
28391437327,-0.87158203125,-0.06298828125,0.4794921875
28391459822,-0.8779296875,-0.04150390625,0.47021484375
28391482290,-0.86865234375,-0.05908203125,0.48486328125
28391497283,-0.84423828125,-0.0966796875,0.5126953125
28391519821,-0.8515625,-0.07177734375,0.50390625
28391540951,-0.86865234375,-0.07373046875,0.49609375
28391564806,-0.84765625,-0.08935546875,0.50830078125
28391587294,-0.84130859375,-0.09130859375,0.5244140625
28391609845,-0.85595703125,-0.0771484375,0.505859375
28391617271,-0.8603515625,-0.06494140625,0.4912109375
28391622797,-0.873046875,-0.06787109375,0.48046875
28391645363,-0.86865234375,-0.0654296875,0.47900390625
28391667941,-0.87744140625,-0.07470703125,0.46435546875
28391685634,-0.88134765625,-0.064453125,0.4521484375
28391705295,-0.8779296875,-0.07177734375,0.45166015625
28391727811,-0.8681640625,-0.0703125,0.47119140625
28391742740,-0.86083984375,-0.07763671875,0.47607421875
28391765304,-0.8505859375,-0.0908203125,0.513671875
28391787783,-0.8779296875,-0.07421875,0.46875
28391811742,-0.87158203125,-0.0537109375,0.46142578125
28391841654,-0.85791015625,-0.0693359375,0.48974609375
28391864843,-0.88427734375,-0.09716796875,0.50146484375
28391867159,-0.85498046875,-0.08740234375,0.5048828125
28391885303,-0.85888671875,-0.06787109375,0.4892578125
28391910656,-0.84716796875,-0.05859375,0.52294921875
28391939039,-0.8369140625,-0.06689453125,0.5302734375
28391945305,-0.8271484375,-0.06787109375,0.548828125
28391970685,-0.83837890625,-0.08447265625,0.53173828125
28391984123,-0.8291015625,-0.07080078125,0.5205078125
28392005192,-0.84130859375,-0.06884765625,0.5234375
28392027836,-0.83544921875,-0.06787109375,0.54541015625
28392044150,-0.84765625,-0.09130859375,0.53271484375
28392065331,-0.8251953125,-0.1025390625,0.53125
28392087794,-0.8212890625,-0.08251953125,0.5341796875
28392119118,-0.83203125,-0.1064453125,0.5283203125
28392132849,-0.81103515625,-0.1025390625,0.5439453125
28392147739,-0.80517578125,-0.08544921875,0.56982421875
28392164152,-0.79541015625,-0.08447265625,0.56982421875
28392192805,-0.80810546875,-0.09912109375,0.5830078125
28392218754,-0.7958984375,-0.12646484375,0.5810546875
28392224216,-0.7744140625,-0.119140625,0.556640625
28392245304,-0.771484375,-0.12646484375,0.57568359375
28392270561,-0.77099609375,-0.1611328125,0.59765625
28392284087,-0.77734375,-0.185546875,0.599609375
28392305166,-0.7626953125,-0.169921875,0.5859375
28392327788,-0.7470703125,-0.16162109375,0.59619140625
28392344127,-0.72998046875,-0.177734375,0.6103515625
28392365323,-0.72607421875,-0.16455078125,0.6201171875
28392395981,-0.71875,-0.18017578125,0.6376953125
28392404147,-0.69140625,-0.2109375,0.6396484375
28392425412,-0.67529296875,-0.22509765625,0.6357421875
28392447781,-0.64697265625,-0.22998046875,0.654296875
28392464176,-0.6201171875,-0.25390625,0.70556640625
28392485373,-0.60888671875,-0.26611328125,0.70458984375
28392507643,-0.595703125,-0.2548828125,0.69873046875
28392525565,-0.56787109375,-0.25,0.7138671875
28392545235,-0.54345703125,-0.26416015625,0.7236328125
28392567765,-0.53515625,-0.27685546875,0.70458984375
28392585645,-0.5087890625,-0.28759765625,0.73974609375
28392605186,-0.46923828125,-0.30517578125,0.73828125
28392627778,-0.43701171875,-0.330078125,0.7744140625
28392645570,-0.3974609375,-0.318359375,0.80859375
28392674161,-0.36328125,-0.341796875,0.8330078125
28392695206,-0.34228515625,-0.35546875,0.8369140625
28392705612,-0.30712890625,-0.3525390625,0.8388671875
28392725236,-0.29052734375,-0.3359375,0.8681640625
28392750610,-0.26416015625,-0.3447265625,0.8818359375
28392765654,-0.21923828125,-0.35693359375,0.89599609375
28392785301,-0.20458984375,-0.3603515625,0.88427734375
28392807650,-0.19873046875,-0.3671875,0.89013671875
28392825593,-0.13818359375,-0.408203125,0.93408203125
28392845266,-0.068359375,-0.359375,0.9267578125
28392876619,-0.05322265625,-0.29443359375,0.95556640625
28392884788,-0.08056640625,-0.29736328125,0.98291015625
28392905308,-0.162109375,-0.36181640625,1.0634765625
28392927880,-0.048828125,-0.39990234375,1.064453125
28392951625,0.0048828125,-0.41455078125,0.94482421875
28392965278,-0.05908203125,-0.421875,0.8779296875
28392983092,-0.09521484375,-0.47021484375,0.87451171875
28393005661,-0.09423828125,-0.49365234375,0.84375
28393028093,-0.08935546875,-0.46044921875,0.8310546875
28393050625,-0.07763671875,-0.4482421875,0.8330078125
28393065609,-0.06982421875,-0.4638671875,0.84375
28393085321,-0.05859375,-0.48291015625,0.857421875
28393103155,-0.04638671875,-0.47412109375,0.85791015625
28393125610,-0.04150390625,-0.47119140625,0.86181640625
28393146646,-0.04833984375,-0.46435546875,0.84912109375
28393163100,-0.0419921875,-0.46484375,0.85546875
28393185542,-0.0498046875,-0.45263671875,0.85595703125
28393205819,-0.025390625,-0.46630859375,0.87841796875
28393223345,-0.01123046875,-0.4521484375,0.86865234375
28393244799,-0.01318359375,-0.46630859375,0.8486328125
28393265863,0.0048828125,-0.49658203125,0.87890625
28393282253,0.015625,-0.4853515625,0.86865234375
28393304744,0.0029296875,-0.43896484375,0.83203125
28393325947,-0.03271484375,-0.4482421875,0.84814453125
28393342398,-0.01953125,-0.498046875,0.841796875
28393364781,0.00048828125,-0.50048828125,0.8388671875
28393385907,-0.0009765625,-0.529296875,0.845703125
28393402282,0.01904296875,-0.5341796875,0.85986328125
28393424797,0.03076171875,-0.50146484375,0.86474609375
28393447363,0.02490234375,-0.4677734375,0.8759765625
28393462281,0.0234375,-0.4443359375,0.85693359375
28393484796,0.00146484375,-0.43701171875,0.84619140625
28393507255,0.00341796875,-0.41943359375,0.853515625
