28290029808,0.02099609375,-0.49169921875,0.83740234375
28290052201,0.02294921875,-0.4921875,0.8310546875
28290075188,-0.04541015625,-0.45703125,0.73095703125
28290090777,-0.53759765625,-0.5517578125,0.740234375
28290112237,-0.1708984375,-0.796875,1.28564453125
28290127168,-0.53173828125,-0.75634765625,0.95361328125
28290150923,-0.4921875,-0.455078125,0.357421875
28290172349,0.2734375,-0.18701171875,0.41748046875
28290187322,0.65576171875,-0.388671875,1.12646484375
28290249856,0.0361328125,-0.7568359375,1.37890625
28290250586,-0.611328125,-0.703125,0.7548828125
28290258581,-0.23681640625,-0.3046875,0.27099609375
28290269700,-0.26708984375,-0.31689453125,0.49755859375
28290294079,0.0810546875,-0.4912109375,0.802734375
28290316776,0.01806640625,-0.49169921875,0.83544921875
28290352050,0.0205078125,-0.50146484375,0.83203125
28290362087,0.0263671875,-0.490234375,0.83203125
28290368391,0.04443359375,-0.490234375,0.83837890625
28290390230,-0.025390625,-0.69970703125,1.21240234375
28290412734,0.388671875,-0.19384765625,0.5048828125
28290436514,0.53662109375,-0.2138671875,0.6650390625
28290451324,0.5888671875,-0.47216796875,1.2294921875
28290481485,-0.10498046875,-0.7939453125,1.318359375
28290496291,-0.62890625,-0.65625,0.6220703125
28290510918,-0.0400390625,-0.24462890625,0.2861328125
28290534031,0.64599609375,-0.28564453125,0.9208984375
28290556489,0.2265625,-0.7060546875,1.38720703125
28290570927,-0.4814453125,-0.75146484375,0.9248046875
28290594045,0.0703125,-0.53076171875,0.96533203125
28290616497,0.0244140625,-0.4658203125,0.841796875
28290630857,0.02880859375,-0.46923828125,0.8515625
28290654026,0.02099609375,-0.47802734375,0.8359375
28290676546,0.033203125,-0.48974609375,0.8505859375
28290697649,0.02978515625,-0.4794921875,0.83837890625
28290713993,0.02587890625,-0.50341796875,0.83251953125
28290736525,0.03564453125,-0.5234375,0.82373046875
28290757674,0.0224609375,-0.5361328125,0.8173828125
28290774054,0.03564453125,-0.51318359375,0.82421875
28290796543,0.02490234375,-0.48388671875,0.83349609375
28290817696,0.03515625,-0.4853515625,0.8505859375
28290834007,0.06005859375,-0.4560546875,0.84814453125
28290856494,0.046875,-0.4501953125,0.84814453125
28290877693,0.0615234375,-0.4580078125,0.8515625
28290894043,0.07666015625,-0.4638671875,0.8564453125
28290916500,0.06494140625,-0.46142578125,0.857421875
28290937645,0.05615234375,-0.44970703125,0.86474609375
28290953985,0.0546875,-0.45947265625,0.85595703125
28290976503,0.05078125,-0.47412109375,0.8525390625
28290997540,0.03125,-0.51806640625,0.859375
28291013948,0.0185546875,-0.48828125,0.8505859375
28291036542,0.025390625,-0.4638671875,0.845703125
28291057674,0.04345703125,-0.4501953125,0.84228515625
28291074037,0.05419921875,-0.46533203125,0.84716796875
28291096517,0.06396484375,-0.47119140625,0.84912109375
28291117650,0.06884765625,-0.44873046875,0.84130859375
28291134009,0.06396484375,-0.43896484375,0.85205078125
28291156502,0.05615234375,-0.44091796875,0.85009765625
28291179018,0.0615234375,-0.4296875,0.85107421875
28291194045,0.07373046875,-0.40966796875,0.85986328125
28291216511,0.07568359375,-0.4140625,0.87939453125
28291239008,0.07421875,-0.42724609375,0.87841796875
28291253333,0.060546875,-0.44921875,0.88232421875
28291276537,0.04736328125,-0.4765625,0.88232421875
28291299012,0.02685546875,-0.4794921875,0.86962890625
28291320211,0.02587890625,-0.515625,0.849609375
28291342673,0.0361328125,-0.544921875,0.88525390625
28291358997,0.02880859375,-0.556640625,0.84228515625
28291387646,0.01025390625,-0.5576171875,0.84423828125
28291402559,0.00048828125,-0.5693359375,0.8447265625
28291419026,-0.009765625,-0.603515625,0.849609375
28291441513,-0.02880859375,-0.60400390625,0.861328125
28291462639,-0.044921875,-0.6220703125,0.87744140625
28291479623,-0.01171875,-0.5625,0.85888671875
28291501513,-0.06005859375,-0.5087890625,0.873046875
28291522561,-0.11865234375,-0.4423828125,0.8232421875
28291538341,-0.14404296875,-0.4716796875,0.84814453125
28291561485,-0.140625,-0.42529296875,0.89404296875
28291582396,-0.1484375,-0.455078125,0.89501953125
28291598345,-0.173828125,-0.45947265625,0.8623046875
28291621973,-0.18994140625,-0.45654296875,0.86865234375
28291644017,-0.2392578125,-0.49609375,0.8564453125
28291658371,-0.22607421875,-0.466796875,0.84423828125
28291681522,-0.25830078125,-0.41748046875,0.8310546875
28291704005,-0.2978515625,-0.3798828125,0.83056640625
28291718366,-0.32470703125,-0.3388671875,0.8173828125
28291741518,-0.373046875,-0.318359375,0.79052734375
28291763979,-0.39990234375,-0.310546875,0.77197265625
28291778327,-0.4111328125,-0.337890625,0.75927734375
28291785829,-0.43408203125,-0.37060546875,0.7587890625
28291814513,-0.45849609375,-0.37841796875,0.75146484375
28291829466,-0.4775390625,-0.3759765625,0.73828125
28291847281,-0.5087890625,-0.35791015625,0.73486328125
28291867073,-0.53369140625,-0.322265625,0.732421875
28291889480,-0.55029296875,-0.3173828125,0.73388671875
28291905938,-0.55908203125,-0.31396484375,0.72900390625
28291927042,-0.5625,-0.28955078125,0.69677734375
28291949618,-0.59619140625,-0.2802734375,0.69580078125
28291965945,-0.62548828125,-0.2783203125,0.689453125
28291986918,-0.63427734375,-0.2685546875,0.66552734375
28292009348,-0.66357421875,-0.27294921875,0.66943359375
28292025895,-0.6845703125,-0.271484375,0.6552734375
28292046982,-0.689453125,-0.2431640625,0.64697265625
28292069461,-0.70947265625,-0.21923828125,0.6259765625
28292085965,-0.7216796875,-0.2080078125,0.62548828125
28292114515,-0.73095703125,-0.2001953125,0.6083984375
28292129518,-0.74169921875,-0.2060546875,0.60009765625
28292147257,-0.751953125,-0.20361328125,0.59130859375
28292167020,-0.7626953125,-0.19140625,0.58447265625
28292189429,-0.78125,-0.17919921875,0.57080078125
28292213348,-0.78857421875,-0.166015625,0.5478515625
28292226997,-0.802734375,-0.166015625,0.544921875
28292249534,-0.8173828125,-0.1845703125,0.546875
28292267282,-0.8056640625,-0.18408203125,0.5400390625
28292287019,-0.81982421875,-0.1630859375,0.5234375
28292317560,-0.83837890625,-0.14794921875,0.51708984375
28292325801,-0.8359375,-0.15966796875,0.51318359375
28292347106,-0.83544921875,-0.1591796875,0.51318359375
28292369501,-0.83984375,-0.1748046875,0.52294921875
28292385923,-0.83154296875,-0.15380859375,0.5
28292407093,-0.845703125,-0.142578125,0.49169921875
28292429414,-0.85546875,-0.1494140625,0.5068359375
28292445926,-0.84423828125,-0.15478515625,0.50537109375
28292467051,-0.84228515625,-0.134765625,0.494140625
28292489358,-0.85693359375,-0.1279296875,0.49365234375
28292505889,-0.853515625,-0.13232421875,0.5009765625
28292526829,-0.85302734375,-0.126953125,0.4853515625
28292549464,-0.87060546875,-0.11962890625,0.4931640625
28292565829,-0.8681640625,-0.11474609375,0.48876953125
28292586977,-0.86962890625,-0.1005859375,0.470703125
28292609422,-0.87353515625,-0.09716796875,0.46435546875
28292627259,-0.8759765625,-0.115234375,0.4697265625
28292647050,-0.875,-0.107421875,0.4638671875
28292669490,-0.8779296875,-0.09619140625,0.4521484375
28292687301,-0.88525390625,-0.09375,0.44140625
28292707022,-0.88671875,-0.0947265625,0.447265625
28292729432,-0.8916015625,-0.10693359375,0.455078125
28292747277,-0.88916015625,-0.083984375,0.451171875
28292767054,-0.8798828125,-0.083984375,0.443359375
28292784809,-0.89892578125,-0.0966796875,0.4521484375
28292807287,-0.8857421875,-0.087890625,0.44580078125
28292826923,-0.8818359375,-0.072265625,0.4443359375
28292844761,-0.89404296875,-0.07470703125,0.44287109375
28292867294,-0.90185546875,-0.083984375,0.4423828125
28292887019,-0.89697265625,-0.08056640625,0.44482421875
28292905237,-0.88916015625,-0.0791015625,0.4248046875
28292927308,-0.9013671875,-0.06591796875,0.43603515625
28292947045,-0.90869140625,-0.06884765625,0.43701171875
28292964805,-0.89599609375,-0.0703125,0.42822265625
28292987257,-0.8896484375,-0.08447265625,0.4482421875
28293006907,-0.9013671875,-0.08154296875,0.44189453125
28293024757,-0.9140625,-0.0615234375,0.43115234375
28293047274,-0.8955078125,-0.07177734375,0.4169921875
28293066961,-0.8994140625,-0.0654296875,0.4228515625
28293084835,-0.904296875,-0.06201171875,0.4296875
28293107291,-0.90576171875,-0.037109375,0.41552734375
28293128295,-0.89697265625,-0.03125,0.4228515625
28293144801,-0.8916015625,-0.03955078125,0.42724609375
28293167340,-0.8974609375,-0.0439453125,0.43701171875
28293186908,-0.90185546875,-0.0419921875,0.4287109375
28293204751,-0.90283203125,-0.0380859375,0.42236328125
28293227313,-0.89501953125,-0.0439453125,0.431640625
28293255799,-0.89794921875,-0.05029296875,0.43359375
28293264802,-0.89990234375,-0.03955078125,0.416015625
28293287261,-0.8955078125,-0.046875,0.4287109375
28293308341,-0.8994140625,-0.060546875,0.43359375
28293324788,-0.9013671875,-0.044921875,0.42822265625
28293347255,-0.8984375,-0.03564453125,0.43017578125
28293368302,-0.90283203125,-0.044921875,0.42138671875
28293384732,-0.90185546875,-0.05322265625,0.431640625
28293406490,-0.90478515625,-0.04052734375,0.42626953125
28293435035,-0.90673828125,-0.05126953125,0.4326171875
28293443945,-0.89892578125,-0.056640625,0.44091796875
28293466488,-0.90771484375,-0.04541015625,0.42431640625
28293487541,-0.89501953125,-0.0439453125,0.4287109375
28293503953,-0.89208984375,-0.0595703125,0.44775390625
28293526493,-0.8994140625,-0.05712890625,0.44384765625
28293548968,-0.89697265625,-0.0458984375,0.43359375
28293563960,-0.8994140625,-0.0546875,0.43408203125
28293586486,-0.89111328125,-0.06494140625,0.44873046875
28293608992,-0.89794921875,-0.04345703125,0.439453125
28293623289,-0.90673828125,-0.04345703125,0.4267578125
28293646449,-0.89306640625,-0.05224609375,0.43505859375
28293668969,-0.890625,-0.052734375,0.439453125
28293683969,-0.916015625,-0.04638671875,0.43359375
28293706470,-0.8935546875,-0.0556640625,0.435546875
28293728970,-0.8876953125,-0.0615234375,0.43896484375
28293743298,-0.89794921875,-0.052734375,0.44580078125
28293766446,-0.8955078125,-0.05517578125,0.443359375
28293788959,-0.89111328125,-0.0625,0.44873046875
28293803336,-0.88916015625,-0.06005859375,0.4462890625
28293826475,-0.90087890625,-0.0537109375,0.43798828125
28293849004,-0.89404296875,-0.0546875,0.44384765625
28293863317,-0.89306640625,-0.05322265625,0.4384765625
28293886480,-0.89794921875,-0.0576171875,0.44921875
28293908990,-0.88916015625,-0.048828125,0.46240234375
28293923303,-0.89013671875,-0.0546875,0.45068359375
28293946459,-0.88818359375,-0.05419921875,0.45166015625
28293968947,-0.88916015625,-0.052734375,0.447265625
28293983322,-0.884765625,-0.06201171875,0.45703125
28294006489,-0.89453125,-0.04736328125,0.4443359375
28294028992,-0.8876953125,-0.05126953125,0.44580078125
28294050189,-0.87890625,-0.0673828125,0.46142578125
28294066443,-0.87744140625,-0.06396484375,0.46630859375
28294088972,-0.8876953125,-0.06103515625,0.46142578125
28294110090,-0.88818359375,-0.04736328125,0.45166015625
28294126467,-0.8857421875,-0.05126953125,0.4580078125
28294148993,-0.87890625,-0.06640625,0.46630859375
28294170064,-0.8818359375,-0.05810546875,0.466796875
28294186488,-0.896484375,-0.046875,0.44384765625
28294208943,-0.8896484375,-0.0537109375,0.451171875
28294230146,-0.8876953125,-0.0615234375,0.45166015625
28294246471,-0.8876953125,-0.06005859375,0.4521484375
28294268942,-0.8916015625,-0.0576171875,0.45751953125
28294290009,-0.88427734375,-0.0634765625,0.4609375
28294306444,-0.88427734375,-0.06884765625,0.46142578125
28294328977,-0.88427734375,-0.064453125,0.458984375
28294350232,-0.87939453125,-0.05517578125,0.4619140625
28294366451,-0.89111328125,-0.06201171875,0.4716796875
28294389018,-0.8896484375,-0.05810546875,0.45654296875
28294410156,-0.88330078125,-0.060546875,0.4580078125
28294426519,-0.89306640625,-0.04345703125,0.447265625
28294448952,-0.88720703125,-0.05908203125,0.45849609375
28294470168,-0.8857421875,-0.064453125,0.4580078125
28294486979,-0.8955078125,-0.068359375,0.44921875
28294508958,-0.89794921875,-0.06298828125,0.4384765625
28294531478,-0.88818359375,-0.06103515625,0.4638671875
28294546471,-0.88330078125,-0.06005859375,0.45654296875
28294568941,-0.875,-0.044921875,0.4619140625
28294591470,-0.88916015625,-0.04736328125,0.4609375
28294607140,-0.88671875,-0.05908203125,0.45654296875
28294628924,-0.8837890625,-0.04931640625,0.47265625
28294651447,-0.8896484375,-0.04931640625,0.45361328125
28294665789,-0.8876953125,-0.04833984375,0.45361328125
28294688941,-0.890625,-0.060546875,0.447265625
28294711224,-0.876953125,-0.07373046875,0.474609375
28294725829,-0.88037109375,-0.0869140625,0.45947265625
28294748972,-0.89306640625,-0.06640625,0.45751953125
28294771467,-0.892578125,-0.07177734375,0.46826171875
28294793971,-0.8759765625,-0.07666015625,0.46435546875
28294808983,-0.8779296875,-0.07763671875,0.4677734375
28294831416,-0.86962890625,-0.0673828125,0.4755859375
28294845858,-0.8671875,-0.0634765625,0.47509765625
28294868953,-0.8759765625,-0.05908203125,0.48486328125
28294891450,-0.88671875,-0.0556640625,0.470703125
28294905771,-0.8857421875,-0.05078125,0.45263671875
28294928910,-0.88525390625,-0.05615234375,0.44775390625
28294951443,-0.8798828125,-0.05517578125,0.4404296875
28294965782,-0.873046875,-0.041015625,0.44189453125
28294996470,-0.9013671875,-0.03955078125,0.43896484375
28295011485,-0.92138671875,-0.0322265625,0.4384765625
28295032636,-0.89501953125,-0.03076171875,0.4296875
28295048973,-0.86376953125,-0.03125,0.45947265625
28295071441,-0.86328125,-0.04296875,0.46240234375
28295092653,-0.8916015625,-0.05126953125,0.4716796875
28295108952,-0.87353515625,-0.05224609375,0.46484375
28295131425,-0.85888671875,-0.03955078125,0.47509765625
28295152669,-0.85888671875,-0.04296875,0.4921875
28295168331,-0.8603515625,-0.052734375,0.49853515625
28295197634,-0.84716796875,-0.09033203125,0.52392578125
28295212639,-0.82470703125,-0.11376953125,0.5283203125
28295228997,-0.8232421875,-0.11474609375,0.5244140625
28295251418,-0.833984375,-0.109375,0.5341796875
28295273957,-0.814453125,-0.10498046875,0.525390625
28295288949,-0.818359375,-0.11474609375,0.54443359375
28295311422,-0.796875,-0.13330078125,0.548828125
28295332644,-0.78369140625,-0.13671875,0.5712890625
28295348300,-0.78515625,-0.13232421875,0.56396484375
28295371449,-0.78173828125,-0.12255859375,0.5673828125
28295392610,-0.77880859375,-0.14404296875,0.60888671875
28295408293,-0.7509765625,-0.177734375,0.6044921875
28295431420,-0.71435546875,-0.16943359375,0.60546875
28295453931,-0.708984375,-0.15380859375,0.60498046875
28295468295,-0.70849609375,-0.19970703125,0.66259765625
28295491449,-0.67578125,-0.24072265625,0.68017578125
28295513938,-0.65283203125,-0.23291015625,0.66796875
28295528271,-0.6484375,-0.2041015625,0.6806640625
28295551478,-0.6328125,-0.2197265625,0.7041015625
28295573966,-0.60009765625,-0.27587890625,0.7333984375
28295588304,-0.55615234375,-0.3134765625,0.744140625
28295611452,-0.54931640625,-0.26806640625,0.74169921875
28295633918,-0.5478515625,-0.26171875,0.7578125
28295655121,-0.51708984375,-0.29052734375,0.77880859375
28295671416,-0.4951171875,-0.30517578125,0.77783203125
28295693953,-0.48193359375,-0.302734375,0.802734375
28295715152,-0.46484375,-0.31787109375,0.82421875
28295731421,-0.44287109375,-0.31884765625,0.8154296875
28295753943,-0.42724609375,-0.3125,0.8251953125
28295775123,-0.42724609375,-0.2763671875,0.80810546875
28295791441,-0.4169921875,-0.287109375,0.8291015625
28295813921,-0.3974609375,-0.3408203125,0.828125
28295835154,-0.369140625,-0.32275390625,0.818359375
28295851445,-0.35009765625,-0.2919921875,0.8466796875
28295873935,-0.337890625,-0.3212890625,0.86669921875
28295895070,-0.314453125,-0.35546875,0.87939453125
28295911471,-0.28759765625,-0.35302734375,0.865234375
28295933915,-0.26953125,-0.3720703125,0.8916015625
28295955098,-0.25537109375,-0.3837890625,0.89892578125
28295971417,-0.2509765625,-0.39794921875,0.89306640625
28295993955,-0.2548828125,-0.36376953125,0.87939453125
28296015085,-0.24267578125,-0.3525390625,0.88134765625
28296031880,-0.21875,-0.3583984375,0.8857421875
28296053935,-0.2099609375,-0.35888671875,0.89599609375
28296075157,-0.19482421875,-0.3505859375,0.90576171875
28296091436,-0.1904296875,-0.3466796875,0.8955078125
28296113969,-0.18505859375,-0.33349609375,0.90087890625
28296135105,-0.18505859375,-0.32958984375,0.88818359375
28296151449,-0.17138671875,-0.3466796875,0.91064453125
28296173944,-0.158203125,-0.3701171875,0.91162109375
28296194996,-0.1533203125,-0.36767578125,0.90234375
28296211394,-0.15673828125,-0.3544921875,0.88671875
28296233917,-0.154296875,-0.3486328125,0.88671875
28296255051,-0.14599609375,-0.3505859375,0.9052734375
28296270751,-0.130859375,-0.35107421875,0.908203125
28296293927,-0.12548828125,-0.3427734375,0.90625
28296315022,-0.12890625,-0.33056640625,0.900390625
28296331517,-0.123046875,-0.3291015625,0.904296875
28296353912,-0.13671875,-0.35498046875,0.92236328125
28296382699,-0.09033203125,-0.35009765625,0.91845703125
28296391453,-0.083984375,-0.353515625,0.91552734375
28296413928,-0.09375,-0.36572265625,0.912109375
28296436411,-0.1064453125,-0.37744140625,0.89013671875
28296458922,-0.119140625,-0.40576171875,0.890625
28296473942,-0.0966796875,-0.39306640625,0.90087890625
28296496504,-0.0908203125,-0.369140625,0.89794921875
28296511444,-0.1044921875,-0.3544921875,0.8828125
28296533941,-0.10888671875,-0.36181640625,0.88818359375
28296556464,-0.09619140625,-0.36328125,0.8876953125
28296570774,-0.0927734375,-0.3759765625,0.87841796875
28296593923,-0.0947265625,-0.3740234375,0.88623046875
28296616444,-0.09716796875,-0.359375,0.89208984375
28296630775,-0.09375,-0.35693359375,0.888671875
28296661388,-0.0810546875,-0.35595703125,0.888671875
28296676223,-0.0771484375,-0.35693359375,0.8876953125
28296690788,-0.06396484375,-0.3642578125,0.90234375
28296713920,-0.0556640625,-0.38037109375,0.89306640625
28296719345,-0.06396484375,-0.3720703125,0.88037109375
28296741902,-0.06689453125,-0.3798828125,0.88525390625
28296758251,-0.056640625,-0.39111328125,0.892578125
28296779396,-0.052734375,-0.38671875,0.8896484375
28296801807,-0.052734375,-0.36474609375,0.89404296875
28296818315,-0.037109375,-0.37353515625,0.8984375
28296839393,-0.03076171875,-0.3759765625,0.89111328125
28296861929,-0.0166015625,-0.37109375,0.8994140625
28296878246,-0.0107421875,-0.36962890625,0.89794921875
28296899364,-0.01220703125,-0.38232421875,0.900390625
28296922067,-0.01904296875,-0.3779296875,0.89501953125
28296938254,-0.0146484375,-0.39306640625,0.89404296875
28296959471,-0.0146484375,-0.39013671875,0.88623046875
28296981944,-0.01904296875,-0.3935546875,0.89111328125
28296998269,-0.01123046875,-0.39404296875,0.8837890625
28297019312,-0.00634765625,-0.4013671875,0.890625
28297041926,0.00146484375,-0.40771484375,0.8837890625
28297058302,-0.0029296875,-0.40185546875,0.888671875
28297079392,-0.0068359375,-0.404296875,0.87353515625
28297101816,-0.01123046875,-0.4072265625,0.86376953125
28297118297,-0.00927734375,-0.427734375,0.8935546875
