29400184304,0.0400390625,-0.55859375,0.7939453125
29400207955,0.0390625,-0.55810546875,0.7958984375
29400223118,0.02978515625,-0.55859375,0.79638671875
29400244278,-0.0234375,-0.6669921875,1.056640625
29400267983,-0.94091796875,-0.85009765625,0.6279296875
29400283056,-0.55859375,-0.92578125,0.48388671875
29400304276,-0.59765625,-0.76708984375,-0.00341796875
29400328016,0.068359375,-0.3154296875,0.41650390625
29400381964,0.69970703125,-0.17431640625,1.3486328125
29400382686,0.4716796875,-0.5302734375,1.560546875
29400383510,-0.32080078125,-0.93310546875,0.7734375
29400395625,-0.63525390625,-0.84033203125,0.0048828125
29400419339,-0.02392578125,-0.3662109375,0.31591796875
29400439296,-0.0849609375,-0.7421875,1.2041015625
29400457212,0.06640625,-0.52734375,0.76513671875
29400491655,0.04443359375,-0.57373046875,0.796875
29400501618,0.03759765625,-0.556640625,0.7900390625
29400515443,0.04296875,-0.55712890625,0.79296875
29400536604,0.1845703125,-0.5966796875,0.92578125
29400559123,0.9013671875,-0.23779296875,0.80224609375
29400576918,-0.06396484375,-0.34814453125,0.3955078125
29400596604,0.46044921875,-0.1796875,0.89892578125
29400619068,0.712890625,-0.287109375,1.57666015625
29400636908,0.13232421875,-0.7421875,1.30615234375
29400656667,-0.5732421875,-0.962890625,0.33642578125
29400679126,-0.45703125,-0.64453125,-0.00341796875
29400696934,0.35205078125,-0.21337890625,0.7451171875
29400716480,0.72021484375,-0.265625,1.57861328125
29400739138,0.68212890625,-0.41845703125,0.81005859375
29400756949,0.193359375,-0.53759765625,0.810546875
29400776590,0.02978515625,-0.5595703125,0.80712890625
29400799125,0.0341796875,-0.5576171875,0.7939453125
29400816932,0.04150390625,-0.55712890625,0.79638671875
29400836630,0.0419921875,-0.5556640625,0.7939453125
29400859053,0.04052734375,-0.55712890625,0.794921875
29400876930,0.04150390625,-0.55517578125,0.79150390625
29400897956,0.03955078125,-0.5615234375,0.79052734375
29400919101,0.04248046875,-0.5625,0.79345703125
29400936937,0.041015625,-0.5615234375,0.7998046875
29400957964,0.04052734375,-0.5556640625,0.796875
29400979096,0.0390625,-0.55810546875,0.7958984375
29400996915,0.04052734375,-0.56103515625,0.78759765625
29401017945,0.04052734375,-0.56005859375,0.7900390625
29401039075,0.037109375,-0.56591796875,0.791015625
29401056917,0.04150390625,-0.5634765625,0.79296875
29401077957,0.03955078125,-0.560546875,0.8017578125
29401094408,0.04541015625,-0.55712890625,0.78955078125
29401116967,0.04443359375,-0.56201171875,0.79638671875
29401137956,0.03759765625,-0.55615234375,0.79541015625
29401154411,0.03857421875,-0.5654296875,0.79345703125
29401176916,0.04443359375,-0.5625,0.7890625
29401197919,0.0419921875,-0.55908203125,0.78955078125
29401214391,0.041015625,-0.5654296875,0.7978515625
29401236911,0.04541015625,-0.56201171875,0.794921875
29401258006,0.04248046875,-0.5595703125,0.7958984375
29401274450,0.04150390625,-0.56689453125,0.794921875
29401296944,0.0458984375,-0.56494140625,0.7978515625
29401318605,0.037109375,-0.56494140625,0.791015625
29401339790,0.041015625,-0.583984375,0.806640625
29401356070,0.04541015625,-0.57666015625,0.79296875
29401378614,0.03564453125,-0.5830078125,0.796875
29401399791,0.03369140625,-0.5859375,0.8046875
29401416101,0.04931640625,-0.599609375,0.8046875
29401438620,0.04541015625,-0.5908203125,0.80078125
29401459778,0.05029296875,-0.59228515625,0.796875
29401482322,0.0537109375,-0.62158203125,0.79443359375
29401498600,0.03857421875,-0.63232421875,0.79443359375
29401521145,0.0361328125,-0.642578125,0.779296875
29401542276,0.009765625,-0.6640625,0.78857421875
29401558617,0.00244140625,-0.66845703125,0.7861328125
29401581070,-0.02783203125,-0.625,0.77880859375
29401602170,-0.0302734375,-0.5966796875,0.7958984375
29401619019,-0.03759765625,-0.6337890625,0.8115234375
29401641090,-0.01513671875,-0.67041015625,0.81884765625
29401662221,-0.01416015625,-0.6533203125,0.8193359375
29401678616,-0.05078125,-0.6318359375,0.8173828125
29401701092,-0.05517578125,-0.63427734375,0.82275390625
29401722276,-0.06201171875,-0.642578125,0.83740234375
29401737888,-0.06982421875,-0.6279296875,0.8369140625
29401761070,-0.0830078125,-0.6298828125,0.8408203125
29401782294,-0.10009765625,-0.61669921875,0.8310546875
29401797942,-0.1279296875,-0.61865234375,0.82666015625
29401821147,-0.1630859375,-0.6162109375,0.82958984375
29401843571,-0.19384765625,-0.56884765625,0.80029296875
29401857942,-0.236328125,-0.56396484375,0.7822265625
29401881122,-0.27099609375,-0.55810546875,0.7666015625
29401903669,-0.30224609375,-0.53759765625,0.744140625
29401917926,-0.3447265625,-0.5302734375,0.732421875
29401941095,-0.38818359375,-0.54248046875,0.7275390625
29401963593,-0.39892578125,-0.52294921875,0.697265625
29401977942,-0.4326171875,-0.4951171875,0.67333984375
29402001095,-0.4716796875,-0.44775390625,0.63623046875
29402023618,-0.51513671875,-0.4169921875,0.63037109375
29402037941,-0.53466796875,-0.41650390625,0.6318359375
29402061100,-0.57470703125,-0.39892578125,0.60595703125
29402083576,-0.6220703125,-0.37646484375,0.6083984375
29402104771,-0.6826171875,-0.4130859375,0.6298828125
29402121076,-0.67333984375,-0.443359375,0.666015625
29402143570,-0.68017578125,-0.384765625,0.6513671875
29402164732,-0.73388671875,-0.3349609375,0.63916015625
29402181122,-0.75,-0.3115234375,0.61083984375
29402203586,-0.71826171875,-0.20849609375,0.55126953125
29402224718,-0.720703125,-0.142578125,0.5498046875
29402241044,-0.7080078125,-0.10888671875,0.58251953125
29402263609,-0.6845703125,-0.10205078125,0.6103515625
29402284715,-0.6669921875,-0.12353515625,0.640625
29402301064,-0.634765625,-0.10888671875,0.658203125
29402323631,-0.5966796875,-0.06982421875,0.68212890625
29402344903,-0.55908203125,-0.06591796875,0.72998046875
29402361094,-0.5517578125,-0.0263671875,0.740234375
29402383567,-0.52587890625,0.01171875,0.77099609375
29402404773,-0.49951171875,0.0146484375,0.77880859375
29402421093,-0.46875,-0.01904296875,0.83740234375
29402443588,-0.4638671875,-0.05224609375,0.88037109375
29402464825,-0.4833984375,-0.0361328125,0.87548828125
29402481078,-0.4658203125,-0.02685546875,0.84228515625
29402503594,-0.455078125,-0.07666015625,0.86669921875
29402524743,-0.47216796875,-0.0966796875,0.841796875
29402541047,-0.4833984375,-0.08349609375,0.79736328125
29402563657,-0.513671875,-0.05908203125,0.75146484375
29402584823,-0.5556640625,-0.0478515625,0.71044921875
29402601061,-0.57958984375,-0.05859375,0.685546875
29402623537,-0.57861328125,-0.0947265625,0.6767578125
29402644748,-0.609375,-0.08935546875,0.64111328125
29402661097,-0.62451171875,-0.1005859375,0.6376953125
29402683569,-0.62841796875,-0.12060546875,0.6123046875
29402704734,-0.64013671875,-0.1572265625,0.5732421875
29402727241,-0.65966796875,-0.234375,0.5458984375
29402743566,-0.6591796875,-0.34814453125,0.5400390625
29402766025,-0.68017578125,-0.36376953125,0.54296875
29402780358,-0.68603515625,-0.4326171875,0.5732421875
29402803571,-0.658203125,-0.49853515625,0.61865234375
29402826074,-0.60009765625,-0.49365234375,0.65087890625
29402840427,-0.59423828125,-0.48974609375,0.69677734375
29402863550,-0.6064453125,-0.4658203125,0.6943359375
29402886084,-0.607421875,-0.431640625,0.716796875
29402900398,-0.61767578125,-0.4140625,0.74658203125
29402923571,-0.6015625,-0.36279296875,0.71142578125
29402946096,-0.6064453125,-0.341796875,0.6904296875
29402960502,-0.59326171875,-0.3603515625,0.7236328125
29402983590,-0.552734375,-0.35986328125,0.7509765625
29403006031,-0.525390625,-0.34326171875,0.7314453125
29403027217,-0.5126953125,-0.32666015625,0.65771484375
29403043597,-0.4853515625,-0.34375,0.677734375
29403066077,-0.44580078125,-0.35693359375,0.716796875
29403087262,-0.42822265625,-0.33544921875,0.7978515625
29403103552,-0.36474609375,-0.30517578125,0.83544921875
29403126076,-0.3173828125,-0.322265625,0.85595703125
29403147226,-0.28369140625,-0.3330078125,0.9033203125
29403163569,-0.27490234375,-0.3388671875,0.92578125
29403186092,-0.22705078125,-0.33154296875,0.9541015625
29403207257,-0.1884765625,-0.3232421875,0.95703125
29403223594,-0.1796875,-0.298828125,0.9580078125
29403246005,-0.16015625,-0.3017578125,1.0107421875
29403267180,-0.16845703125,-0.30908203125,1.02490234375
29403283575,-0.15966796875,-0.29443359375,1.00146484375
29403306706,-0.1416015625,-0.2861328125,0.9833984375
29403327201,-0.14306640625,-0.29443359375,0.98486328125
29403343542,-0.1533203125,-0.32763671875,1.0029296875
29403366090,-0.150390625,-0.3466796875,0.9873046875
29403387220,-0.1552734375,-0.322265625,0.93017578125
29403403546,-0.15576171875,-0.3046875,0.908203125
29403426091,-0.17578125,-0.32666015625,0.921875
29403447226,-0.1875,-0.36865234375,0.9091796875
29403463573,-0.18798828125,-0.34033203125,0.85498046875
29403486102,-0.18798828125,-0.310546875,0.81591796875
29403507217,-0.205078125,-0.29736328125,0.8173828125
29403523593,-0.2255859375,-0.353515625,0.77587890625
29403546044,-0.2705078125,-0.38427734375,0.7392578125
29403567285,-0.21044921875,-0.37255859375,0.77001953125
29403583617,-0.16943359375,-0.375,0.85986328125
29403606038,-0.16162109375,-0.3447265625,0.8427734375
29403627192,-0.1494140625,-0.392578125,0.82861328125
29403642917,-0.10107421875,-0.38916015625,0.81103515625
29403666100,-0.0732421875,-0.48388671875,0.95068359375
29403687264,-0.06982421875,-0.5009765625,0.88818359375
29403702953,-0.09130859375,-0.4619140625,0.837890625
29403726066,-0.04736328125,-0.50537109375,0.91748046875
29403748663,-0.01318359375,-0.533203125,0.9404296875
29403762926,-0.0576171875,-0.44482421875,0.90380859375
29403770394,-0.05810546875,-0.43505859375,0.9072265625
29403791466,-0.076171875,-0.48095703125,0.9423828125
29403814105,-0.0810546875,-0.48779296875,0.94482421875
29403830499,-0.10009765625,-0.4755859375,0.9267578125
29403851550,-0.13037109375,-0.435546875,0.93603515625
29403874091,-0.12841796875,-0.42041015625,0.947265625
29403889031,-0.111328125,-0.38525390625,0.9384765625
29403911664,-0.126953125,-0.33642578125,0.90673828125
29403934136,-0.14697265625,-0.31591796875,0.896484375
29403950425,-0.1591796875,-0.33740234375,0.90283203125
29403971616,-0.1748046875,-0.3935546875,0.9052734375
29403994062,-0.228515625,-0.37451171875,0.90673828125
29404011923,-0.21728515625,-0.3994140625,0.89599609375
29404031591,-0.17578125,-0.4462890625,0.88916015625
29404054136,-0.15625,-0.4560546875,0.8974609375
29404070392,-0.16552734375,-0.4541015625,0.90625
29404091602,-0.1875,-0.40380859375,0.8935546875
29404114078,-0.20654296875,-0.37109375,0.86572265625
29404130383,-0.181640625,-0.3515625,0.83203125
29404151574,-0.16796875,-0.3662109375,0.82861328125
29404174080,-0.17333984375,-0.4267578125,0.84033203125
29404189082,-0.14453125,-0.4375,0.82958984375
29404211578,-0.1318359375,-0.40576171875,0.7900390625
29404234002,-0.1220703125,-0.3642578125,0.779296875
29404249068,-0.091796875,-0.375,0.802734375
29404271687,-0.04443359375,-0.4228515625,0.81298828125
29404294089,-0.013671875,-0.41455078125,0.802734375
29404310378,0.0009765625,-0.3896484375,0.78173828125
29404331557,0.0302734375,-0.38232421875,0.82666015625
29404354033,0.083984375,-0.41748046875,0.865234375
29404370415,0.1064453125,-0.40087890625,0.8486328125
29404391555,0.1083984375,-0.369140625,0.833984375
29404414042,0.1142578125,-0.341796875,0.83447265625
29404430386,0.15234375,-0.35498046875,0.8505859375
29404451435,0.1689453125,-0.380859375,0.85107421875
29404474122,0.1474609375,-0.3583984375,0.84130859375
29404490378,0.13134765625,-0.3125,0.82275390625
29404511532,0.14306640625,-0.30419921875,0.8173828125
29404534044,0.140625,-0.36962890625,0.78466796875
29404550392,0.10205078125,-0.4697265625,1.0947265625
29404571589,0.14697265625,-0.36279296875,1.119140625
29404594100,0.21142578125,-0.34814453125,1.04833984375
29404610373,0.080078125,-0.32763671875,0.947265625
29404631569,0.02783203125,-0.431640625,0.91552734375
29404654089,0.03466796875,-0.5107421875,0.81982421875
29404671963,0.02978515625,-0.53466796875,0.8251953125
29404691468,0.10400390625,-0.5166015625,0.93994140625
29404714015,0.14892578125,-0.310546875,0.91259765625
29404731913,0.06884765625,-0.263671875,0.85693359375
29404751444,0.06689453125,-0.3388671875,0.8974609375
29404774097,0.09423828125,-0.3466796875,0.88232421875
29404791937,0.07666015625,-0.384765625,0.8759765625
29404811451,0.08642578125,-0.40869140625,0.86328125
29404834096,0.0830078125,-0.38720703125,0.875
29404851940,0.06494140625,-0.42138671875,0.86767578125
29404871547,0.0615234375,-0.4501953125,0.84765625
29404894079,0.06201171875,-0.50244140625,0.84716796875
29404911931,0.05859375,-0.517578125,0.82373046875
