27930809563,-0.0711059570312,0.21533203125,-0.930114746094,0.288879394531
27930830737,-0.0706787109375,0.214660644531,-0.930358886719,0.288757324219
27930845826,-0.0714111328125,0.214050292969,-0.930603027344,0.288208007812
27930869540,-0.0706787109375,0.214721679688,-0.930419921875,0.288513183594
27930891025,-0.07373046875,0.21240234375,-0.931091308594,0.287353515625
27930905846,-0.0707397460938,0.214477539062,-0.930786132812,0.287536621094
27930937014,-0.0692749023438,0.215698242188,-0.930541992188,0.287841796875
27930952050,-0.070068359375,0.215148925781,-0.930603027344,0.287719726562
27931006092,-0.0758056640625,0.210266113281,-0.931701660156,0.286376953125
27931006692,-0.0750122070312,0.210510253906,-0.931640625,0.286560058594
27931007531,-0.068115234375,0.215637207031,-0.930480957031,0.288146972656
27931019658,-0.0671997070312,0.216735839844,-0.930236816406,0.288513183594
27931042091,-0.0631103515625,0.218933105469,-0.929809570312,0.289123535156
27931063250,-0.0628051757812,0.218933105469,-0.929809570312,0.289184570312
27931081345,-0.063720703125,0.219665527344,-0.929504394531,0.289306640625
27931115677,-0.0640869140625,0.221313476562,-0.929138183594,0.289245605469
27931140196,-0.06396484375,0.222778320312,-0.928771972656,0.289245605469
27931141007,-0.0635986328125,0.224304199219,-0.928283691406,0.289794921875
27931160628,-0.0575561523438,0.229797363281,-0.926879882812,0.291259765625
27931183170,-0.05859375,0.228637695312,-0.927185058594,0.290954589844
27931200953,-0.0536499023438,0.230529785156,-0.926879882812,0.291442871094
27931220613,-0.044677734375,0.235473632812,-0.925598144531,0.292907714844
27931243203,-0.0429077148438,0.235656738281,-0.925598144531,0.293090820312
27931261002,-0.04736328125,0.230773925781,-0.926879882812,0.292236328125
27931280676,-0.044677734375,0.232055664062,-0.926391601562,0.293151855469
27931303152,-0.0347290039062,0.238830566406,-0.924194335938,0.296020507812
27931321018,-0.031005859375,0.239990234375,-0.923461914062,0.2978515625
27931340611,-0.0305786132812,0.237365722656,-0.923950195312,0.298522949219
27931363172,-0.0245361328125,0.236511230469,-0.923889160156,0.299743652344
27931381010,-0.0187377929688,0.234924316406,-0.923828125,0.301635742188
27931400691,-0.0105590820312,0.232116699219,-0.923889160156,0.304077148438
27931423159,-0.00079345703125,0.227966308594,-0.924560546875,0.305358886719
27931441017,0.0086669921875,0.2265625,-0.924255371094,0.30712890625
27931460647,0.0181274414062,0.228637695312,-0.922668457031,0.309997558594
27931483193,0.0281372070312,0.231811523438,-0.920593261719,0.313049316406
27931500921,0.039306640625,0.234008789062,-0.918701171875,0.315734863281
27931522028,0.052490234375,0.234741210938,-0.917053222656,0.317993164062
27931543185,0.0669555664062,0.233764648438,-0.915588378906,0.320190429688
27931560978,0.0817260742188,0.231811523438,-0.914184570312,0.322326660156
27931581993,0.0958862304688,0.22998046875,-0.91259765625,0.32421875
27931603052,0.109497070312,0.228271484375,-0.910583496094,0.326782226562
27931620981,0.122680664062,0.227416992188,-0.90771484375,0.330627441406
27931641981,0.135192871094,0.228393554688,-0.904052734375,0.335021972656
27931663112,0.147216796875,0.229064941406,-0.900268554688,0.339721679688
27931681208,0.160522460938,0.226806640625,-0.896667480469,0.3447265625
27931701986,0.175964355469,0.221252441406,-0.893127441406,0.349853515625
27931723098,0.192016601562,0.214172363281,-0.8896484375,0.354736328125
27931740935,0.208251953125,0.205871582031,-0.8857421875,0.360229492188
27931761941,0.223937988281,0.19775390625,-0.88134765625,0.366088867188
27931783694,0.237915039062,0.191833496094,-0.876403808594,0.372192382812
27931800125,0.250793457031,0.18701171875,-0.870910644531,0.379089355469
27931821340,0.263488769531,0.180358886719,-0.865844726562,0.38525390625
27931843785,0.277404785156,0.170288085938,-0.861633300781,0.389404296875
27931860149,0.29150390625,0.157958984375,-0.857788085938,0.392700195312
27931882669,0.303771972656,0.147155761719,-0.853759765625,0.396484375
27931897003,0.313781738281,0.138244628906,-0.849548339844,0.40087890625
27931920176,0.323913574219,0.12841796875,-0.845275878906,0.405029296875
27931942709,0.335021972656,0.117370605469,-0.841003417969,0.408264160156
27931956999,0.3447265625,0.106384277344,-0.837341308594,0.410766601562
27931980155,0.351379394531,0.097412109375,-0.834106445312,0.413879394531
27932002645,0.357238769531,0.0890502929688,-0.830993652344,0.417053222656
27932016929,0.364135742188,0.0809326171875,-0.827453613281,0.419799804688
27932040195,0.370727539062,0.0721435546875,-0.824401855469,0.421569824219
27932062682,0.374877929688,0.0640869140625,-0.822387695312,0.423156738281
27932076974,0.377563476562,0.0564575195312,-0.820983886719,0.424560546875
27932106266,0.380737304688,0.0476684570312,-0.819213867188,0.426147460938
27932122722,0.384094238281,0.0381469726562,-0.817749023438,0.426940917969
27932145143,0.38720703125,0.0286254882812,-0.816467285156,0.427307128906
27932166335,0.389587402344,0.0187377929688,-0.815673828125,0.42724609375
27932182626,0.391357421875,0.009765625,-0.815002441406,0.427185058594
27932205167,0.391418457031,0.00140380859375,-0.814636230469,0.427917480469
27932226268,0.390930175781,-0.00775146484375,-0.814392089844,0.428771972656
27932242644,0.390197753906,-0.0164184570312,-0.814208984375,0.429565429688
27932265256,0.388061523438,-0.0233154296875,-0.814392089844,0.430847167969
27932286185,0.385620117188,-0.0307006835938,-0.814880371094,0.431640625
27932301958,0.3828125,-0.037841796875,-0.815490722656,0.432434082031
27932325148,0.380249023438,-0.0460205078125,-0.815979003906,0.432983398438
27932346301,0.377807617188,-0.0540771484375,-0.816528320312,0.43310546875
27932361974,0.374633789062,-0.0616455078125,-0.817626953125,0.432800292969
27932385162,0.369995117188,-0.0673217773438,-0.819213867188,0.432922363281
27932406317,0.364379882812,-0.0719604492188,-0.820861816406,0.433898925781
27932422004,0.358947753906,-0.0774536132812,-0.822570800781,0.434265136719
27932445146,0.354248046875,-0.0841674804688,-0.824157714844,0.433898925781
27932467611,0.349304199219,-0.09033203125,-0.825744628906,0.43359375
27932482020,0.343322753906,-0.0950927734375,-0.827575683594,0.433837890625
27932505192,0.33740234375,-0.0997314453125,-0.829223632812,0.434265136719
27932529171,0.331726074219,-0.103942871094,-0.830871582031,0.434509277344
27932550179,0.326232910156,-0.107666015625,-0.832397460938,0.434875488281
27932565145,0.3212890625,-0.11083984375,-0.833801269531,0.43505859375
27932587617,0.315979003906,-0.112976074219,-0.83544921875,0.435180664062
27932601967,0.310974121094,-0.114624023438,-0.837036132812,0.435302734375
27932625847,0.307250976562,-0.11572265625,-0.838256835938,0.435302734375
27932647649,0.3037109375,-0.115356445312,-0.839599609375,0.435302734375
27932676297,0.30029296875,-0.115783691406,-0.841003417969,0.434936523438
27932685121,0.296691894531,-0.116271972656,-0.842407226562,0.434509277344
27932707641,0.292297363281,-0.116027832031,-0.843872070312,0.434692382812
27932728797,0.287780761719,-0.114868164062,-0.845153808594,0.435607910156
27932745124,0.284606933594,-0.114013671875,-0.845886230469,0.436401367188
27932767870,0.283081054688,-0.1142578125,-0.846252441406,0.436706542969
27932788660,0.28173828125,-0.114440917969,-0.846740722656,0.436584472656
27932805100,0.280334472656,-0.113586425781,-0.847351074219,0.436462402344
27932827611,0.278747558594,-0.111267089844,-0.84814453125,0.436584472656
27932848823,0.277282714844,-0.107666015625,-0.848815917969,0.437072753906
27932865123,0.276672363281,-0.105163574219,-0.849487304688,0.436767578125
27932887619,0.27685546875,-0.104248046875,-0.849914550781,0.435974121094
27932908806,0.27734375,-0.104431152344,-0.850158691406,0.435180664062
27932925169,0.277099609375,-0.103393554688,-0.850524902344,0.434936523438
27932947690,0.2763671875,-0.101867675781,-0.850952148438,0.434875488281
27932968789,0.275695800781,-0.100646972656,-0.851501464844,0.4345703125
27932985122,0.275817871094,-0.100769042969,-0.851623535156,0.434204101562
27933007636,0.275695800781,-0.0999755859375,-0.851928710938,0.433837890625
27933028841,0.275634765625,-0.0988159179688,-0.85205078125,0.433898925781
27933045107,0.275634765625,-0.0978393554688,-0.852294921875,0.433715820312
27933067643,0.275756835938,-0.097900390625,-0.852355957031,0.433471679688
27933088803,0.275817871094,-0.0974731445312,-0.852355957031,0.43359375
27933111295,0.275207519531,-0.096435546875,-0.852478027344,0.433898925781
27933127635,0.274353027344,-0.0953369140625,-0.852600097656,0.434387207031
27933148704,0.273803710938,-0.0941772460938,-0.852661132812,0.434936523438
27933165086,0.273620605469,-0.0938720703125,-0.852661132812,0.435180664062
27933187674,0.273498535156,-0.09375,-0.8525390625,0.435424804688
27933208778,0.274047851562,-0.0938720703125,-0.852233886719,0.435668945312
27933225118,0.274230957031,-0.0927124023438,-0.852294921875,0.435668945312
27933247642,0.273742675781,-0.0917358398438,-0.852478027344,0.435852050781
27933269322,0.273742675781,-0.091064453125,-0.852416992188,0.43603515625
27933285088,0.2744140625,-0.0902709960938,-0.852233886719,0.436218261719
27933315135,0.274963378906,-0.089599609375,-0.852233886719,0.43603515625
27933328802,0.275268554688,-0.0889282226562,-0.852416992188,0.435546875
27933345630,0.275207519531,-0.0874633789062,-0.852600097656,0.435485839844
27933367618,0.275024414062,-0.0855102539062,-0.852783203125,0.435729980469
27933390173,0.275207519531,-0.0842895507812,-0.852905273438,0.435546875
27933405119,0.276245117188,-0.0842895507812,-0.852905273438,0.434936523438
27933427597,0.276672363281,-0.0838012695312,-0.853088378906,0.434387207031
27933450140,0.276794433594,-0.08251953125,-0.853149414062,0.434448242188
27933465121,0.277038574219,-0.0806884765625,-0.853149414062,0.434631347656
27933487643,0.277893066406,-0.0797119140625,-0.853088378906,0.434387207031
27933517626,0.279418945312,-0.079345703125,-0.852783203125,0.434020996094
27933524443,0.281005859375,-0.078125,-0.852478027344,0.433837890625
27933547599,0.28271484375,-0.0763549804688,-0.852172851562,0.433654785156
27933570130,0.284301757812,-0.0740966796875,-0.851928710938,0.433410644531
27933584492,0.286315917969,-0.0723876953125,-0.851684570312,0.432922363281
27933613561,0.288391113281,-0.0717163085938,-0.851440429688,0.43212890625
27933630130,0.290405273438,-0.0713500976562,-0.851135253906,0.431518554688
27933644447,0.292541503906,-0.0711669921875,-0.850891113281,0.430480957031
27933667580,0.294555664062,-0.0695190429688,-0.851196289062,0.428894042969
27933697615,0.296447753906,-0.0677490234375,-0.851806640625,0.426635742188
27933711274,0.298461914062,-0.0641479492188,-0.852783203125,0.423767089844
27933727624,0.30029296875,-0.0580444335938,-0.854064941406,0.420837402344
27933750174,0.30224609375,-0.0513916015625,-0.855163574219,0.41796875
27933773292,0.304565429688,-0.0437622070312,-0.856201171875,0.4150390625
27933787584,0.306945800781,-0.0350341796875,-0.857055664062,0.412292480469
27933810071,0.309387207031,-0.0260620117188,-0.857666015625,0.409912109375
27933831237,0.312377929688,-0.0170288085938,-0.857849121094,0.407653808594
27933847623,0.31640625,-0.0074462890625,-0.857666015625,0.4052734375
27933870081,0.321533203125,0.00335693359375,-0.857177734375,0.402282714844
27933891477,0.327026367188,0.0152587890625,-0.8564453125,0.399169921875
27933907626,0.332092285156,0.0285034179688,-0.855529785156,0.396179199219
27933930099,0.337280273438,0.0419921875,-0.854370117188,0.393127441406
27933951237,0.342712402344,0.0546264648438,-0.853210449219,0.389404296875
27933968301,0.348510742188,0.0665283203125,-0.85205078125,0.384826660156
27933990143,0.354736328125,0.0782470703125,-0.850830078125,0.379577636719
27934011246,0.3603515625,0.0908813476562,-0.849609375,0.374267578125
27934027591,0.364196777344,0.104614257812,-0.848571777344,0.369262695312
27934050116,0.366821289062,0.118286132812,-0.847778320312,0.364196777344
27934071307,0.368957519531,0.130554199219,-0.847351074219,0.358947753906
27934087609,0.37060546875,0.141845703125,-0.847045898438,0.353698730469
27934110144,0.370483398438,0.153259277344,-0.846984863281,0.34912109375
27934131259,0.368896484375,0.165100097656,-0.847106933594,0.345092773438
27934147625,0.3662109375,0.176330566406,-0.847473144531,0.341430664062
27934170086,0.362426757812,0.185791015625,-0.848388671875,0.338195800781
27934191167,0.356689453125,0.193908691406,-0.85009765625,0.335388183594
27934213782,0.349731445312,0.201416015625,-0.852355957031,0.332641601562
27934230138,0.341979980469,0.207458496094,-0.855163574219,0.329650878906
27934251282,0.333435058594,0.210998535156,-0.858947753906,0.326354980469
27934258127,0.323486328125,0.212158203125,-0.863830566406,0.322692871094
27934274399,0.312805175781,0.212097167969,-0.869262695312,0.318603515625
27934295508,0.301391601562,0.211608886719,-0.874816894531,0.314697265625
27934317950,0.289306640625,0.210693359375,-0.880615234375,0.310607910156
27934334402,0.276794433594,0.209167480469,-0.886596679688,0.305908203125
27934355528,0.264221191406,0.205871582031,-0.892822265625,0.301086425781
27934378142,0.250854492188,0.202819824219,-0.898986816406,0.296325683594
27934394512,0.236022949219,0.200927734375,-0.904846191406,0.291870117188
27934415523,0.220825195312,0.198669433594,-0.910461425781,0.287719726562
27934438102,0.20556640625,0.195556640625,-0.915893554688,0.283874511719
27934453064,0.190734863281,0.1923828125,-0.920837402344,0.280456542969
27934475618,0.176391601562,0.188781738281,-0.925415039062,0.27734375
27934498117,0.162536621094,0.183715820312,-0.929748535156,0.274536132812
27934514477,0.149291992188,0.178894042969,-0.933532714844,0.2724609375
27934535619,0.136474609375,0.174987792969,-0.936767578125,0.270690917969
27934558113,0.124694824219,0.170593261719,-0.939636230469,0.269287109375
27934573100,0.113525390625,0.166381835938,-0.942138671875,0.267944335938
27934595641,0.102478027344,0.162414550781,-0.944458007812,0.266723632812
27934618255,0.0914306640625,0.159851074219,-0.946411132812,0.265441894531
27934633096,0.080322265625,0.157653808594,-0.948120117188,0.264221191406
27934655590,0.0695190429688,0.155456542969,-0.949645996094,0.263122558594
27934678047,0.0589599609375,0.152893066406,-0.951171875,0.26171875
27934693099,0.0484619140625,0.149780273438,-0.952819824219,0.259460449219
27934715613,0.0376586914062,0.145324707031,-0.954772949219,0.256591796875
27934738131,0.0265502929688,0.141174316406,-0.956665039062,0.25341796875
27934753129,0.0152587890625,0.13818359375,-0.958251953125,0.249877929688
27934775502,0.00433349609375,0.1357421875,-0.959594726562,0.246459960938
27934798222,-0.0054931640625,0.133117675781,-0.960693359375,0.243591308594
27934812984,-0.013427734375,0.129943847656,-0.961669921875,0.241271972656
27934835532,-0.0203857421875,0.127563476562,-0.962341308594,0.239196777344
27934857989,-0.0269165039062,0.12646484375,-0.962829589844,0.237121582031
27934874485,-0.0325927734375,0.125305175781,-0.963134765625,0.23583984375
27934895603,-0.0374145507812,0.123474121094,-0.96337890625,0.235107421875
