27421511137,-1,0,-1,-2,-3,-3,-2,-2
27421511137,0,-2,-3,-1,-2,-2,-2,-2
27421511978,-2,-2,-2,-2,-3,-3,-2,-2
27421511978,-1,-3,-5,-1,-3,-3,-3,0
27421515492,-1,-4,-2,-1,-2,-1,-1,0
27421515492,-2,1,-3,-1,-3,-4,-4,-3
27421516175,-2,-5,-5,-1,-2,-2,0,0
27421516175,-8,-5,1,-3,0,0,-1,-7
27421522530,0,1,-2,0,1,2,-1,0
27421522530,-1,3,6,1,-1,-3,0,-2
27421530467,-1,2,3,1,0,1,2,-1
27421530467,2,-5,-9,-4,-2,-4,-4,-1
27421536841,-3,-8,-5,-1,-2,-2,0,-1
27421536841,0,0,6,2,1,1,-1,2
27421560093,-2,2,0,-2,-3,-4,-4,-1
27421560093,1,2,3,2,-2,-2,0,-2
27421560815,-2,-1,-6,0,-1,0,-1,0
27421560815,0,1,0,-1,0,0,-2,-2
27421584206,0,-2,4,1,-1,-1,-1,-2
27421584206,-1,1,-2,1,0,0,-1,0
27421586244,0,0,-1,-2,-1,-2,-2,-2
27421586244,0,-4,-3,-3,-2,0,-1,-1
27421598101,0,-1,-3,-1,0,2,0,-2
27421598101,0,2,-2,-1,1,-1,1,-1
27421644390,0,-4,2,1,-1,-4,-6,-3
27421644390,2,14,-2,-3,-2,2,3,1
27421645149,3,-1,-1,0,1,4,3,1
27421645149,-1,0,-1,-1,0,0,-1,-2
27421645898,-2,-4,-1,-3,-1,-3,-2,-2
27421645898,0,-3,-2,-3,-3,-5,-1,-1
27421646723,-3,-6,-8,-2,-3,-6,-4,0
27421646723,2,3,5,1,0,2,2,0
27421650636,-3,0,-5,-1,-2,0,0,-1
27421650636,-3,-1,7,0,0,-2,-4,-3
27421656623,-1,0,-10,-4,-2,-2,-3,-2
27421656623,1,-2,1,0,-1,-1,-2,-2
27421671781,-4,-4,-2,-1,-2,-1,-1,-2
27421671781,-2,-3,-7,-1,-2,-1,-2,-1
27421679256,-6,-5,3,0,-1,-1,-1,-3
27421679256,1,7,-7,-2,-2,-3,-3,-1
27421688157,0,0,2,0,-1,-1,-1,0
27421688157,0,-6,-6,-1,-1,0,-1,-1
27421711113,-2,-3,3,-1,-2,-2,-2,-1
27421711113,-4,-5,-3,-3,-2,-4,-1,-1
27421716811,-3,-5,-9,-4,-4,-2,-1,-2
27421716811,-2,-5,2,1,0,-1,-1,-2
27421724223,0,2,3,0,-2,0,-1,-2
27421724223,-3,-6,-7,-2,-2,-2,-1,0
27421740681,1,2,5,0,-1,0,-1,-1
27421740681,-1,2,2,4,5,-2,1,-1
27421748033,-1,-4,-9,-3,-3,-2,-1,-3
27421748033,-1,3,9,-2,-3,-1,-2,-3
27421749637,-3,-5,-5,-3,-3,-2,0,-3
27421749637,0,-4,-6,3,2,0,-1,-1
27421770571,3,7,9,7,4,1,0,-1
27421770571,-2,-2,4,11,5,1,-3,-2
27421772135,2,1,1,1,0,1,2,0
27421772135,-5,-8,-7,-6,-5,-2,-2,-2
27421793062,-2,3,-1,-8,-5,-1,0,-2
27421793062,-4,-8,-7,-2,-3,-3,-1,-2
27421794600,1,4,6,3,0,1,-1,1
27421794600,-2,-8,-6,-6,-5,-2,-1,-2
27421808081,-1,8,2,1,1,0,-1,-2
27421808081,-2,-3,-5,1,-2,1,-1,1
27421809632,-2,-6,-8,-7,-5,-3,-1,1
27421809632,-2,3,3,0,-2,0,0,-3
27421830576,0,2,6,12,12,4,1,0
27421830576,1,-5,5,-4,-3,-2,1,-2
27421832172,-1,8,5,2,1,0,0,-3
27421832172,1,-2,-4,-7,-5,-2,-1,0
27421844309,-1,-7,-7,-9,-7,-5,-3,0
27421844309,-1,2,-4,-5,-1,-2,-1,-4
27421853900,-1,-3,-1,-1,-1,-2,-1,-2
27421853900,-5,0,1,-3,-6,-2,-3,-3
27421868121,2,-5,0,7,4,2,2,0
27421868121,-1,-3,-5,-2,1,-1,-2,0
27421869606,0,3,1,-4,-9,-4,-2,-2
27421869606,3,6,13,20,17,7,3,1
27421890680,-2,-9,4,6,5,4,1,-1
27421890680,-1,3,-13,-9,-5,-3,-2,-2
27421892125,-3,11,17,-1,-6,-4,-4,-4
27421892125,-2,-3,-6,-12,-9,-5,-2,-1
27421904282,-5,-6,-4,-8,-10,-6,-4,-2
27421904282,-3,-6,-5,0,6,2,1,-1
27421920632,4,2,-4,2,2,0,-1,0
27421920632,2,-1,-6,-2,0,0,2,0
27421927472,-2,2,-1,-9,-10,-5,-3,-3
27421927472,4,-3,-1,-4,-4,-2,0,5
27421941708,-3,-8,-7,1,7,4,2,0
27421941708,3,1,4,-1,-3,-1,-1,1
27421950556,-6,1,-8,-9,-4,0,-1,0
27421950556,1,-3,3,13,11,4,2,4
27421952108,-1,-2,4,-1,-3,-2,-2,-1
27421952108,-3,-1,-14,1,1,1,1,1
27421964306,-5,-7,-3,-3,-3,-4,-3,-2
27421964306,-3,-2,2,-11,-14,-9,-5,-1
27421973195,7,0,-7,0,1,0,-2,0
27421973195,-8,0,4,3,7,4,2,0
27421995648,0,1,1,6,4,0,-2,3
27421995648,2,6,14,13,9,7,1,-2
27421997157,-13,-16,-20,-19,-10,-8,-3,-2
27421997157,6,2,2,-8,-11,-6,-1,1
27422010628,-1,-7,-10,3,7,3,1,1
27422010628,-5,0,3,0,-5,-4,-3,-3
27422012124,1,-3,-7,0,2,1,-1,-1
27422012124,-2,4,3,-4,-3,1,-3,-3
27422032991,4,-3,4,7,4,-3,-5,2
27422032991,-2,13,-1,-16,-14,-5,3,2
27422034583,-5,-1,10,13,5,-1,-3,-8
27422034583,9,0,-3,-5,-5,-1,2,4
27422047418,-12,-7,-4,-13,-6,-3,-3,-7
27422047418,-9,-7,3,16,10,3,-2,-4
27422054229,2,6,8,9,5,1,1,3
27422054229,-2,-5,3,3,-2,-7,-4,-2
27422071071,5,5,-5,-6,-1,-1,0,1
27422071071,-2,-9,-8,-5,-6,-3,0,-2
27422072608,-2,0,-11,-16,-7,3,3,1
27422072608,2,0,7,14,4,1,-3,-4
27422092993,1,-1,-8,1,-4,-2,-1,-2
27422092993,-2,-5,6,-2,1,-1,0,-2
27422094614,1,9,-8,-1,2,0,2,0
27422094614,-8,-8,-8,-7,-3,0,1,-1
27422107469,-2,-9,-11,-4,-8,-5,-3,-3
27422107469,4,8,9,7,9,4,0,-1
27422114293,-6,-7,0,6,0,-4,-4,1
27422114293,1,2,-5,17,11,-1,-5,-1
27422130664,10,18,28,-1,-4,6,11,5
27422130664,1,0,-20,-9,-8,-6,-5,-3
27422132163,0,-8,-1,-14,-12,-6,-3,-2
27422132163,-14,-11,-2,3,4,1,0,-4
27422153129,1,0,-6,2,0,-5,-4,0
27422153129,-1,-5,0,-1,0,0,0,-1
27422154606,3,8,17,2,3,2,-4,0
27422154606,3,9,1,-6,-4,-2,4,2
27422167317,0,-8,-4,2,4,6,6,2
27422167317,-1,11,6,-8,-8,-5,-2,-3
27422174170,-2,-4,-29,-7,0,-3,-6,-1
27422174170,-3,0,18,-5,-7,-4,-4,-1
27422190566,6,-3,2,6,5,1,2,3
27422190566,3,-5,-4,3,1,-2,-4,-2
27422192103,-8,-5,-3,-8,-7,-6,-1,-5
27422192103,1,2,1,3,0,3,-2,-2
27422212986,1,7,7,10,3,-2,-4,-2
27422212986,1,3,-4,-12,-9,-1,1,0
27422214607,5,9,4,4,6,6,8,6
27422214607,-10,-23,-30,-13,-4,-2,-3,-4
27422226643,-5,10,41,15,-2,1,0,0
27422226643,-6,-4,-16,-4,0,-2,-2,-3
27422235662,3,-1,4,2,-1,0,-3,-1
27422235662,9,2,-5,1,3,0,1,2
27422251036,-2,7,3,6,9,7,2,1
27422251036,-10,-8,-16,-16,-9,-9,-8,-6
27422252581,-1,-4,-7,8,-1,-1,4,0
27422252581,-3,-4,-15,-8,1,5,1,-1
27422273126,3,3,-8,-10,-6,-7,-8,-5
27422273126,8,1,29,6,3,8,5,4
27422274582,-3,-2,-24,-16,-8,-3,-5,-3
27422274582,-13,-1,-2,12,2,0,2,-5
27422286661,-2,-6,0,9,3,1,1,-2
27422286661,-34,-27,-29,-28,-9,-1,1,-7
27422295668,29,18,41,18,2,-1,-2,7
27422295668,2,-1,-3,10,9,2,-6,5
27422310656,-5,-6,-45,-22,-9,-6,-11,-9
27422310656,3,15,59,32,5,0,9,5
27422312134,-8,-42,-74,-47,-19,-2,2,-1
27422312134,-16,7,-10,-19,-11,-5,-3,-6
27422333094,-16,5,65,21,0,-10,-32,-12
27422333094,5,16,26,24,8,10,27,3
27422334621,-8,-1,0,-5,1,2,-3,-7
27422334621,8,-7,-18,-22,-13,-5,3,7
27422346766,1,-15,-51,-28,-14,-4,4,-2
27422346766,-13,-8,13,22,13,2,-20,-5
27422355665,2,-11,-15,5,-1,-3,-1,-2
27422355665,13,27,32,-3,-7,-10,-7,0
27422370518,16,12,1,-16,-6,5,15,10
27422370518,17,17,60,30,16,9,0,-1
27422372119,-14,-2,-3,-5,0,-4,4,-2
27422372119,-10,-16,-38,-14,-6,-4,-8,-5
27422400714,-3,-1,3,2,-1,-10,-8,-4
27422400714,-2,-12,-51,-19,-6,0,3,0
27422402131,-7,6,38,13,11,9,2,0
27422402131,12,12,23,9,1,4,1,3
27422406772,1,0,5,10,1,1,4,1
27422406772,6,3,-35,4,15,8,2,3
27422415633,-13,-1,79,31,9,1,-4,-6
27422415633,-14,-32,-78,-37,-17,-15,-18,-13
27422430659,35,41,57,21,5,7,20,18
27422430659,-20,-15,-50,-46,-26,-16,-16,-8
27422432145,19,13,28,16,2,-4,-10,3
27422432145,0,14,11,16,7,4,11,-4
27422453017,-20,-11,32,-11,-7,-4,-4,-7
27422453017,7,-2,-23,-25,-17,-13,-6,0
27422454593,-13,-21,-32,-3,-8,-5,-1,-3
27422454593,-11,15,52,44,32,14,-1,-4
27422466743,7,-14,-64,-30,-12,-4,-1,1
27422466743,17,2,15,0,-2,-3,1,5
27422475630,5,12,-14,-15,-13,-5,-4,-2
27422475630,2,-8,-3,11,5,1,2,2
27422490602,-18,-4,4,8,4,4,3,-5
27422490602,-12,-24,-33,-12,-7,-12,-19,-9
27422492103,16,18,16,15,9,3,4,7
27422492103,0,-12,9,-1,0,5,6,6
27422514427,4,-3,-67,-31,-7,-4,1,0
27422514427,-13,-15,40,23,3,1,1,-3
27422516036,-12,-6,-41,-8,-6,-2,6,-3
27422516036,-1,2,26,0,3,2,4,1
27422526638,5,-7,-28,2,5,2,1,7
27422526638,23,14,5,19,2,-3,-7,4
27422543124,-6,-2,46,11,10,4,-6,-3
27422543124,-1,-19,-60,-46,-23,-11,1,0
27422550501,-10,11,34,13,0,-3,-6,-10
27422550501,-8,-1,-21,-2,-2,-4,-2,-4
27422552119,6,20,34,14,3,0,-3,0
27422552119,-5,-16,-19,-17,-13,-4,-5,-1
27422573089,-2,-18,-24,-21,-10,-2,4,3
27422573089,-19,-7,16,13,5,2,1,-3
27422574592,-1,-8,-62,-18,-2,-3,-5,-5
27422574592,22,9,11,1,-1,4,10,4
27422586791,-4,21,78,17,5,10,10,1
27422586791,10,16,-21,-21,-11,-6,0,-3
27422595666,-27,-27,-5,-5,-9,-8,2,3
27422595666,16,1,27,20,13,5,-1,3
27422617114,-10,-1,2,-14,-12,-11,-19,-9
27422617114,12,7,-39,-11,-6,3,11,5
27422625591,1,-1,-18,-23,5,6,0,-3
27422625591,-15,13,13,13,0,-5,-5,-4
27422632311,-24,-37,-40,-9,2,0,-2,-5
27422632311,2,11,67,16,0,-2,-3,-1
27422639107,24,7,-23,23,25,11,-1,5
27422639107,11,35,37,11,-7,-11,-2,3
27422655467,11,-21,-47,-9,-4,-8,-8,-1
27422655467,9,37,51,1,12,22,3,2
27422657086,-2,-16,-38,-42,-19,2,21,9
27422657086,-3,18,60,25,-1,-1,5,-1
27422678577,-16,-4,-2,31,19,-1,-8,-4
27422678577,-5,-23,-31,-28,-8,-7,-3,-1
27422680110,-4,24,57,8,-1,-4,-4,-5
27422680110,5,4,25,-16,-11,-2,-4,-3
27422692416,8,-1,-30,13,-5,-10,-2,-1
27422692416,-4,3,36,17,11,7,1,-2
27422699275,-12,-8,5,-4,-2,-1,-12,-3
27422699275,-26,-35,-30,-2,-8,-11,-7,-5
27422715453,-2,7,27,10,-6,0,11,8
27422715453,37,-2,-64,-30,-10,-5,-8,3
27422717085,-5,20,34,37,17,4,1,-1
27422717085,-3,13,28,13,3,-9,-5,-11
27422737932,-7,-11,4,11,3,7,-5,-12
27422737932,-5,-34,-54,-19,-7,0,27,27
27422739548,9,18,64,33,5,1,0,-3
27422739548,-11,-18,-42,-13,-6,-4,-10,-2
27422751614,-16,-5,-28,-23,-8,-6,-3,-11
27422751614,-9,-4,-3,1,-6,-9,-12,-6
27422760587,15,0,1,17,9,0,-3,6
27422760587,-5,0,-2,-13,17,18,1,1
27422775524,10,4,24,-3,-9,-2,10,9
27422775524,-14,-11,-36,-6,-4,-9,-10,-13
27422777171,-30,-35,-52,-43,-28,-9,3,-5
27422777171,26,14,15,25,16,11,3,10
27422798088,23,26,9,-2,8,6,0,1
27422798088,-10,-34,4,-5,-7,-7,-15,-5
27422799587,-7,21,-21,-19,-12,-14,-31,-19
27422799587,12,4,11,1,7,12,32,18
27422811797,0,8,40,8,3,6,9,6
27422811797,-3,0,-10,-9,-4,-5,3,2
27422820616,-5,-12,-39,-27,-15,-9,-18,-14
27422820616,0,-13,-15,13,1,1,4,1
27422835622,-20,-2,22,1,7,2,-5,-8
27422835622,6,17,-17,-4,-10,-9,-8,-5
27422837117,28,37,96,45,13,10,8,16
27422837117,-23,-29,-88,-31,-12,-14,-13,-18
27422858174,4,-31,-53,-13,-3,3,3,5
27422858174,-8,32,71,35,16,7,2,-4
27422859599,-13,-49,-65,-4,0,-6,-23,-7
27422859599,6,13,41,-1,3,-1,-15,-9
27422871806,-2,-6,-19,-4,-6,-6,11,11
27422871806,10,1,-23,-2,12,12,15,4
27422880628,0,-9,11,25,3,-2,2,-1
27422880628,8,21,-1,-17,2,2,-7,6
27422895480,4,28,34,-24,-13,-9,-13,-6
27422895480,-10,-23,-45,-8,-3,2,5,2
27422897093,3,11,38,31,11,7,20,1
27422897093,-8,-10,-22,-4,-10,-10,-12,-9
27422925599,-22,-35,-66,-20,-8,-9,-14,-9
27422925599,8,29,89,28,8,7,7,-3
27422927070,-6,-15,-28,-28,-6,-3,5,4
27422927070,-16,4,-30,-10,-10,-9,-13,-19
27422931615,12,-9,-13,11,5,1,-4,1
27422931615,-6,4,51,19,-5,-11,-8,-3
27422940727,0,8,-27,-10,17,24,2,3
27422940727,-7,-12,7,-1,-5,5,30,10
27422955600,10,9,26,-11,-16,-14,-10,1
27422955600,8,7,-5,-2,12,4,1,3
27422957101,-12,5,15,21,12,5,8,-4
27422957101,-10,-18,12,-4,-4,-2,-5,-3
27422978164,5,-6,-24,-3,-4,-6,-24,-6
27422978164,6,-29,-69,-34,-11,0,19,9
27422979653,16,21,21,-2,-17,-13,-3,3
27422979653,6,2,6,-2,-1,-6,-13,-3
27422999888,-29,-31,-22,3,10,2,-4,-11
27422999888,11,31,111,54,7,1,7,0
27423000592,8,-2,-42,-43,-20,-3,13,9
27423000592,-13,-46,-34,-13,-7,-3,-1,0
27423014856,-1,19,-10,7,12,12,17,3
27423014856,-7,-25,-37,0,1,3,-2,-2
27423015624,-26,-10,17,-3,-4,-7,-4,-8
27423015624,29,32,45,26,5,2,7,13
27423037085,-6,-21,-78,-39,-1,8,7,-3
27423037085,1,-4,15,5,0,0,-9,-7
27423052340,3,-4,-25,-5,0,-6,-17,-4
27423052340,-9,8,54,14,-2,-8,3,11
27423059902,22,0,0,19,4,6,9,4
27423059902,-23,15,48,-3,-3,-6,-5,-9
27423060599,-6,-6,2,-4,0,-1,0,-4
27423060599,12,14,-29,-13,-4,-3,-2,2
27423076335,16,30,78,51,7,0,1,2
27423076335,-7,-25,-65,-14,-6,-11,-18,-7
27423077086,7,20,-6,2,-2,-2,-3,-5
27423077086,-15,10,84,61,10,8,2,-1
27423105540,-6,0,-6,-22,-19,-12,-3,-6
27423105540,6,12,-4,1,16,16,8,9
27423106218,-1,1,-4,29,6,-9,2,0
27423106218,3,-46,-128,-41,-7,-1,-1,-8
27423127996,10,31,42,8,0,-4,-10,-1
27423127996,-14,-10,7,16,-2,-2,-14,-8
27423128779,-4,-26,-20,-36,-13,-7,-2,3
27423128779,18,44,45,24,13,11,10,3
27423134847,-10,-1,-10,-4,-1,2,3,4
27423134847,-18,-28,-62,-69,-30,-10,-3,-6
27423135538,21,17,0,26,8,1,-2,7
27423135538,-9,-3,13,-2,-10,-13,-23,-11
27423157267,-20,-29,-25,-24,-10,3,13,-2
27423157267,-5,-17,-39,11,7,2,19,7
27423158035,-17,-2,38,-21,-6,7,7,-3
27423158035,35,64,84,37,8,-3,-3,4
27423179731,12,38,45,29,11,3,-16,0
27423179731,-11,-37,-74,-32,-10,-7,0,-4
27423180534,-5,-30,-59,-24,-9,-1,9,7
27423180534,-15,-10,-24,4,21,10,-12,-12
27423194868,2,-16,26,24,-3,-8,-5,-1
27423194868,13,29,41,25,6,-5,-17,-4
27423195569,0,-6,8,-8,-6,-2,5,0
27423195569,-11,3,18,-12,-13,-13,-3,-4
27423217239,-8,-32,-81,-22,8,25,28,10
27423217239,5,23,14,-7,-4,-6,-7,-1
27423218045,10,-1,-17,24,5,-12,-25,-4
27423218045,-1,-8,10,-11,1,3,15,9
27423239782,-4,10,60,19,-3,-7,-16,-10
27423239782,2,0,-38,-23,-13,-8,-5,-2
27423240575,7,5,-34,-15,6,11,0,1
27423240575,2,-5,-48,-15,2,10,11,2
27423254750,-3,-9,-11,-13,-3,-4,-2,2
27423254750,-7,48,99,16,2,-5,-16,-9
27423255678,-3,-14,-7,4,8,12,6,4
27423255678,-7,5,-5,-24,-15,-15,-24,-12
27423277303,-13,-8,-19,-9,1,0,11,2
27423277303,32,-13,-32,14,2,0,5,9
27423278112,0,59,76,15,-6,-8,2,-3
27423278112,-1,-20,16,21,5,-3,-10,-2
27423291756,-18,-15,-31,-24,-4,-5,-6,-14
27423291756,-27,-14,19,-2,3,5,-3,3
27423299860,14,-17,-21,1,6,6,5,-1
27423299860,5,3,8,-12,-18,-11,1,2
27423314951,-5,-7,-2,2,-6,-9,-20,-11
27423314951,-1,-34,-27,-12,0,3,8,6
27423315621,-11,6,10,-2,-1,-3,5,-1
27423315621,11,33,13,-4,5,11,-7,5
27423337454,16,3,7,7,8,6,14,7
27423337454,16,3,27,44,12,1,-4,3
27423338188,-16,0,-26,-24,-12,-15,-16,-17
27423338188,-6,-15,-20,-17,-10,-5,7,3
27423351816,-10,-11,-5,-17,-5,-6,-6,-4
27423351816,1,-19,-70,-19,5,16,27,7
27423359890,-7,-3,62,38,-1,-13,-13,-10
27423359890,-45,-58,-57,-15,-6,-1,-1,-7
27423374786,74,71,55,31,17,9,9,17
27423374786,-19,8,-18,-14,-12,-12,-9,-9
27423375579,-12,-25,-76,-50,-11,5,10,7
27423375579,11,4,-13,-20,-3,-1,-10,-6
27423397423,-5,4,43,26,7,7,21,8
27423397423,-9,-38,-58,-15,-9,-8,-15,-15
27423398118,3,10,18,3,-3,2,3,-5
27423398118,0,44,70,22,3,-3,-5,4
27423411754,-3,-19,-79,-30,-14,-12,-16,-8
27423411754,12,54,99,74,32,14,11,11
27423427511,20,-6,-41,-14,-4,-5,-7,3
27423427511,-18,-59,-52,-9,2,6,13,0
27423434954,-19,13,73,26,-4,-6,-3,-5
27423434954,-6,-30,-91,-44,-11,-3,-4,0
27423435596,8,53,98,62,16,5,-7,-3
27423435596,9,38,6,4,8,7,17,8
27423457356,-3,-17,-38,-6,1,-5,-6,2
27423457356,1,-18,-16,-20,-16,-3,16,2
27423458081,-7,12,54,7,3,-5,-16,-6
27423458081,-13,-27,-42,-7,-10,-4,-3,-6
27423480621,0,29,55,24,6,2,0,-2
27423480621,-1,-16,26,22,5,-4,-11,1
27423481298,16,28,13,-22,-18,-19,2,-4
27423481298,-14,-26,-16,14,-1,1,-2,-9
27423494744,23,-4,-40,-62,-30,-10,9,20
27423494744,-1,39,54,15,6,-3,-17,-12
27423495600,-2,-6,34,39,15,8,11,3
27423495600,-13,-26,-71,-41,-4,6,24,-3
27423517475,4,-19,-27,0,-3,-5,-11,-4
27423517475,-2,-4,8,-7,-3,-11,-16,-11
27423518076,-15,-24,-51,-24,-9,2,25,9
27423518076,13,8,13,-3,0,0,2,16
27423540646,19,13,-21,-3,8,8,3,1
27423540646,-13,-12,-11,-26,-16,-10,-7,-8
27423541269,-2,-30,-14,16,16,13,3,5
27423541269,-8,-6,-4,8,-10,-26,-28,-24
27423554818,0,-3,-72,-51,-9,11,16,6
27423554818,-13,15,49,42,17,3,-6,-7
27423555559,1,1,20,2,2,2,-4,2
27423555559,18,-1,-2,-14,-7,-12,-26,1
27423577414,-31,-5,53,18,1,-1,9,-10
27423577414,15,32,-13,-26,-8,5,14,2
27423578482,-15,-34,-63,-14,-9,-6,-8,-5
27423578482,17,13,-26,-18,-9,-1,-11,-3
27423600491,8,16,47,21,6,-7,-24,5
27423600491,-5,12,46,38,9,5,26,14
27423601226,-4,-19,-29,-31,-14,-4,5,1
27423601226,12,2,48,38,-1,-11,-11,-5
27423614776,-11,-12,-82,-16,14,5,-8,-6
27423614776,12,23,76,38,4,0,0,10
27423615620,10,-23,-111,-79,-22,-11,-24,-14
27423615620,-20,16,115,58,26,33,2,-9
27423637289,-14,-44,-78,-39,-7,12,56,22
27423637289,-18,-17,-24,-24,-11,-9,-1,-7
27423638024,15,27,49,28,-2,-2,-1,1
27423638024,-22,-65,-89,-56,-16,-4,-4,12
27423660597,25,23,-5,1,-8,-10,-12,-7
27423660597,5,4,-32,-23,11,5,-12,-4
27423661269,-12,-9,63,30,0,-3,0,1
27423661269,-1,-7,-59,-17,0,2,12,1
27423674950,-32,-31,2,32,15,-3,-15,-14
27423674950,11,3,1,-2,-9,-7,-4,2
27423675642,11,45,47,31,19,6,-3,2
27423675642,4,2,-28,-14,-6,4,21,3
27423697868,-7,4,48,0,-9,-17,-42,-14
27423697868,-8,-32,-13,-7,2,24,38,7
27423704948,-6,-32,-90,-43,-2,5,6,2
27423704948,17,43,107,36,7,4,10,0
27423720439,7,17,36,11,-13,-12,-2,4
27423720439,-15,-29,-61,-36,-5,0,-9,-4
27423721252,-13,12,86,68,20,10,6,1
27423721252,13,8,-18,-18,-7,-11,-6,2
27423734756,-28,-26,16,5,-3,-4,-12,-16
27423734756,22,28,14,-16,-5,-4,-5,3
27423735526,-17,-43,-88,-25,-10,-5,-2,-11
27423735526,9,52,78,19,3,-6,-6,0
27423757268,-23,-29,14,14,2,1,7,2
27423757268,2,-3,-81,-32,-10,-14,-46,-17
27423758052,33,43,51,28,27,30,60,19
27423758052,-6,2,-25,-19,-10,-12,-10,0
27423780490,2,-19,-42,-19,2,10,12,8
27423780490,-6,5,-14,1,-8,-17,-18,-3
27423781224,0,-1,27,-17,-4,-2,-8,1
27423781224,-11,-9,7,27,14,12,15,0
27423794886,16,21,4,-18,-21,-19,-24,-14
27423794886,1,-28,-59,-23,-7,0,21,12
27423795546,-4,3,7,13,5,1,-6,2
27423795546,2,39,57,16,-1,0,5,4
27423817432,-14,-24,-28,-18,-15,-6,-7,-5
27423817432,-16,-13,46,25,18,8,-2,-10
27423818098,12,6,-26,-44,-26,-24,-25,-6
27423818098,-7,-11,-45,-5,12,14,8,5
27423840586,8,4,0,43,28,13,7,2
27423840586,3,-7,3,16,1,-3,-10,0
27423841243,-19,17,44,-4,-4,-3,-1,-4
27423841243,6,-32,-72,-29,-6,-3,-7,-5
27423854784,4,20,22,-19,-22,-16,-13,-5
27423854784,8,30,31,47,19,2,-8,-6
27423855633,0,-17,-10,3,5,14,21,14
27423855633,-15,-64,-110,-40,-7,3,12,2
27423877386,-17,0,70,17,8,9,5,2
27423877386,33,36,-8,-25,-22,-14,0,4
27423878067,3,15,29,17,4,-4,-12,-10
27423878067,12,5,17,6,4,1,-5,2
27423908104,-9,-20,-19,21,9,2,4,-1
27423908104,-18,-18,-30,-11,-9,-1,-11,-2
27423908831,1,1,-45,-19,-3,-2,-1,0
27423908831,-5,-16,19,20,3,2,7,5
27423914877,11,12,53,-11,-13,-13,-3,2
27423914877,-16,20,66,3,-8,-8,-14,-13
27423915548,-16,-38,-57,-31,-1,9,22,0
27423915548,14,7,22,7,-8,-12,-7,-8
27423938802,2,-7,-66,-15,0,-1,-2,-3
27423938802,4,37,101,12,7,16,29,12
27423939606,5,1,3,-8,-13,-10,-11,2
27423939606,-25,-29,-49,-17,0,-5,-14,-13
27423960640,6,-1,2,-15,-5,-3,-4,2
27423960640,-4,-28,-13,9,3,7,10,3
27423961295,-8,-9,-50,-22,-14,-9,-11,-9
27423961295,2,15,7,-10,-6,-1,-5,2
27423975275,11,11,16,34,5,-3,6,-4
27423975275,5,16,17,-26,-16,-1,9,3
27423982514,-2,9,29,24,13,5,-6,3
27423982514,9,5,-23,-24,-7,-10,-15,-5
27423997415,-7,-4,-18,0,5,7,4,-2
27423997415,8,20,9,10,2,-3,-3,0
27423998039,-7,-27,-25,22,12,-1,-11,-7
27423998039,-12,-1,30,8,-10,-7,-8,-8
27424020542,9,17,27,0,5,10,10,9
27424020542,8,-39,-110,-49,-18,-8,6,4
27424021279,-8,-10,22,14,3,-6,-14,-3
27424021279,-10,-2,34,52,23,10,3,-2
27424034924,17,15,3,-1,-6,-3,-6,9
27424034924,-9,-12,-2,-8,0,7,11,-11
27424035593,0,0,-40,-35,-11,-14,-24,4
27424035593,-31,-48,-45,-32,-12,-1,17,-11
27424057271,2,33,18,-13,-5,-1,-2,5
27424057271,21,10,9,17,11,4,4,7
27424058051,-5,-27,-52,-2,11,0,-11,-4
27424058051,2,33,48,4,-6,-5,-4,-1
27424080665,4,3,19,16,11,11,6,-3
27424080665,4,17,47,3,1,-7,-16,-5
27424081294,-16,-30,-52,-6,-9,-6,7,-9
27424081294,14,10,-2,-3,5,5,3,9
27424094224,-26,-15,-23,-27,-4,-3,-11,-13
27424094224,8,-10,-29,-5,-13,-10,-13,-1
27424102451,17,11,11,24,11,11,10,6
27424102451,-5,5,36,46,18,5,1,-2
27424117371,-8,3,20,-5,-12,-16,-22,-8
27424117371,-1,-17,-48,-2,-3,-14,-11,-8
27424118065,-29,-19,26,-36,-22,-1,13,3
27424118065,42,7,-23,-3,1,4,9,16
27424140604,-19,-13,-12,8,-2,-8,0,-13
27424140604,15,3,-38,-26,-1,6,6,3
27424141269,11,13,74,39,16,1,-13,-5
27424141269,6,49,29,-3,1,0,-3,-1
27424154241,-8,-24,18,7,-8,-6,4,0
27424154241,-23,4,-31,2,1,-2,-2,-5
27424162330,7,-7,-27,-13,-12,-6,-3,-2
27424162330,11,6,36,14,2,-6,-14,-2
27424177124,-5,-16,-37,-13,2,11,6,-2
27424177124,-17,-4,12,17,0,-4,-9,-5
27424184762,0,-1,-19,-19,-5,2,6,3
27424184762,-9,-13,-20,1,-12,-19,-26,-9
27424200423,13,8,-53,-18,-3,-3,-2,4
27424200423,-2,18,99,64,24,17,8,10
27424201223,11,6,-53,-35,-8,18,48,17
27424201223,-2,-4,-34,-9,-3,-4,-9,-12
27424214105,4,12,26,14,8,6,4,6
27424214105,12,-3,-19,-20,-11,-9,-10,2
27424222295,-5,-4,-16,-24,-12,-11,-8,-9
27424222295,-11,-5,44,2,-6,-4,6,6
27424237228,-9,-36,-44,-22,-5,0,0,-2
27424237228,8,18,15,2,10,5,-1,1
27424238030,-10,13,26,14,-4,-11,-18,-13
27424238030,0,3,10,-15,-7,1,15,-1
27424260457,23,4,-2,9,0,-5,-1,11
27424260457,-24,-10,18,-13,-9,-11,-19,-18
27424261245,-14,-8,-5,-12,-2,11,30,6
27424261245,20,1,-35,-19,-10,-8,-9,0
27424282971,-10,16,40,49,28,12,6,0
27424282971,7,-8,-28,-26,-9,3,-2,4
27424283750,-8,-17,-30,1,-5,-9,-8,-6
27424283750,-8,18,56,24,14,7,9,7
27424297395,12,7,-20,-26,-19,-11,-10,-2
27424297395,-21,-46,-51,-6,1,5,7,-6
27424298054,7,11,27,49,11,-7,-29,-9
27424298054,-2,-9,-41,-22,-7,1,16,14
27424321079,19,59,87,29,4,-10,-15,-10
27424321079,-12,13,81,27,26,18,7,-3
27424321774,0,-56,-86,-17,-5,-7,-17,0
27424321774,-8,-16,-15,-29,-9,9,25,1
27424343086,17,51,50,14,0,-1,1,4
27424343086,-1,-23,-73,-30,-4,-3,5,4
27424343748,5,30,85,26,3,0,3,-4
27424343748,-12,-35,-45,2,4,-6,-8,-13
27424357281,6,-10,-45,-31,-4,5,3,3
27424357281,-4,-2,-13,-1,-10,-11,0,-3
27424358020,4,19,-4,-8,3,14,20,8
27424358020,1,17,63,51,12,-1,-10,-4
27424380634,-10,-47,-66,-11,3,-4,-32,-13
27424380634,30,25,55,49,12,15,32,23
27424381299,-3,10,55,-4,-5,-14,-25,-12
27424381299,-11,0,-50,-39,-10,4,10,-1
27424394209,-22,-14,-51,-22,-16,-8,-2,-12
27424394209,8,-11,37,20,9,1,-6,-1
27424402443,-7,9,6,-1,-4,-2,-2,3
27424402443,13,-6,-9,2,8,7,3,0
27424417388,7,37,56,-32,-14,-17,-47,-24
27424417388,-23,19,32,11,-1,6,46,23
27424418046,-24,-31,-23,-16,-9,1,-5,1
27424418046,31,4,0,12,-1,-4,6,9
27424440575,-15,-27,11,36,14,4,19,10
27424440575,9,-6,-16,-29,-17,-15,-27,-15
27424441270,0,22,38,33,13,0,-6,2
27424441270,-2,-36,-73,-48,-21,-6,-15,-1
27424463022,1,41,99,42,4,6,19,6
27424463022,-9,13,-16,-4,-8,-16,-29,-15
27424463723,15,16,22,11,4,7,13,12
27424463723,-2,-9,-33,6,-4,-1,16,12
27424485486,-9,-28,-15,-5,1,7,15,-6
27424485486,-15,3,-9,-20,-6,-12,-20,-13
27424486273,14,9,-11,9,8,-3,-26,-18
27424486273,-18,4,25,-5,2,7,16,2
27424500586,21,-44,-91,-38,-13,-5,-7,4
27424500586,-5,27,27,-8,-5,6,16,2
27424501236,17,-17,-20,10,3,0,-2,2
27424501236,-1,14,69,52,22,3,-15,-6
27424522989,-30,-13,-65,-16,2,1,8,-5
27424522989,-1,-12,32,5,-1,0,-20,-9
27424523724,-3,5,-29,-33,-26,-14,10,3
27424523724,0,-7,-6,-7,1,3,5,1
27424537276,-18,-20,-2,19,19,14,21,8
27424537276,13,8,-5,-16,-11,-15,-17,-3
27424538044,12,0,-28,-8,3,12,-1,6
27424538044,-8,5,4,13,-2,-2,-6,-11
27424560568,-5,8,22,2,-5,-6,-4,-6
27424560568,-18,-50,-48,7,7,13,30,13
27424561267,8,14,-42,-32,-6,-1,0,0
27424561267,-12,-2,-14,-8,-8,-9,-19,-8
27424582945,-25,-4,18,-32,-15,-7,-5,-8
27424582945,28,4,6,40,16,6,1,4
27424583737,20,13,48,32,11,7,10,10
27424583737,-15,-27,-59,-31,-10,-11,-24,-17
27424596591,12,33,53,-10,-9,2,14,18
27424596591,-21,-12,-11,5,4,-1,10,-7
27424605628,-15,10,52,3,-11,-17,-17,-13
27424605628,4,-3,-34,-45,-9,0,15,-2
27424620508,-11,-39,-53,8,2,0,-8,-10
27424620508,2,2,8,4,-9,-14,-37,-11
27424622077,22,21,45,14,12,17,45,22
27424622077,-10,17,53,44,8,-13,-45,-20
27424643400,-23,-69,-105,-41,-9,6,33,12
27424643400,24,25,12,-13,-1,13,24,12
27424649056,-14,-24,-35,-32,-15,-19,-19,-9
27424649056,26,26,77,90,22,2,-6,11
27424656663,2,41,85,26,9,5,3,-10
27424656663,-18,-37,-76,-33,-11,-6,-3,3
27424665666,-14,-5,-9,-1,-3,-4,7,-10
27424665666,14,11,-13,-39,-13,-1,9,10
27424680573,4,2,3,18,1,-6,-13,-5
27424680573,-9,-14,5,-3,-7,-4,4,-5
27424682061,-5,28,45,58,22,0,-2,-2
27424682061,2,6,33,18,9,-6,-32,-10
27424703029,35,6,-64,-39,-17,9,37,17
27424703029,-11,-15,-5,-40,-18,-10,-7,0
27424704605,-20,-40,-57,-23,-17,-7,-18,-17
27424704605,-6,-6,-1,15,4,2,4,0
27424717344,7,27,38,-4,9,14,26,8
27424717344,-1,-19,-68,-26,-3,7,18,11
27424724102,9,11,70,37,-6,-15,-13,-4
27424724102,-11,21,77,11,7,13,29,9
27424740582,-14,-9,-70,-19,-13,-25,-43,-21
27424740582,6,6,7,-5,0,7,2,-2
27424742085,3,-13,-53,-48,-22,-9,-3,0
27424742085,2,-8,-20,-13,8,3,3,3
27424762952,10,30,53,39,9,-1,-14,-3
27424762952,8,-4,51,54,11,-3,-7,-2
27424764537,-7,-19,-75,-39,-11,-8,-15,-7
27424764537,-9,26,12,-10,-10,-3,8,5
27424777460,9,1,55,14,8,9,5,4
27424777460,-17,-19,-93,-40,-9,-9,-27,-15
27424784210,-18,-29,-4,-6,4,14,46,6
27424784210,-7,-23,-50,-27,-9,7,0,-9
27424800603,14,25,50,14,7,2,3,9
27424800603,-2,-33,-47,11,7,8,23,11
27424802088,31,98,117,29,6,-8,-23,-10
27424802088,-12,-34,-40,-34,-15,1,1,3
27424823082,7,9,0,30,13,-4,-9,1
27424823082,5,12,2,-8,-2,1,-1,1
27424824590,-20,-38,-90,2,17,12,-1,-2
27424824590,9,34,72,30,3,-2,4,-5
27424837933,-6,-21,-73,-50,-14,-11,-16,-1
27424837933,18,33,83,56,13,-2,-9,-2
27424844249,-8,-14,-25,-26,-4,9,7,2
27424844249,-5,0,0,-3,-7,-7,-6,-4
27424860602,17,-7,-7,-6,1,8,30,18
27424860602,-10,33,43,26,0,-2,-6,-8
27424862118,8,3,57,11,-1,5,-4,5
27424862118,1,-54,-69,-20,-7,-9,-1,-2
27424883074,-17,42,47,12,-8,-11,-18,-14
27424883074,7,6,24,1,3,1,1,-1
27424884560,11,-12,-34,-23,-16,-8,-2,9
27424884560,-20,-23,-49,-8,14,9,1,-4
27424897418,10,0,32,51,3,-9,-19,-4
27424897418,-3,-34,-105,-81,-17,-4,-9,-11
27424904108,7,64,114,56,8,-16,-23,-2
27424904108,2,-33,-110,-29,3,13,25,1
27424920470,-8,24,63,13,-4,-11,-16,-6
27424920470,-14,-14,7,-9,-6,-4,-6,-7
27424922050,-3,-25,-35,-15,0,4,3,0
27424922050,5,20,18,26,0,-10,-9,-1
27424943044,-5,-13,-35,6,1,-1,-6,-7
27424943044,-4,-16,-26,-22,-12,-14,-18,-8
27424944581,-4,-1,48,26,14,18,36,2
27424944581,4,2,-3,-17,-7,-6,-3,8
27424956566,-7,-19,-20,4,0,7,-3,-5
27424956566,4,4,5,13,8,-2,-7,-2
27424965636,0,5,-28,-26,-5,-6,1,1
27424965636,-11,9,26,4,0,4,1,2
27424980233,-1,-29,-40,-31,-11,-3,0,0
27424980233,5,14,29,23,11,11,18,6
27424986545,-8,-7,-11,-5,0,-9,-25,-8
27424986545,0,-5,14,8,2,5,9,-3
27425003051,-2,-21,-51,-32,-6,1,9,12
27425003051,-4,18,35,8,-3,-2,-2,-4
27425004566,4,6,22,21,5,-1,-3,-2
27425004566,0,0,-18,-17,-14,-9,-9,-4
27425016693,-4,-16,-18,-3,4,2,2,-4
27425016693,0,-3,-13,-2,-1,-1,2,3
27425025581,-4,-9,-13,-4,-1,-1,-8,-5
27425025581,6,2,0,-7,0,0,12,5
27425040561,2,6,9,3,-1,-2,-3,-1
27425040561,-3,2,4,4,1,0,3,-3
27425042019,-5,-10,-18,-9,-5,-1,-1,0
27425042019,3,4,12,7,1,-1,-6,-2
27425063143,2,3,9,4,3,1,-3,4
27425063143,4,4,-6,-3,-1,1,6,2
27425064559,-6,-10,-15,-3,1,4,6,-3
27425064559,-2,-2,11,-1,-3,-3,-6,-11
27425076761,-2,-5,-13,0,1,2,2,-7
27425076761,-2,11,17,7,-4,-6,-5,1
27425085579,-4,-12,-11,2,-2,1,3,3
27425085579,-4,-14,0,2,-3,-4,-7,-4
27425100901,6,27,14,9,1,1,3,2
27425100901,3,14,9,6,-1,1,1,1
27425102475,-4,-6,-11,-2,-1,-3,-1,-3
27425102475,1,4,15,9,2,0,-3,2
27425123076,-5,-21,-13,-3,-5,-3,-2,-5
27425123076,0,3,2,-1,-5,-2,1,3
27425124626,0,-3,-5,7,6,5,3,1
27425124626,1,-1,-8,-7,-2,-3,-5,-2
27425136655,-5,-16,-2,0,-1,-2,-1,0
27425136655,-2,15,8,0,0,0,1,-2
27425145585,1,-1,-4,-7,-5,-2,-1,1
27425145585,0,0,-2,-2,-1,-1,-3,-4
27425160486,-1,7,6,2,0,-4,-4,-10
27425160486,-5,-8,-6,-4,0,4,2,9
27425162058,-4,-11,-6,-5,-3,-2,-1,-1
27425162058,3,7,2,-3,-1,-2,-2,1
27425183184,1,16,3,-2,-2,-2,-2,2
27425183184,-4,-26,-9,-1,0,-2,-1,-6
27425184612,-1,1,-2,-2,-1,0,-2,-1
27425184612,-3,2,0,-1,1,1,0,2
27425196672,-6,-10,-12,-7,-2,-1,-3,-1
27425196672,0,-3,-1,-5,-1,-2,-2,0
27425205616,5,24,21,8,1,0,0,1
27425205616,-1,-7,-8,-6,-3,-2,-2,-2
27425227952,2,4,5,2,2,1,-1,1
27425227952,-1,-11,-4,1,2,1,1,-1
27425229551,-5,-20,-12,-10,-5,-3,-1,-5
27425229551,1,14,6,-1,-3,-2,0,4
27425242966,-2,-4,7,3,2,2,2,2
27425242966,0,-13,-8,-4,-3,-4,-2,0
27425244500,0,10,-4,-2,1,1,0,-2
27425244500,-1,0,0,0,-1,-4,-3,-1
27425256621,0,-3,-3,-4,-1,1,0,-1
27425256621,0,16,10,1,-2,-1,-2,-2
27425265645,-3,-6,-1,0,1,2,5,0
27425265645,-8,-11,-5,-1,-2,-2,-4,-2
27425279850,1,-6,-11,-5,-2,-1,-1,-1
27425279850,1,3,0,0,-1,-6,-4,-2
27425286717,5,-3,-2,-5,1,1,0,3
27425286717,-1,9,5,3,0,1,0,0
27425303119,-8,-18,1,1,-2,-4,-3,-6
27425303119,1,17,4,-5,-3,0,-2,-1
27425304581,-4,-13,-8,-4,-4,-4,-3,-1
27425304581,-1,-2,-5,-2,1,0,1,-4
27425325549,-2,0,4,-1,-1,0,1,4
27425325549,0,-12,-11,-1,-1,-4,0,-3
27425327044,4,25,11,4,0,-1,1,4
27425327044,-3,-11,-9,-6,-3,-4,-2,-4
27425341261,2,7,1,-3,-3,-3,-1,-1
27425341261,-5,-13,1,0,0,2,1,-1
27425346779,-4,-2,-3,-2,-3,-3,-2,-2
27425346779,3,1,2,2,-1,-1,-3,0
27425363072,-1,2,0,-2,0,0,-1,-2
27425363072,3,8,2,0,0,2,1,1
27425364575,-4,-11,-4,0,-2,-2,-2,-4
27425364575,0,4,5,1,-1,-2,-1,-1
27425385554,-3,-4,-1,-1,-2,-1,1,0
27425385554,-2,-3,-2,1,1,2,0,-1
27425387068,-1,2,1,-2,-1,-1,-2,-3
27425387068,1,-6,-20,-10,-3,0,0,1
27425399749,-3,1,22,9,0,-2,-1,-4
27425399749,1,6,1,1,1,-2,0,3
27425406791,-5,-8,-21,-9,-3,-1,-2,0
27425406791,7,14,5,0,-2,-2,-2,0
27425422980,1,0,-6,-3,-1,-1,-2,-1
27425422980,-2,-10,0,1,0,-2,-1,-2
27425424565,-2,3,2,-1,-3,1,-2,-2
27425424565,-1,-14,-3,-1,-2,0,-1,0
27425445570,3,18,0,-3,-1,-3,-2,0
27425445570,-5,-8,-1,0,-1,-1,-1,-8
27425447148,0,1,-5,-2,0,-2,-1,-1
27425447148,-6,-17,4,4,1,1,0,-2
27425459893,1,8,5,2,0,1,-2,-3
27425459893,1,0,-7,-3,-2,-1,-1,2
27425466725,-3,-5,-1,-3,-3,-2,-2,-3
27425466725,-1,5,4,1,1,-1,-2,-1
27425482912,-2,-10,-13,-6,-4,0,0,3
27425482912,0,-11,-9,-2,0,-2,-1,0
27425484549,1,12,16,5,-2,-2,-1,1
27425484549,1,5,-4,0,1,0,0,1
27425505570,-4,-7,-4,-2,0,-1,-2,-2
27425505570,1,-1,-3,-2,-1,0,-2,0
27425507082,0,-15,-6,0,-3,-2,-2,-2
27425507082,1,15,4,-1,-2,0,-1,-1
27425519910,-1,0,3,-2,-1,0,0,-1
27425519910,0,0,3,3,1,1,-1,0
27425526699,0,1,2,2,3,0,2,-1
27425526699,-1,3,2,1,0,0,-1,0
27425543048,1,-11,-13,-5,-2,0,1,-1
27425543048,-5,3,2,-4,-3,-2,-2,-4
27425544554,-3,-3,0,0,0,1,-2,0
27425544554,1,5,2,-2,-1,-1,0,0
27425565497,0,-6,-4,1,0,0,0,1
27425565497,3,16,10,2,-2,-1,0,1
27425567132,-2,-7,-4,-4,-3,-4,-2,-3
27425567132,-3,0,-3,-1,-3,-4,-1,-4
27425579196,-6,-12,0,1,-1,-1,-2,-5
27425579196,2,-2,-3,0,0,1,0,-1
27425588102,-1,0,-7,-6,-3,0,0,1
27425588102,0,-9,-2,-2,-1,0,-1,1
27425603548,-2,3,2,0,-2,-2,0,-1
27425603548,-2,0,-8,-5,-1,1,1,0
27425605030,0,5,11,8,1,0,0,1
27425605030,-3,-6,5,2,2,0,0,-2
27425625516,2,11,4,1,3,0,3,0
27425625516,-1,-3,1,-2,-2,-4,0,-1
27425627032,-3,-9,-13,-7,0,-3,-2,-2
27425627032,-1,-4,-3,-1,0,-2,-1,-1
27425639194,-5,-19,-17,-3,-3,-2,-3,-2
27425639194,2,4,8,1,-1,-2,-1,1
27425648102,4,18,12,3,0,2,-1,0
27425648102,-2,0,-2,-2,-1,-4,-1,-3
27425663105,1,9,2,-1,0,1,0,1
27425663105,-3,-5,-9,-4,-4,-4,-2,-4
27425664609,-2,-23,-3,2,2,2,-1,-1
27425664609,-3,6,5,1,1,-2,0,0
27425685552,3,-1,-3,-5,-1,-2,-3,0
27425685552,-5,-1,14,5,3,1,4,4
27425687059,5,-1,-5,-6,-3,-1,-3,-2
27425687059,-4,-8,-7,-3,-2,0,0,-1
27425699261,2,2,0,-1,1,2,1,1
27425699261,-3,-4,2,2,2,1,-1,-3
27425708056,-6,-7,-7,-2,-1,-1,1,-1
27425708056,0,9,6,-2,-5,-3,-5,-5
27425723089,0,2,5,1,-2,-2,-1,3
27425723089,-4,-13,-10,1,-1,2,1,-1
27425724544,-2,17,12,2,1,-1,-1,-1
27425724544,0,-14,-7,-2,-3,-1,0,-1
27425744557,-1,8,3,-1,-1,-1,-2,-4
27425744557,1,0,-7,-2,-2,-2,-3,-2
27425753076,-2,-12,-17,-6,-3,-3,-1,-2
27425753076,-1,-2,7,2,-1,0,0,2
27425759091,-3,-18,-1,2,-1,-3,0,-2
27425759091,5,29,2,-4,-1,-1,-2,-2
27425768118,-5,-6,2,-1,-3,-2,0,-1
27425768118,-2,1,-2,-2,0,-1,0,-1
27425783046,-1,-4,-3,2,-1,0,0,0
27425783046,-3,-6,-9,-4,-5,-1,-3,-2
27425784559,5,10,7,5,3,0,2,1
27425784559,-3,-9,-10,-4,-3,-1,0,2
27425813104,2,7,3,-2,2,-1,-1,-2
27425813104,-1,-4,0,-3,-2,-1,-1,-3
27425814579,0,4,3,2,-2,-1,-1,0
27425814579,-1,-5,-5,1,-2,-2,-1,0
27425819192,-4,-11,-5,-5,-2,-3,-2,-2
27425819192,-1,8,5,4,3,1,-1,0
27425828111,-4,-5,-2,-2,-2,-1,-1,0
27425828111,2,2,-4,0,0,0,0,-1
27425843077,-1,-6,-10,-5,-4,-4,-2,-3
27425843077,0,-3,-2,0,-1,-1,0,-1
27425844578,-1,2,7,2,1,0,-1,-1
27425844578,0,11,0,-1,0,-2,-3,-3
27425865557,-4,6,8,2,0,0,-1,-1
27425865557,-3,-14,2,3,-1,-1,-2,-1
27425867031,-1,-7,-8,-5,-3,-1,0,0
27425867031,-2,5,-5,-2,-2,0,0,-1
27425879240,-1,-1,1,-1,0,-1,0,0
27425879240,0,2,-3,0,-1,0,0,0
27425888082,-3,-7,7,3,-1,-2,0,-2
27425888082,0,-7,-9,-5,-5,-3,-2,1
27425902957,-4,-1,-3,-1,2,-1,0,0
27425902957,0,-15,1,0,-1,-1,-1,3
27425904805,2,23,-2,0,1,1,0,-2
27425904805,-3,-5,-2,-2,-2,-1,1,-2
27425925543,2,6,0,0,-2,2,1,-1
27425925543,-4,-13,-3,-1,-2,-3,-3,-3
27425927049,2,5,-1,-1,-3,-1,-2,0
27425927049,2,4,2,-1,0,-1,0,1
27425939268,-1,-7,4,3,0,-1,-1,0
27425939268,3,16,1,-2,-1,-2,-1,-3
27425948089,-3,-13,-3,-1,0,-1,0,-1
27425948089,-2,14,4,4,2,0,-1,-1
27425962941,3,-4,-6,-4,-3,-3,-3,-2
27425962941,-2,-7,-11,-7,-4,-2,-1,1
27425964526,-2,-7,0,0,-1,-2,-2,-3
27425964526,0,1,-6,-4,0,2,1,0
27425993087,2,16,28,9,1,0,-2,-1
27425993087,-1,0,-16,-4,-2,-1,-2,0
27425994525,-7,-12,-15,-8,-4,-3,-2,-2
27425994525,1,2,18,6,2,-2,-2,-3
27425999205,-2,-4,-24,-9,-4,0,1,-1
27425999205,-2,-14,-1,-1,-1,-1,-2,-1
27426008087,1,-1,4,4,2,-1,0,1
27426008087,2,10,4,2,1,-1,-1,1
27426022947,-3,-2,-3,-2,0,1,0,-5
27426022947,-2,-5,8,5,2,0,0,0
27426024568,-1,10,-7,-2,0,0,-1,-1
27426024568,-1,-9,-6,-3,-2,-2,-1,0
27426045498,0,1,-2,-1,-1,0,0,1
27426045498,-1,-3,-5,-6,-1,-1,0,0
27426047066,0,4,4,1,1,2,0,0
27426047066,-1,-3,-1,1,-3,-2,-1,0
27426059197,-3,-19,-16,-5,-5,-4,-2,-1
27426059197,-1,18,9,1,-1,-2,-1,-2
27426068085,1,1,3,1,1,1,0,2
27426068085,-1,-6,-1,-4,-2,-2,-2,-1
27426082953,0,-3,-3,-4,-4,-4,0,-1
27426082953,0,-1,-3,0,0,-2,-2,-1
27426084518,-2,-12,-12,0,4,2,0,0
27426084518,-6,0,12,2,2,1,-1,-3
27426105563,-1,2,1,-3,0,0,-2,0
27426105563,2,9,11,2,0,-2,-2,-1
27426107028,-1,-5,2,-1,-5,-3,-1,1
27426107028,-9,-22,-33,-9,-1,-1,-1,-6
27426119224,7,18,25,7,2,2,1,4
27426119224,-2,1,-9,-6,-4,-4,-2,-3
27426128102,-4,-6,9,3,1,0,0,-3
27426128102,1,3,5,1,-1,0,-1,-1
27426142542,-3,-4,-10,-6,-1,-2,0,-3
27426142542,-1,-5,-5,-3,0,-1,0,1
27426156690,0,0,-6,-3,-5,-3,-2,-2
27426156690,1,4,4,0,-3,-2,0,-1
27426165569,0,2,0,-1,-1,0,-2,-1
27426165569,-1,-3,5,2,-2,1,0,-2
27426167068,-1,-4,-15,-3,1,0,0,-1
27426167068,2,-3,0,1,0,1,1,-1
27426179103,-3,8,9,4,-1,-4,-4,-2
27426179103,-1,-13,-18,-7,0,0,-1,-1
27426188091,3,22,23,3,0,0,0,0
27426188091,4,2,-1,1,2,1,1,2
27426202371,-6,-11,-20,-6,-1,0,0,-3
27426202371,1,1,14,3,1,-1,0,1
27426209020,1,-1,-1,-3,-1,-4,-1,-2
27426209020,-2,-2,2,2,-2,-1,-2,-1
27426225390,-1,-4,2,0,-1,0,-1,-1
27426225390,-2,-13,-17,-4,-2,0,-1,-2
27426227009,-1,3,3,-1,-3,-1,-1,-2
27426227009,-1,4,1,-1,-1,-3,-1,-3
27426239057,-2,-8,-7,-4,-1,-1,-1,-1
27426239057,-2,2,-2,-1,-1,-2,-1,-3
27426248067,-1,0,-11,-5,-6,-3,-4,0
27426248067,-3,-6,-9,-7,-2,-1,-1,-1
27426262252,-2,2,9,5,0,1,0,0
27426262252,0,3,6,2,-1,-3,-2,-2
27426269225,-2,-10,-5,-3,-3,-3,-1,-1
27426269225,0,4,0,-6,-2,-1,-2,1
27426285499,0,-3,2,4,0,-1,-2,0
27426285499,-7,1,3,2,2,2,1,-2
27426287059,-4,-13,-14,-3,-2,-4,-2,-2
27426287059,-1,-1,8,-2,-1,-1,0,-1
27426307921,0,6,-9,-7,-3,-2,-2,0
27426307921,-3,-2,-4,-1,-1,1,0,-1
27426309516,0,-1,4,1,0,0,-1,-1
27426309516,-2,3,-1,1,0,-1,-1,0
27426322299,-2,-4,0,-1,1,-1,0,-1
27426322299,1,1,0,1,0,0,-1,1
27426329352,-5,-6,5,-1,0,0,0,-4
27426329352,3,2,-7,-2,-3,-4,-1,0
27426345422,0,4,9,1,-1,1,0,0
27426345422,2,1,-7,0,-1,1,-1,-2
27426346983,-2,-8,-17,-7,-3,-2,-2,-1
27426346983,1,-5,0,0,1,-1,-3,0
27426367952,-3,4,-4,-6,-1,-2,-3,-2
27426367952,1,-4,-1,0,0,-1,1,0
27426369558,-2,2,0,-2,-3,0,-3,-1
27426369558,1,1,-2,-2,-1,1,1,-1
27426382221,0,2,0,2,1,1,0,0
27426382221,-1,-4,0,-2,-1,-2,-1,-1
27426389045,2,1,-3,-1,0,-1,-1,-1
27426389045,-6,-6,-8,-3,-4,-2,-1,-1
27426405383,0,-8,8,5,1,1,0,0
27426405383,-2,11,-8,-4,-1,-1,-2,-2
27426407024,-1,4,5,5,2,0,0,0
27426407024,-3,-4,0,-2,-2,-2,-2,-4
27426427913,-2,-9,-9,-2,0,-1,-1,1
27426427913,-1,1,7,-2,-3,-2,-1,-1
27426429534,0,4,-1,-2,-1,-1,-1,-3
27426429534,-2,0,4,10,5,1,1,0
27426442307,-2,-5,-18,-6,-4,-2,-1,-1
27426442307,-1,-9,3,1,-1,-1,-2,-2
27426449208,-2,-2,-2,-5,-2,-1,0,0
27426449208,1,7,12,1,-2,0,-3,-1
27426465542,-1,-3,-19,-5,-4,-2,-3,-2
27426465542,3,6,6,4,1,1,0,2
27426467031,-2,-7,-1,-2,-1,0,-1,-3
27426467031,-1,-1,-5,-5,-2,-3,0,-4
27426487997,-3,-9,5,1,-1,-1,-1,-2
27426487997,2,2,1,-2,-3,-2,-1,1
27426489571,2,5,-1,0,-2,0,-1,1
27426489571,2,1,4,-2,-2,-1,-1,1
27426502430,-1,-7,-3,1,0,-1,-1,-1
27426502430,-1,-2,-14,-9,-4,-4,-1,0
27426509243,-3,4,18,5,1,0,1,-3
27426509243,-4,-3,-5,-1,-1,1,0,-1
27426525404,0,5,0,2,2,2,1,-2
27426525404,0,-8,2,3,0,0,-1,0
27426527049,3,10,-7,-5,-3,-4,-1,0
27426527049,-2,-12,-9,-8,-5,-2,-3,0
27426547945,-5,-4,-4,-5,-3,-1,0,-3
27426547945,-3,3,1,2,0,1,0,-1
27426549580,-2,-17,-8,-3,0,-3,-2,1
27426549580,2,7,11,5,-2,0,1,1
27426562825,2,12,10,4,1,-2,0,2
27426562825,-3,-8,-14,-7,-3,-2,-2,-1
27426569143,-1,-5,0,3,0,-1,-1,-1
27426569143,-6,-13,-25,-7,-3,-2,-2,-2
27426585566,4,17,26,3,2,1,-1,2
27426585566,0,2,10,5,0,0,1,-2
27426587060,-1,2,-8,-1,0,0,-1,1
27426587060,-3,-14,-11,-2,1,0,0,-2
27426608036,2,11,9,-2,-3,-3,1,-2
27426608036,-3,-5,-5,-6,-2,-1,-3,-1
27426609530,1,7,18,3,1,0,-2,0
27426609530,-1,1,7,8,2,0,-1,-3
27426622406,-1,-8,-10,-4,1,-1,0,0
27426622406,-2,4,7,1,-1,-2,0,-1
27426629322,-1,-5,-16,-5,-2,1,0,0
27426629322,-3,-3,1,0,0,0,-1,-2
27426645595,-3,-2,2,-3,-5,-4,-2,-1
27426645595,1,3,3,3,4,5,2,1
27426647012,2,0,-2,-2,0,1,-1,-2
27426647012,-3,1,-2,-1,0,-1,-1,-1
27426668061,-4,-17,-14,-3,2,2,0,-1
27426668061,2,11,8,1,-3,-2,-2,0
27426669539,-1,-2,-4,-2,-4,-4,-2,0
27426669539,3,5,5,4,5,3,2,1
27426681715,1,6,13,1,-1,-1,-1,-3
27426681715,-3,-9,-18,-3,-1,0,0,0
27426690550,-3,-1,7,3,-1,1,1,-1
27426690550,2,0,-7,-7,-6,-3,-1,0
27426705247,-6,-17,-4,3,0,-2,-2,-4
27426705247,0,7,11,-4,-2,0,-1,-1
27426711823,4,7,-4,1,-2,-2,0,1
27426711823,-4,-2,14,2,0,-2,-2,-3
27426728083,5,1,-7,-1,-1,2,-1,1
27426728083,-7,-16,-9,-1,0,-2,-3,-3
27426729497,2,8,6,-4,-2,-3,-1,-2
27426729497,0,-2,-8,-9,-6,-3,-2,1
27426741683,2,0,0,5,1,0,1,1
27426741683,-4,-1,-1,0,1,1,2,-2
27426750584,-3,-5,-3,-4,1,1,-1,-1
27426750584,2,5,4,-1,1,-2,1,2
27426765548,-2,0,-3,-4,-4,-5,-3,-2
27426765548,1,-3,-5,-5,-5,-3,-1,0
27426767067,1,-1,-3,-4,-3,-1,-1,0
27426767067,0,1,9,8,0,-2,-2,-3
27426787959,-6,-9,-14,-7,-4,-1,-1,-2
27426787959,2,12,2,1,-1,1,0,-2
27426789552,-7,-17,-11,-6,-1,-3,-1,-1
27426789552,4,10,-9,-4,-1,0,1,-1
27426801587,4,8,21,4,0,-1,-3,-1
27426801587,2,-7,-12,-4,-1,-1,-2,-1
27426810531,1,2,0,0,0,0,0,0
27426810531,-9,-6,-5,-8,-3,-2,-1,-3
27426825400,-6,-5,-5,4,-1,-5,-4,-4
27426825400,0,0,1,-1,1,0,3,0
27426826983,-1,-2,3,6,2,2,2,1
27426826983,-2,-4,-3,0,0,-2,-2,-1
27426847913,-1,4,-7,-8,0,1,-1,-3
27426847913,-6,-7,-5,-6,-2,-3,-3,-1
27426849491,2,7,11,9,0,-3,-2,-1
27426849491,-8,-13,-6,-1,0,1,1,-2
27426861690,0,9,0,-3,-2,0,-1,0
27426861690,2,-2,13,5,0,-3,-2,-1
27426870569,-4,-3,-11,-7,-2,-1,0,-4
27426870569,0,-6,-13,-3,-3,-1,-3,-1
27426885519,0,3,-8,-4,1,2,0,1
27426885519,-6,-6,3,0,-4,-2,-4,-3
27426887009,-4,-1,0,1,0,-2,-2,0
27426887009,6,3,-4,-6,-5,-4,-2,-2
27426908229,-6,-9,10,12,5,5,7,2
27426908229,0,4,0,-1,0,0,-1,0
27426909556,-1,-2,1,1,1,-2,-2,-2
27426909556,-3,-2,-1,-2,-1,-2,-3,0
27426921662,-1,-8,-21,-9,-4,-4,-2,0
27426921662,2,8,21,10,3,2,1,0
27426930562,0,-5,-4,-7,-3,-1,-1,-2
27426930562,0,3,-1,-2,0,-1,-1,0
27426945554,-8,-5,5,3,-1,0,-1,-3
27426945554,-5,-4,1,0,-1,-2,-2,-1
27426947030,-4,-4,-2,-1,-1,0,-3,-1
27426947030,3,5,-4,0,-2,0,0,4
27426968187,1,-4,-11,-9,-5,0,0,-4
27426968187,-3,-3,-2,1,-1,-4,-3,-5
27426969552,2,6,14,8,3,0,-1,1
27426969552,0,-3,-9,-4,-1,-1,-2,-2
27426990526,-3,-9,-8,-3,0,-2,-2,2
27426990526,0,11,1,1,0,0,-2,1
27426992045,0,-5,-7,-2,-1,-1,-1,-2
27426992045,3,5,11,4,1,-1,0,-1
27427005557,-1,2,-3,-3,0,-3,-1,2
27427005557,6,-3,-10,-5,-1,0,1,3
27427007026,-5,-6,-8,-2,-2,-1,0,-3
27427007026,-2,-7,1,2,1,-1,0,-1
27427028018,4,0,9,4,-2,-2,-1,2
27427028018,-4,13,-3,-7,-1,0,1,-1
27427029552,1,-3,-4,3,1,0,1,1
27427029552,-2,-5,2,-3,-3,-1,-2,-4
27427041678,3,-2,-11,-5,-1,2,0,2
27427041678,-3,-15,-10,-8,-5,-5,-3,-1
27427050561,3,11,22,6,-4,-2,-3,0
27427050561,-2,3,-1,-1,0,-2,-1,0
27427065528,-7,2,2,1,0,-1,-2,-8
27427065528,0,-3,-4,-5,-1,0,0,0
27427067024,-3,-5,-12,-4,-1,0,-1,-4
27427067024,1,2,10,3,0,1,1,1
27427088026,0,1,0,-3,-4,-1,-3,-1
27427088026,-5,-2,-3,2,-1,-2,-5,-9
27427089500,-1,-12,-6,-4,-2,-1,1,3
27427089500,1,7,3,4,1,2,0,2
27427101603,3,6,-1,-1,-1,-4,-4,-1
27427101603,6,-1,-3,-2,1,7,7,7
27427110581,-4,-8,-10,-6,-1,-1,-2,-3
27427110581,1,2,4,-2,0,0,1,0
27427125542,4,11,13,4,2,0,-1,-2
27427125542,1,2,5,4,0,-3,-3,0
27427127057,-3,-6,-4,-2,-1,-1,0,-6
27427127057,-6,-19,-20,-8,-1,1,1,-2
27427148138,0,14,16,3,1,-2,-1,0
27427148138,-2,-4,-5,-1,-1,-2,-1,-3
27427149501,1,3,5,3,0,0,-1,2
27427149501,-5,-6,-8,-1,-1,0,0,-7
27427161672,0,0,1,0,-1,-1,0,0
27427161672,-3,-5,-6,1,-1,0,-2,-1
27427170581,1,3,3,-3,-1,-2,-3,-2
27427170581,-3,0,3,2,0,3,1,2
27427185572,4,-6,-3,1,-1,1,-1,3
27427185572,-8,1,2,-1,-3,-5,-2,-8
27427187063,0,-3,-8,-6,-3,-1,-2,-7
27427187063,-1,8,7,5,1,-1,-1,1
27427207908,-4,-11,-6,-4,-1,0,1,-1
27427207908,-1,-11,-8,-5,-2,-1,-4,-3
27427209500,3,6,10,5,1,0,0,0
27427209500,3,8,3,-1,-1,-1,0,-1
27427221557,-7,-16,-15,-2,-1,-2,2,1
27427221557,-2,-6,-5,-4,-2,-2,-1,-3
27427230547,-1,10,7,0,0,-1,-1,1
27427230547,3,5,3,0,0,1,-1,-3
27427245519,0,-3,-4,-1,0,-3,-1,2
27427245519,-1,3,4,1,2,1,0,0
27427247003,-3,-9,-11,-5,-3,-1,1,3
27427247003,-3,-2,1,0,0,-3,-1,-1
