27357734125,1,0,-1,-1,-1,-2,-4,-5
27357734125,3,-1,-1,-2,-2,-4,-2,0
27357734924,-6,-4,-4,-1,-1,1,2,-4
27357734924,0,-6,-3,0,0,0,0,-7
27357736797,1,8,5,0,-1,-2,-1,11
27357736797,-1,0,-1,0,-1,-2,3,-2
27357737528,0,3,-1,-2,-2,-1,-2,-1
27357737528,-3,-8,-4,-1,0,-1,-2,-1
27357744214,3,5,0,0,0,0,0,0
27357744214,-1,0,-1,1,2,2,1,-2
27357750519,-11,-4,-2,-3,-2,-6,-8,-7
27357750519,-2,-1,-1,-1,0,3,7,2
27357765515,-5,-4,-5,0,0,-1,0,-4
27357765515,-1,5,2,0,-3,-1,-4,2
27357774980,2,6,-1,1,1,1,1,1
27357774980,-3,-2,-1,-2,-3,-3,-4,-2
27357780518,-6,-9,-3,-2,-1,-2,-1,-6
27357780518,4,-4,-3,-3,-1,-4,-2,0
27357804835,-7,-4,2,2,-1,0,3,-9
27357804835,1,-1,0,-1,0,-1,-3,18
27357834266,-3,-5,-2,1,1,2,-2,-4
27357834266,0,0,1,1,0,0,2,-4
27357841751,0,-1,-3,-1,-3,-1,-1,2
27357841751,-5,-4,-3,-3,-4,0,1,-1
27357842372,1,1,1,1,-1,-1,-2,-1
27357842372,-3,-2,-2,-1,-1,-4,-5,-3
27357843204,0,-5,-3,-1,0,2,1,0
27357843204,5,1,-3,0,0,-3,-2,3
27357856584,-11,0,1,1,-2,-1,-1,-2
27357856584,3,3,1,-1,1,3,-1,0
27357862873,1,6,1,-1,-1,-3,-2,-3
27357862873,4,-2,1,-1,0,0,-3,0
27357870342,7,-3,-3,-3,0,-4,-2,-8
27357870342,-3,6,1,0,-1,0,0,18
27357885369,-2,-2,2,2,1,0,-1,-3
27357885369,-5,-4,-1,-1,1,0,-1,-1
27357893662,3,-1,0,1,0,-1,0,3
27357893662,0,-2,-1,-3,-1,-1,0,-3
27357916738,2,-1,-2,0,-1,1,-1,0
27357916738,-2,1,-2,-1,-2,-1,-1,-2
27357917399,-1,5,4,0,0,0,0,2
27357917399,0,0,-2,-1,0,0,0,-3
27357931054,0,3,0,-2,-2,-1,0,3
27357931054,-5,-4,-1,-1,-1,-4,-3,-8
27357931676,0,-2,-3,-2,-1,2,2,3
27357931676,-2,-2,-1,0,-2,-2,-2,-3
27357954273,3,-3,-3,0,-1,0,-4,-6
27357954273,0,-3,-1,0,-1,-2,-3,1
27357954920,5,8,2,0,0,4,6,6
27357954920,-10,2,1,-1,-2,-6,-8,-18
27357967802,1,-4,-3,0,1,4,6,12
27357967802,3,0,-4,-3,-2,-2,-1,-1
27357976034,-3,-5,-1,-3,0,-1,-3,-1
27357976034,2,1,1,0,0,0,-1,-2
27357991172,-5,3,2,-2,-3,-4,-4,-3
27357991172,-4,0,4,2,2,3,4,-3
27357991679,1,-1,-3,-1,-3,-4,-4,-2
27357991679,5,-2,-2,-2,-2,0,1,4
27358014199,-6,-3,-1,-2,-3,-4,-5,-7
27358014199,-1,0,-1,0,2,3,1,4
27358014920,-3,2,-1,-2,-1,-2,-1,3
27358014920,2,-13,-5,-1,-1,-2,0,1
27358027742,1,15,8,-1,1,-1,-2,-3
27358027742,4,4,-1,0,-1,-1,-3,0
27358036101,4,0,-1,-2,-3,-2,0,-8
27358036101,-5,-3,-5,-1,-2,2,2,6
27358051019,0,-5,-4,-4,-2,-2,-1,0
27358051019,-4,-3,-4,0,-1,0,-2,-2
27358051678,3,6,6,0,1,0,0,-1
27358051678,0,-2,1,-2,0,-2,-1,-2
27358074321,0,-4,-2,-2,-3,-1,-1,-1
27358074321,-2,0,0,-1,-2,1,1,-2
27358074903,-4,-7,-4,-4,-3,-3,-2,-1
27358074903,-5,1,0,1,0,-2,-2,-3
27358096542,-6,-8,-3,-2,0,1,-2,-8
27358096542,1,5,-1,-4,-2,-1,-1,0
27358097338,-1,0,-1,-1,-1,-2,-1,1
27358097338,-1,-3,-3,-3,-3,-3,-3,-1
27358111001,-3,-2,-2,1,0,-1,-2,0
27358111001,4,6,4,0,-1,-2,-2,-2
27358111733,-1,0,4,0,0,-1,-1,-3
27358111733,1,-1,0,1,1,1,1,4
27358134402,4,-5,-6,-1,-1,-1,-2,0
27358134402,-8,-9,-8,-5,-2,-2,-1,0
27358134902,-2,-1,-3,2,-1,-2,-1,0
27358134902,1,0,3,0,0,1,1,-2
27358156972,5,10,7,3,2,1,3,1
27358156972,-6,-16,-10,-4,-1,-1,2,3
27358157744,-3,-1,-5,-3,-1,-1,-1,0
27358157744,-7,-12,7,3,-2,-3,-2,-3
27358172409,1,9,8,3,2,-2,-1,-2
27358172409,3,2,-2,-2,0,-4,-1,0
27358173229,-4,-5,-1,1,2,1,0,0
27358173229,3,6,-3,-2,1,2,0,-1
27358194203,-16,-15,-30,-15,-8,-5,-2,2
27358194203,3,5,17,7,0,1,-1,0
27358194983,-2,-4,-8,-4,-3,-2,-2,-1
27358194983,1,-1,4,2,-1,-1,-2,-1
27358216671,4,9,6,-1,-1,-2,-1,-1
27358216671,1,4,-4,-1,0,1,0,-3
27358217373,-10,-5,5,2,-3,-2,-1,-3
27358217373,-2,0,-3,-2,-3,-1,0,-5
27358230970,-3,-8,-6,-2,-2,-2,0,-2
27358230970,2,9,4,-1,0,-1,0,0
27358231668,3,4,1,0,-1,-2,-2,1
27358231668,-2,-2,-8,-8,-1,-1,2,-2
27358254244,-3,-12,-7,-2,-2,0,0,-1
27358254244,1,8,23,17,7,2,-1,-2
27358254927,0,-3,-3,-2,0,1,-2,-1
27358254927,2,8,-2,-1,-1,-1,-1,1
27358276683,-3,-3,-2,-5,-2,-3,-2,-3
27358276683,-1,-4,-10,-6,-4,-1,-1,-1
27358277379,-2,-5,1,2,-1,0,-2,3
27358277379,3,1,0,1,0,-2,-1,-8
27358291043,0,0,5,1,1,2,0,0
27358291043,-6,-9,-10,-5,-4,-1,-1,-3
27358291670,-2,6,0,-3,-2,-2,0,-1
27358291670,-3,-1,-2,-5,-3,0,0,0
27358314190,3,3,2,5,2,0,0,1
27358314190,-2,0,1,-4,-1,-1,-2,-1
27358314921,-3,-7,-8,-4,0,1,-2,-2
27358314921,1,-3,-2,3,3,2,1,3
27358336533,2,10,7,-1,-1,0,0,0
27358336533,-4,-3,-5,-10,-6,-4,-4,-2
27358337313,-1,-3,-2,-2,-4,-1,1,-3
27358337313,2,5,8,16,15,6,2,-2
27358351015,-3,-6,-1,0,0,0,-1,7
27358351015,0,-2,-1,1,-2,-1,0,0
27358351693,-2,-4,-8,-11,-6,-5,-4,-2
27358351693,3,3,-9,-8,-7,-4,-2,0
27358374200,-3,0,16,8,4,2,0,-5
27358374200,-4,-5,-11,-5,-2,-3,-1,-9
27358374922,0,-5,-8,-2,0,-1,-2,2
27358374922,-2,-2,3,2,-1,0,2,3
27358396695,2,1,-5,-6,-5,-6,-2,0
27358396695,0,-4,8,7,3,2,2,0
27358397368,1,1,0,-7,-1,0,0,-6
27358397368,-4,-7,-2,-7,-9,-5,-4,-1
27358411074,-1,-12,-15,12,11,5,1,-2
27358411074,0,5,10,-2,1,1,0,1
27358411695,2,5,1,6,2,0,-1,0
27358411695,-4,-7,-4,-4,-3,-3,-1,0
27358434166,0,0,3,-7,-6,-4,-2,1
27358434166,-1,-6,-13,-4,-3,-3,-1,2
27358434928,3,6,10,4,0,-2,0,1
27358434928,-4,-3,-4,-5,-5,-5,-3,-3
27358456702,3,5,-1,-2,-1,-2,-2,-2
27358456702,-4,-2,-2,2,5,3,0,-2
27358457394,2,2,-12,-8,-3,-2,0,0
27358457394,-1,1,15,10,2,-1,2,-1
27358470378,-2,-4,0,-5,-4,-1,-2,-1
27358470378,2,6,-2,-1,-2,-2,-1,0
27358479203,-5,-14,-11,-8,-5,-3,-2,-2
27358479203,4,21,13,6,2,2,0,0
27358494199,-4,-9,-5,7,8,4,0,0
27358494199,-1,2,4,1,-1,-1,-1,-1
27358495658,-2,-4,1,3,3,-1,-1,-2
27358495658,-1,4,-8,-12,-10,-5,-5,-2
27358515817,-2,-5,-6,-8,-9,-5,-3,-3
27358515817,0,-8,-4,1,1,1,1,0
27358524233,4,12,18,7,2,1,0,1
27358524233,1,-3,-1,6,7,3,1,0
27358530354,-1,2,-3,-1,-3,-2,-1,-2
27358530354,-1,-9,-11,-9,-7,-7,-4,-2
27358539237,0,4,5,-4,-5,-1,-1,-2
27358539237,-2,-5,-7,-1,1,-1,-1,-1
27358553545,1,-1,-1,-6,-3,0,0,-2
27358553545,1,4,4,7,1,1,1,1
27358560398,-3,-2,-2,-1,1,-1,-1,-4
27358560398,-2,-10,-9,-4,-2,1,1,2
27358576632,1,2,-6,-3,0,-3,-1,-1
27358576632,2,9,8,-5,-7,-3,-5,1
27358578214,-3,-6,-6,1,-3,0,-2,0
27358578214,-2,3,3,6,5,0,2,0
27358590308,0,2,6,10,5,1,0,-1
27358590308,1,0,-1,-1,-2,-1,1,-1
27358599183,0,-2,1,2,1,0,-1,0
27358599183,-1,-6,-7,-5,-3,-2,-2,-2
27358614104,-2,-3,-4,-11,-12,-7,-4,-2
27358614104,-7,-9,-5,-5,-4,-4,-2,-4
27358615662,-3,0,2,8,10,5,2,-1
27358615662,0,0,-6,-8,-9,-6,-2,0
27358636702,-1,4,3,-1,0,1,-1,-1
27358636702,-3,-2,-4,-5,-6,-2,-2,-1
27358638214,-3,-1,0,-2,0,-1,-2,-2
27358638214,-1,-2,-3,-9,-5,-3,-1,-3
27358650223,-3,-2,-3,-6,-8,-6,-2,-1
27358650223,2,0,1,13,10,6,4,3
27358659236,-2,-4,1,6,4,0,-2,-3
27358659236,-2,7,2,0,-2,-2,-2,-1
27358673518,-1,-3,-2,-3,1,1,0,-1
27358673518,-3,-17,-14,-18,-10,-5,-3,-2
27358680247,1,21,10,9,0,-2,1,-1
27358680247,-3,-7,4,11,11,7,2,-1
27358696654,1,7,-2,-9,-6,-1,1,1
27358696654,-3,3,1,-5,-7,-6,-4,-1
27358698180,0,-5,1,7,8,5,2,0
27358698180,-1,-10,-8,-5,-2,-2,-2,-1
27358710349,2,7,5,12,5,5,1,0
27358710349,-1,-4,-3,0,-1,-4,-3,-2
27358719205,-2,-5,-8,-13,-10,-3,-1,1
27358719205,-1,6,10,13,6,5,1,-1
27358734269,1,-2,6,19,21,8,3,1
27358734269,-2,-8,-13,-17,-9,-7,-3,-2
27358735657,0,1,-3,-1,-8,-6,-3,-2
27358735657,0,-1,-2,-4,2,0,-1,0
27358756817,-4,-2,8,1,-5,-4,-3,-5
27358756817,3,0,-2,4,9,4,0,2
27358758187,-2,0,-4,-11,-11,-6,-3,-2
27358758187,-1,1,1,5,2,1,1,-1
27358770388,-3,-9,-2,0,-2,-4,-2,-2
27358770388,1,-10,-1,3,4,5,4,0
27358779211,5,17,3,-3,-2,-4,-3,0
27358779211,-7,-12,-13,-17,-12,-7,-3,-3
27358793494,-2,7,-3,-10,-10,-7,-4,-3
27358793494,-1,4,8,8,5,5,1,-1
27358800156,-1,-8,-1,4,2,2,1,-1
27358800156,5,-6,0,4,2,-1,0,3
27358815487,0,6,1,4,8,4,1,0
27358815487,-1,-1,-4,-6,-5,-5,-4,-3
27358824176,0,1,8,4,3,2,0,1
27358824176,-3,-6,-6,-11,-9,-5,-4,-3
27358839229,-3,-10,-8,-3,-2,1,-1,0
27358839229,4,12,12,15,7,5,3,0
27358840711,-2,-7,-4,0,2,1,1,2
27358840711,-2,-7,-7,-10,-7,-3,-2,-4
27358861535,1,0,-6,-12,-10,-7,-3,1
27358861535,-1,14,7,7,3,1,0,-2
27358863156,-4,-19,-9,0,4,2,0,-2
27358863156,2,16,14,3,-3,-3,-1,0
27358875338,-4,-2,0,3,3,2,-1,-2
27358875338,0,1,-1,-3,-4,-2,0,0
27358884209,-7,-13,-11,-12,-8,-5,-2,-4
27358884209,0,2,-3,-7,-9,-3,-1,0
27358899173,-3,-6,1,6,2,0,-1,-2
27358899173,0,2,3,1,-1,-1,0,0
27358900655,-6,-5,-5,-5,-1,-2,-4,-5
27358900655,-6,-17,-11,-1,3,-1,-1,-1
27358921792,6,26,4,-9,-4,-1,1,0
27358921792,-6,-11,-7,1,0,-4,-3,-3
27358923175,2,-10,1,11,10,6,3,1
27358923175,3,18,9,2,2,3,0,1
27358935295,-1,-3,5,3,2,0,0,-1
27358935295,1,5,-6,-10,-6,-1,0,0
27358944209,0,0,-2,-8,-10,-5,-3,-1
27358944209,-3,-7,-6,0,-1,0,-1,-2
27358959097,1,-7,-5,-5,-2,0,-1,1
27358959097,3,5,12,7,7,3,0,0
27358960686,-6,-15,-17,-7,-8,-6,-3,-1
27358960686,-4,15,5,-3,-2,-2,-2,-4
27358981736,-9,-27,-24,-19,-16,-9,-6,-4
27358981736,3,16,17,3,2,2,1,2
27358983208,1,17,3,-3,-1,1,0,0
27358983208,4,-1,0,2,3,-1,0,2
27358995328,-9,-21,-6,5,2,0,-3,-4
27358995328,-2,-2,-6,-11,-13,-6,-4,-4
27359004235,4,8,10,13,8,7,2,2
27359004235,-3,-9,0,12,11,5,0,-2
27359019210,0,-2,-1,2,0,-1,1,2
27359019210,-5,-4,-9,-9,-6,-5,-3,-3
27359020693,0,-8,-2,-10,-6,-6,-2,-1
27359020693,0,6,1,-2,-2,-1,0,-3
27359041646,2,11,4,0,-2,-3,0,-1
27359041646,-6,-5,-10,-8,-4,-3,-2,-3
27359043157,2,-5,-2,-6,-4,0,1,1
27359043157,-7,-13,-12,-5,-6,-6,-7,-5
27359055351,4,14,16,17,14,7,5,2
27359055351,-4,-5,-2,7,7,3,2,2
27359064241,-1,11,19,38,35,17,3,0
27359064241,18,-4,-5,-10,-8,-8,-4,-1
27359079162,0,2,-6,-15,-10,-7,-7,-5
27359079162,-3,-7,-6,-2,-1,-4,1,0
27359080689,-7,-9,-8,-17,-11,-2,1,-3
27359080689,-7,3,-1,-6,-7,-2,-2,0
27359101534,2,-5,2,10,7,1,-2,1
27359101534,-4,-10,-6,-3,-2,-3,-5,-8
27359103167,-1,10,4,-3,-4,-3,1,3
27359103167,1,1,4,5,1,-2,-2,-2
27359115312,-6,-6,-10,-15,-10,-4,-1,-9
27359115312,-1,-12,-12,2,3,3,0,6
27359124154,8,23,7,-15,-14,-7,0,3
27359124154,1,-5,-2,4,0,1,0,2
27359146572,0,0,3,5,4,1,1,2
27359146572,0,11,7,1,0,1,-2,-4
27359148177,-1,-1,-6,-8,-5,-2,-4,-5
27359148177,-6,-5,-4,3,4,5,3,1
27359161689,2,-1,1,3,2,-1,-1,-1
27359161689,0,5,1,-9,-10,-8,-3,-2
27359163198,-1,-14,-5,3,0,-3,-1,0
27359163198,0,10,6,1,5,3,3,0
27359175378,-7,-14,-15,-4,-4,-1,2,-2
27359175378,2,-4,3,0,0,-2,-1,1
27359184215,-3,4,3,3,-1,-2,-2,-1
27359184215,3,1,-2,2,3,0,-3,-1
27359198462,2,10,13,-2,-3,0,6,4
27359198462,-1,5,2,5,4,4,2,-1
27359205352,0,-6,-3,2,-1,-3,-2,-2
27359205352,-8,-5,-4,-8,-6,-4,-2,-3
27359221654,-4,-10,-13,-9,-4,-4,-5,-2
27359221654,1,-7,4,12,8,8,4,1
27359223173,0,-14,-3,2,-1,0,-1,-1
27359223173,-3,26,18,11,6,1,-1,-1
27359235320,0,3,-4,-8,-8,-2,0,1
27359235320,-3,-22,-16,-6,0,-2,-1,-3
27359244230,-1,1,6,-1,-3,-2,-2,-2
27359244230,-6,-2,-8,-3,-6,-3,-2,-3
27359258672,1,9,15,0,-2,-2,-3,-4
27359258672,5,12,-4,-5,-5,-3,0,3
27359272702,-2,-4,-9,-5,-3,-1,-1,1
27359272702,-1,-15,-10,-5,-5,-1,-1,1
27359281574,-7,-10,-5,4,3,1,-1,-2
27359281574,2,16,7,-4,-4,-3,-4,-4
27359283214,-4,-5,-4,-7,-7,-5,-3,-2
27359283214,3,0,8,11,11,6,5,2
27359295332,-3,2,-2,2,1,0,-5,0
27359295332,-8,-22,-5,8,12,4,0,-2
27359304214,0,19,-2,-5,-3,-6,-4,-4
27359304214,0,-2,-2,-7,-6,-4,-1,0
27359318379,10,5,3,5,0,1,2,4
27359318379,-6,-1,3,0,-3,-3,-2,-4
27359325330,-8,-5,-10,-7,-1,-2,-3,-5
27359325330,2,-23,-7,0,1,-1,3,1
27359341635,4,27,13,-3,-3,-3,-2,1
27359341635,-1,-12,-11,-7,-7,-3,0,3
27359343167,5,8,12,12,6,1,-1,-2
27359343167,-3,-3,-3,-4,-3,-3,-2,0
27359355330,-9,-26,-12,1,1,1,0,-2
27359355330,4,22,9,0,0,0,-2,-1
27359364232,0,-5,-7,-9,-5,-3,0,1
27359364232,-1,3,3,3,-3,-3,-5,-1
27359378547,0,-5,0,6,4,2,2,2
27359378547,-1,5,0,-2,-4,-3,-2,-2
27359385455,-5,-11,-9,-4,0,0,0,-1
27359385455,2,9,5,0,-2,1,1,-1
27359401627,-2,2,-2,-2,-6,-5,-4,-2
27359401627,3,-4,2,4,4,3,0,3
27359403176,-6,-11,-5,-6,-7,-4,-3,-3
27359403176,-3,-18,-8,-7,-2,-1,0,-1
27359415329,2,11,2,2,2,-2,-3,-4
27359415329,0,2,1,1,0,2,5,4
27359424210,3,8,5,4,3,3,2,2
27359424210,-5,-7,-2,0,3,1,-1,-3
27359439004,3,1,-4,-3,-1,-1,-1,-1
27359439004,-9,-13,-10,-11,-8,-5,-3,-6
27359445187,0,-9,-3,2,3,0,1,-1
27359445187,2,23,7,-5,-6,-4,-3,-1
27359461546,-2,-2,2,-3,-6,-2,-1,-1
27359461546,1,-1,-1,-2,-3,-2,-4,-3
27359463119,-2,-2,0,4,3,2,1,-1
27359463119,-3,-3,-6,-1,0,0,-1,-4
27359475204,1,-1,1,0,1,0,-1,1
27359475204,-7,-14,-9,-7,-6,-2,-2,-1
27359484172,1,8,5,-5,-5,-3,-3,-4
27359484172,-3,-9,-5,-2,3,1,3,5
27359498516,-2,7,7,6,2,-1,-4,-5
27359498516,-3,-4,-3,-1,-2,-1,-2,-3
27359505323,-1,-8,-2,-2,-5,-1,-3,-2
27359505323,2,12,5,3,4,0,-3,-2
27359521671,-3,-9,-9,-9,-8,-2,0,0
27359521671,-3,2,6,7,6,5,3,3
27359523230,0,-3,-6,-1,0,0,2,0
27359523230,-2,-8,-9,-8,-6,-3,-1,-2
27359544168,-3,-2,-5,-5,-1,-3,0,0
27359544168,3,7,5,5,2,0,-1,-2
27359545657,1,7,2,-10,-7,-3,-1,2
27359545657,-3,-21,-13,4,2,2,0,2
27359558407,3,7,2,3,3,3,3,4
27359558407,-4,-3,-1,-6,-6,-6,-5,-4
27359565407,-6,-14,-11,-5,-3,-3,-2,-2
27359565407,1,11,0,-5,-3,-2,-3,-2
27359581644,-2,-7,-2,-5,-5,-3,-2,-1
27359581644,-1,-3,-4,-7,-6,-5,-1,-3
27359583130,4,11,9,14,11,4,-1,-1
27359583130,-3,-6,-5,-6,-6,-5,-3,-3
27359604045,1,4,2,2,-1,-1,2,2
27359604045,-6,-5,-2,-4,-4,-3,-2,-7
27359605649,-1,-1,-4,3,2,1,0,-1
27359605649,1,4,1,-4,-6,-4,1,3
27359618464,-1,-4,1,-1,-1,-2,-2,-3
27359618464,3,0,4,8,7,3,1,3
27359625395,2,1,0,-4,-4,-1,-3,-2
27359625395,-2,0,-2,0,0,-3,-5,-5
27359641649,-2,-6,-4,-5,-1,-3,-1,-3
27359641649,4,3,-5,-6,-4,-2,1,3
27359643151,-7,-10,-7,2,1,2,-1,-2
27359643151,2,11,9,3,1,2,1,1
27359664157,-5,-7,-4,-4,-4,-3,-6,-7
27359664157,4,0,-9,-10,-9,-4,3,7
27359665686,-1,-13,-2,8,10,3,1,-1
27359665686,2,16,11,6,3,1,-1,-1
27359677699,1,-2,-7,-1,1,2,-2,1
27359677699,0,12,10,5,1,-1,-1,0
27359686709,1,-1,-5,-4,-2,-1,-1,0
27359686709,-2,-12,-5,-3,-4,-3,-6,-7
27359701561,-4,-6,0,3,3,0,3,0
27359701561,-3,-5,-5,-3,-1,-1,-6,-2
27359703172,-2,5,0,-9,-7,-4,1,-5
27359703172,5,-13,-6,5,6,5,15,25
27359731575,-1,9,7,-1,-2,-4,-6,-5
27359731575,-4,-7,0,-1,-2,-2,-4,0
27359733186,0,6,0,2,-1,-2,-2,-4
27359733186,-7,-6,-7,-7,-9,-6,-3,-9
27359738395,-5,-8,-7,-6,-1,1,0,-4
27359738395,2,5,6,8,2,1,3,-1
27359745291,4,2,8,1,-1,-4,-2,5
27359745291,-4,8,-3,-3,0,-2,-1,-5
27359761715,0,-5,-1,2,3,1,-1,1
27359761715,1,5,-6,-5,-2,-1,2,-5
27359763167,-2,-2,-3,-7,-8,-4,-4,0
27359763167,-1,-3,5,4,-2,-3,-8,-7
27359784173,-2,-3,-1,5,4,3,3,4
27359784173,-2,-2,-3,-2,-3,-3,-2,-4
27359785583,2,1,-1,0,1,-3,-4,-5
27359785583,-3,-6,0,1,3,4,12,15
27359798544,3,6,-1,-3,-2,-2,-4,-5
27359798544,-6,-5,1,-3,-3,-1,3,-4
27359805324,-2,-5,-9,-5,-2,-3,-1,6
27359805324,2,6,10,2,2,0,-11,-4
27359821741,-1,-5,-3,-4,-3,-1,5,4
27359821741,-8,-18,-12,-7,-5,-6,-9,-11
27359823227,2,13,6,-6,-8,0,4,2
27359823227,2,-3,-10,4,3,1,-8,-7
27359844178,-1,-2,-1,3,2,5,14,21
27359844178,2,11,6,6,3,1,-3,0
27359845660,-8,-4,-5,0,-2,-3,0,-4
27359845660,0,-1,-1,-10,-7,-3,-5,-7
27359857838,-4,-5,-5,0,0,0,-8,-7
27359857838,-1,-6,-7,-3,-3,-1,0,0
27359866770,0,8,7,1,-1,-1,-1,-2
27359866770,2,-2,4,1,-2,2,6,5
27359881618,-3,-3,-3,-2,-1,-4,-10,-11
27359881618,-4,-7,-5,-2,-1,1,1,5
27359883127,-4,-16,-10,1,6,9,14,3
27359883127,1,10,-3,-9,-6,-9,-12,-3
27359911548,-3,-14,-3,4,-3,-2,7,2
27359911548,10,24,14,6,6,5,-7,8
27359913164,3,4,3,2,3,2,2,-6
27359913164,-5,-1,3,4,2,1,5,-1
27359933935,0,1,-4,-4,-2,0,0,0
27359933935,-4,-8,-6,0,-1,-1,1,-3
27359943695,2,0,1,-1,-2,-5,-2,3
27359943695,-3,-5,-2,-7,-5,-1,-2,-5
27359944493,5,-1,-5,-5,-4,-4,0,8
27359944493,-2,-1,0,2,0,3,1,-7
27359947733,3,6,8,10,10,5,1,11
27359947733,-5,-3,-3,-5,-4,-4,0,-7
27359964602,0,5,3,-1,-3,-1,3,1
27359964602,1,2,2,-1,-2,-3,-4,-5
27359966162,-7,-11,-10,-8,-2,-1,-2,-6
27359966162,-3,-7,-2,6,6,5,8,8
27359978872,6,11,6,-1,-2,-3,-1,1
27359978872,-10,-9,-11,-13,-10,-5,-7,-9
27359985310,0,1,9,13,8,1,-10,-4
27359985310,2,1,-4,-2,-1,0,5,7
27360001550,-2,-2,2,1,-1,-3,-8,-6
27360001550,1,-2,-3,-3,-4,-2,6,1
27360003173,-2,-1,-2,-4,-6,-4,-5,-1
27360003173,-7,-9,1,4,2,0,-4,-11
27360024388,0,-5,2,6,7,6,3,0
27360024388,1,5,-1,-1,-1,-2,-3,2
27360025674,-1,4,-1,-2,-3,-3,-2,-6
27360025674,-1,-4,-17,-11,-8,-3,-3,-3
27360037769,-3,-5,7,9,6,2,5,2
27360037769,-5,3,2,0,3,-2,-2,-4
27360046716,1,2,4,2,0,4,1,-4
27360046716,13,6,0,-1,-2,-4,0,11
27360061663,4,3,0,-3,2,0,-7,-5
27360061663,2,-2,-4,-3,-1,-2,6,11
27360063159,-9,-8,-11,-11,-11,-8,-9,-8
27360063159,-6,3,5,5,1,-1,-3,-6
27360084245,-3,-3,-9,-10,-8,-3,-2,-3
27360084245,4,2,14,16,14,6,7,5
27360085592,-1,1,-2,-1,-1,1,3,-2
27360085592,-7,-14,-6,-8,-8,-8,-13,-6
27360097706,0,3,0,-2,-4,-2,3,12
27360097706,2,-5,-7,-2,0,2,9,5
27360112670,2,-5,-6,-2,-3,-2,-2,2
27360112670,-1,6,6,0,-1,1,-1,-6
27360121686,-5,0,-1,3,8,5,-2,-3
27360121686,-3,-1,-4,-4,-6,-5,-6,-9
27360123129,1,-11,-2,-3,-2,-2,5,9
27360123129,-2,1,-3,-3,-3,1,1,1
27360144212,2,8,4,-4,-4,-3,-5,-5
27360144212,4,6,8,9,5,4,7,1
27360145634,1,-4,-7,-4,1,1,4,2
27360145634,-4,-8,-5,-5,-8,0,1,2
27360157818,0,0,2,6,6,-1,-6,-8
27360157818,0,-8,3,3,3,2,3,5
27360166691,2,19,7,-3,-4,-4,-4,-2
27360166691,1,-10,-19,-16,-9,-5,-1,-2
27360180779,-5,-5,0,7,8,2,-5,-5
27360180779,-4,-8,5,4,0,2,2,1
27360189185,-2,-5,0,1,3,4,5,3
27360189185,-3,0,1,3,2,0,4,2
27360204147,1,-3,-11,-11,-12,-9,-11,-11
27360204147,-8,-5,-4,-6,-2,-4,-9,-6
27360205578,5,4,3,-3,-6,-6,-1,8
27360205578,-1,-9,-2,5,6,0,-4,-4
27360217823,5,6,-8,-5,-5,1,7,3
27360217823,1,7,16,5,1,1,-2,1
27360226709,-9,-5,-7,-8,-6,-3,-6,-16
27360226709,-7,0,1,-3,-3,-4,-5,3
27360241750,3,2,3,9,9,1,-5,3
27360241750,-8,-9,-10,-5,-6,-7,-7,-4
27360243176,5,6,5,-1,0,0,-7,-5
27360243176,-1,-2,2,8,4,5,12,5
27360264680,-5,-3,-9,-3,1,0,1,-7
27360264680,-3,1,-10,-15,-13,-10,-8,-2
27360266134,0,-5,14,33,30,15,-1,-4
27360266134,-2,1,5,-1,-5,-3,2,3
27360277826,-8,-2,1,-8,-10,-7,-3,-5
27360277826,-5,6,-3,0,4,0,5,-3
27360286668,2,-16,-14,-15,-14,-9,-7,1
27360286668,-1,1,-2,0,1,-1,-6,-8
27360301475,-4,-1,3,0,-2,-2,-3,-4
27360301475,12,11,6,4,4,5,8,9
27360303148,-12,-15,-6,-6,-9,-6,-2,1
27360303148,0,2,-3,-11,-12,-11,-13,-9
27360324118,2,1,4,3,5,2,1,7
27360324118,3,1,-7,-4,-3,-1,-1,-11
27360325693,-5,-1,3,4,1,-5,-14,-7
27360325693,10,3,2,0,5,10,21,21
27360337840,-4,-6,-3,-8,-9,-6,-7,-5
27360337840,9,4,-10,-9,-5,-1,0,8
27360346690,-2,9,10,6,6,4,4,-1
27360346690,-8,0,-5,-9,-10,-7,-10,-13
27360361783,-7,-1,3,7,0,1,-3,-8
27360361783,8,1,-1,7,7,10,16,11
27360363154,-4,-9,-3,-8,-7,-5,0,4
27360363154,12,22,20,9,9,4,4,6
27360391624,-9,-17,-14,-6,-4,-5,0,-1
27360391624,-9,-1,6,-4,-6,-9,-21,-19
27360393173,-14,-8,-24,-20,-17,-8,-5,-15
27360393173,10,9,6,3,6,7,10,19
27360397714,3,-6,3,23,22,12,5,3
27360397714,-3,-10,0,4,4,3,1,1
27360406688,3,8,7,5,3,5,5,-2
27360406688,0,-2,-2,-5,-3,-5,-3,-8
27360421616,-2,1,-9,-12,-9,-6,-6,-11
27360421616,-2,-1,1,6,5,0,2,14
27360423152,6,5,-9,-3,-3,0,6,7
27360423152,-5,-11,3,4,-1,-5,-4,-3
27360444195,-4,-2,-5,-5,0,1,3,1
27360444195,-6,-9,-11,-21,-20,-9,-10,-8
27360445687,7,16,18,16,10,3,0,5
27360445687,-5,-7,-6,9,11,6,-2,-4
27360466684,-3,-1,5,-4,-6,-5,-5,-5
27360466684,-6,-6,-8,-1,7,6,-6,-9
27360468145,10,7,7,2,-1,0,12,8
27360468145,-6,-1,-2,-6,-2,0,-2,-2
27360481074,2,-4,-24,-8,-6,1,10,5
27360481074,2,3,26,7,0,-2,-11,-5
27360487810,-14,-23,-14,-6,2,4,11,3
27360487810,-3,2,3,-2,-6,-6,-7,-9
27360504142,7,3,-3,3,1,0,1,2
27360504142,2,6,-3,-7,-6,-2,4,5
27360505578,4,8,14,10,2,-3,-4,1
27360505578,-8,-2,-14,-9,-6,-8,-14,-16
27360526663,6,8,9,7,12,18,24,10
27360526663,0,-13,-12,-3,-1,-6,0,4
27360528160,-5,-3,-11,-15,-9,-3,-8,-11
27360528160,-2,-9,-11,14,14,9,12,10
27360541646,4,9,20,7,4,-2,-10,-4
27360541646,-8,-5,-15,-7,-2,-3,-1,-9
27360543158,8,7,7,3,3,2,2,5
27360543158,-5,-9,5,0,-1,-1,-3,-8
27360564088,-8,-8,-17,-22,-15,-8,-2,-4
27360564088,6,-2,5,11,1,5,19,25
27360565630,0,-3,-12,-13,-9,-12,-15,-3
27360565630,-7,-5,-4,-7,-6,-1,-2,-17
27360586671,3,3,17,12,7,5,6,15
27360586671,-1,-1,-11,-5,2,-1,-6,-3
27360588166,-6,-7,-2,-7,-7,3,9,-1
27360588166,9,8,-2,-9,-2,0,6,9
27360600983,-10,-12,-10,-1,-5,-9,-12,-9
27360600983,2,1,-2,-8,-5,-3,-2,-7
27360607634,-6,-4,8,15,16,7,-8,-6
27360607634,12,4,16,9,5,0,4,16
27360624157,0,-4,-14,-14,-13,-10,-2,2
27360624157,-7,-1,-13,-15,-12,-8,-12,-13
27360625567,-2,0,-8,-2,1,1,-5,-6
27360625567,-2,5,15,12,-1,-1,-2,-7
27360646739,-6,-3,-16,-7,-3,-7,-8,3
27360646739,2,-2,13,2,-3,0,-8,-13
27360648176,0,-2,-6,14,19,12,20,24
27360648176,6,3,-25,-14,-10,-4,-1,0
27360669114,-6,2,23,0,-10,-4,-4,-14
27360669114,3,7,-3,-5,1,1,3,-2
27360670588,5,1,9,10,6,1,5,5
27360670588,-13,-10,-12,-13,-7,-4,-21,-31
27360684120,9,2,-2,9,7,10,28,38
27360684120,-11,-12,-2,-8,-12,-11,-12,-8
27360685637,-2,7,6,-8,-6,-8,-10,-11
27360685637,-2,-9,-5,0,5,7,7,7
27360706552,-5,-2,-5,-13,-12,-7,-15,-23
27360706552,4,7,6,7,8,10,19,15
27360708155,4,7,7,-2,-3,1,-3,-4
27360708155,-10,-12,-11,-2,1,-7,-3,-7
27360721078,3,-7,2,4,5,7,-1,8
27360721078,1,5,17,20,13,7,13,14
27360727843,-7,-6,-23,-27,-21,-14,-13,-21
27360727843,-1,-1,2,14,10,8,12,13
27360744141,-1,1,11,5,3,-3,-6,-5
27360744141,8,5,-9,-2,2,2,0,-5
27360745575,-13,-12,-11,-5,-5,-12,-16,-6
27360745575,-3,-7,3,-16,-15,-2,9,5
27360766659,7,7,-9,-9,-2,0,-5,0
27360766659,-6,-2,17,9,4,6,3,1
27360768176,-9,-13,-23,-17,-16,-7,-5,-9
27360768176,-7,-4,-11,-6,-6,-7,-17,-21
27360781053,27,25,38,30,27,22,39,40
27360781053,-2,-8,-13,-22,-14,-1,3,-3
27360795307,3,1,5,6,-2,-5,-8,10
27360795307,0,3,3,6,6,3,-2,-5
27360804217,-8,-6,-13,-12,-13,-11,-8,-15
27360804217,-10,-5,-12,-10,-13,-13,-18,-15
27360805586,11,8,18,3,-2,2,10,3
27360805586,15,9,14,21,22,20,38,44
27360826576,-13,-4,-4,-12,-11,-10,-21,-32
27360826576,13,-1,-13,-7,1,-2,11,29
27360828182,-9,-7,-11,-9,-10,-9,-21,-22
27360828182,6,13,35,9,-2,-4,-6,-3
27360840957,-11,-13,-24,-4,4,0,4,-4
27360840957,-8,-8,-1,12,4,-1,-8,-6
27360847661,5,6,3,11,15,11,10,-4
27360847661,-2,-6,-11,-21,-14,-9,-6,9
27360864082,0,7,9,3,-1,1,1,-3
27360864082,1,1,10,15,14,4,-6,-9
27360865665,1,2,1,6,0,3,5,0
27360865665,-3,0,-9,3,1,1,-1,1
27360886683,-3,-1,9,17,16,2,-32,-17
27360886683,9,1,-2,1,1,0,13,16
27360888128,-2,-5,-7,-8,-4,-2,1,12
27360888128,-10,-10,-11,-10,-8,-8,-13,-18
27360900918,7,-2,-11,-12,-5,0,10,5
27360900918,-2,9,9,-5,-10,-9,-2,-5
27360907865,-11,-12,-5,3,3,-8,-17,-5
27360907865,5,5,3,-6,-10,-2,-1,-2
27360924482,-1,-2,-5,-15,-15,-3,10,6
27360924482,-3,1,11,16,16,8,1,0
27360947292,-1,-5,-3,-2,-1,5,20,10
27360947292,-4,-10,-11,-19,-14,-17,-29,-17
27360948015,-8,-10,-26,-17,-13,-8,-2,3
27360948015,-12,-6,-4,-4,5,0,-17,-18
27360949672,11,14,26,5,-7,2,6,5
27360949672,-3,-3,-10,-2,-3,-5,-5,-4
27360969184,11,4,34,20,10,9,12,7
27360969184,1,1,-16,-14,-10,-8,-2,10
27360969821,-6,-7,-20,-14,0,7,14,1
27360969821,4,11,15,4,-4,-5,-1,-4
27360983491,-8,-6,-4,-4,-5,-6,-5,2
27360983491,2,-1,-5,6,4,0,-14,-5
27360984171,-21,-11,-14,-20,-16,-17,-10,-10
27360984171,5,0,3,0,-7,1,8,1
27361006131,-7,-8,-12,-1,3,3,-6,-12
27361006131,-2,0,-4,-19,-17,-12,-1,-10
27361006735,11,9,21,37,29,21,11,15
27361006735,-3,4,-20,-3,8,4,0,-4
27361020327,0,7,34,7,-6,-7,-22,-12
27361020327,1,-4,5,25,18,9,11,7
27361028498,1,-3,-13,-18,-7,-5,-3,11
27361028498,-5,-8,-18,-20,-16,-13,-7,2
27361043427,-5,0,18,5,-4,0,-15,-13
27361043427,-6,-6,-15,-10,-9,-4,-3,-4
27361044152,11,22,39,14,2,3,6,-6
27361044152,-9,-13,-12,-5,-1,-1,-7,-6
27361065883,7,-3,-28,-10,1,-3,6,17
27361065883,-11,-4,5,-13,-17,-11,-10,-14
27361066660,-7,-8,-17,-8,-4,-6,-9,-6
27361066660,0,7,15,6,-2,0,-2,-13
27361080327,3,-2,-9,10,14,11,17,9
27361080327,-2,-2,-5,-4,-4,1,2,5
27361088422,4,6,-1,4,3,0,-1,4
27361088422,3,-1,-3,-3,-1,-1,-7,-8
27361103372,-14,-16,-13,-14,-7,-8,6,0
27361103372,12,6,12,16,16,19,16,16
27361104124,4,1,1,24,17,7,-2,-9
27361104124,-2,-8,2,9,17,13,20,15
27361134086,4,13,13,10,4,0,-7,-21
27361134086,-13,-8,-8,-13,-11,-11,-10,-6
27361134913,16,1,1,-26,-24,0,16,20
27361134913,6,9,13,17,13,10,14,8
27361140327,1,-6,-25,-12,-8,-4,7,8
27361140327,-4,9,28,11,-5,-2,-14,-27
27361148502,-1,-12,-23,-9,3,-3,-2,14
27361148502,-4,3,8,-1,-7,-6,-12,2
27361163329,-7,-1,-4,-3,4,-5,-14,-20
27361163329,4,-8,-8,-1,-3,3,6,12
27361164095,-2,-2,-9,-2,1,2,1,-8
27361164095,-1,4,25,3,-11,-6,-6,-3
27361186093,8,5,-7,18,21,7,5,9
27361186093,1,1,5,-1,3,-1,-4,-4
27361210407,-7,-3,1,-2,-6,-7,-8,-20
27361210407,0,0,-10,5,9,1,-4,4
27361211947,-7,0,8,-6,-8,0,-4,-10
27361211947,6,5,1,8,4,-3,-2,9
27361212792,-3,-3,6,1,0,-4,-13,-10
27361212792,0,1,-4,12,15,6,17,22
27361223473,11,14,3,-12,-12,-2,8,5
27361223473,2,3,-3,-11,-5,-3,3,0
27361224128,-14,-5,-5,-5,-4,-3,-9,-16
27361224128,-6,-10,1,-13,-11,-9,-6,-4
27361245880,3,5,16,20,10,13,7,9
27361245880,-11,-18,-23,-15,-8,-11,-5,-5
27361246650,9,6,-3,-10,-9,-4,-5,9
27361246650,-9,0,19,15,11,6,0,-16
27361261697,-11,-25,-43,-42,-25,-12,-9,-11
27361261697,7,12,8,13,1,1,3,6
27361268467,-9,-13,-10,-13,-11,-11,-12,-8
27361268467,1,4,19,26,22,8,-18,1
27361283465,6,6,16,-9,-12,-3,3,8
27361283465,-4,-4,-8,-15,-10,-5,0,-16
27361284117,-6,-4,-6,17,21,12,3,-1
27361284117,-7,-10,-18,-20,-18,-11,0,0
27361306036,6,7,-4,-13,-9,-15,-18,5
27361306036,0,1,23,12,9,18,10,-1
27361306617,-1,-10,-12,-2,-1,-2,-1,-7
27361306617,-10,-10,-34,-37,-26,-13,-5,-32
27361320279,3,4,13,33,25,19,23,29
27361320279,-1,2,14,12,7,-1,5,8
27361335988,-9,-11,0,2,3,-3,-12,-11
27361335988,21,11,-11,8,10,5,4,7
27361343548,-12,0,0,-21,-22,-20,-25,-19
27361343548,10,6,13,30,28,21,18,15
27361344147,0,1,4,-17,-20,-12,-4,3
27361344147,-6,-10,0,-2,-3,-2,0,-2
27361365885,-9,-6,-11,-15,-11,-6,6,3
27361365885,-3,35,-9,-7,-6,-9,-17,-9
27361366684,0,60,6,4,7,5,0,-13
27361366684,6,62,-7,-13,-13,-18,-1,17
27361380248,5,47,12,26,17,11,-7,-5
27361380248,-6,12,-34,-11,-1,-11,-16,-1
27361388498,13,27,34,17,9,10,21,21
27361388498,-2,-4,-2,-8,-4,1,-7,-9
27361411666,-4,-15,-7,-5,-7,-2,5,-2
27361411666,-15,-22,-2,4,3,-2,-8,-8
27361412297,18,-4,-14,-5,0,0,-1,5
27361412297,-3,-15,7,4,-3,-7,-12,-2
27361425958,-9,-25,-9,-12,-2,4,13,-1
27361425958,15,1,23,20,12,10,3,5
27361426621,-14,-30,-22,-29,-25,-20,-12,-3
27361426621,2,-13,-8,-21,-12,5,12,9
27361449057,-3,-12,16,35,29,7,-3,-7
27361449057,-10,-14,-5,-14,-7,-3,-5,-23
27361449953,-1,-24,-21,-1,4,8,11,18
27361449953,8,-10,16,-22,-27,-5,10,13
27361463358,-6,-7,-15,-13,-11,-14,-22,-17
27361463358,0,-11,10,7,4,7,10,7
27361464138,3,-8,-2,12,15,3,9,4
27361464138,-11,-25,-19,-23,-22,-8,-8,-14
27361485846,4,1,-8,-8,-8,-7,-8,-4
27361485846,-2,-8,17,20,14,9,14,8
27361486640,-18,-25,-28,-27,-16,-12,-11,-8
27361486640,-2,-8,9,8,4,5,8,-1
27361509111,13,12,28,16,7,1,0,1
27361509111,4,-8,-38,-33,-23,-16,-5,-1
27361509793,-6,-8,12,8,-1,-7,-14,-10
27361509793,0,1,11,29,26,11,9,-5
27361523455,-7,-11,1,4,2,7,4,-5
27361523455,-7,-14,-20,-39,-31,-17,-12,-4
27361524192,-10,2,0,20,17,10,11,-12
27361524192,13,8,32,51,37,25,9,18
27361545971,12,7,1,-11,-17,-7,2,8
27361545971,-8,-7,3,3,0,-6,-8,-13
27361546622,2,-8,1,-6,-1,5,6,8
27361546622,-8,-2,-3,-9,-9,-9,-11,-5
27361569185,-2,-7,-20,-12,-10,-6,-4,0
27361569185,5,-4,-10,-6,-2,7,16,11
27361569838,-2,-1,21,3,-7,1,-3,-7
27361569838,-11,8,-13,-12,-5,-8,-10,-21
27361583456,13,5,9,6,4,5,6,17
27361583456,-7,-6,-5,15,16,5,-3,3
27361584091,0,4,-12,-17,-15,-11,-8,-9
27361584091,-2,-2,-7,3,12,-1,-10,-13
27361614034,-7,-8,-1,-26,-28,-7,9,6
27361614034,18,34,37,52,37,18,8,-3
27361614800,5,6,16,7,-6,-2,-2,9
27361614800,-2,-18,-11,-1,0,7,4,5
27361629066,0,6,-10,4,13,1,-12,-10
27361629066,5,0,-5,-37,-35,-17,-9,-5
27361629892,-11,0,22,8,4,5,6,-1
27361629892,-12,1,-10,-9,-10,-14,-17,-21
27361643326,-6,-15,-4,-10,-8,-10,-13,5
27361643326,1,4,-6,0,3,-1,-13,-2
27361644091,-1,10,2,9,11,4,3,-5
27361644091,-4,-10,-4,-8,-8,3,2,-5
27361665837,3,-7,-19,3,15,-1,-3,20
27361665837,-12,-4,-3,-22,-24,-10,-1,-2
27361666625,2,-6,-13,7,12,-2,-5,0
27361666625,2,0,-15,-15,-15,-7,-3,-6
27361689129,28,18,36,38,34,25,32,20
27361689129,-22,-26,-18,3,4,-4,-22,-10
27361689820,9,16,34,15,9,5,3,2
27361689820,-22,-19,-22,-28,-21,-13,-7,-2
27361703532,20,21,8,18,14,7,5,-8
27361703532,-2,-8,-21,-20,-8,-6,3,-7
27361704141,-23,-16,-28,-58,-59,-38,-36,-28
27361704141,54,12,28,48,39,33,45,88
27361726402,-42,-23,4,-13,-19,-20,-27,-35
27361726402,-8,-1,-4,3,4,1,3,-3
27361727119,3,-7,-17,-31,-28,-11,-13,-5
27361727119,16,16,4,21,18,11,8,0
27361749014,-5,-2,-4,-12,-8,-2,1,-3
27361749014,-3,-3,-6,-12,-14,-6,-1,0
27361749830,-8,-2,-27,-14,-6,-11,-11,-20
27361749830,-4,0,18,20,13,9,7,8
27361763412,-5,7,34,24,13,10,4,-6
27361763412,-15,-10,-33,-35,-22,-19,-14,-24
27361764106,15,17,14,-1,-1,6,22,18
27361764106,1,-1,-11,4,6,-4,-10,1
27361785782,-12,-11,-18,-18,-15,-14,-16,-11
27361785782,-10,-10,12,-11,-20,-8,2,5
27361786551,-4,-3,10,19,13,4,-13,-17
27361786551,-7,-7,-28,-7,5,4,9,2
27361825495,8,8,-9,-15,-14,-5,0,-10
27361825495,7,2,-7,9,16,5,14,18
27361826140,-10,-1,24,6,-1,5,18,0
27361826140,12,7,1,4,2,8,9,11
27361827758,10,8,-33,-14,-7,-12,-23,-12
27361827758,13,6,36,9,-3,9,21,23
27361838469,-10,-7,-21,13,27,12,2,-3
27361838469,1,16,31,-2,-12,-15,-14,-16
27361846266,-27,-15,-26,-21,-11,3,18,7
27361846266,10,-4,26,24,13,12,2,-2
27361853466,10,0,-11,-5,-4,-1,4,15
27361853466,-29,-14,-17,-17,-4,-4,-18,-43
27361869141,-6,-8,-15,-30,-25,-8,9,8
27361869141,26,25,-7,13,10,4,-4,6
27361869841,6,16,49,50,38,22,25,21
27361869841,5,-7,-8,3,4,-2,-1,10
27361883335,-10,-13,-6,-3,-3,-1,-5,-16
27361883335,4,8,9,2,-1,2,12,1
27361884094,8,1,-12,-17,-14,-5,-2,-8
27361884094,-3,3,8,1,3,4,14,16
27361914071,-6,-1,6,5,3,-1,-2,1
27361914071,-6,3,-6,-6,-8,-6,-15,-13
27361914801,7,-5,1,14,11,3,0,12
27361914801,-12,-5,-17,-16,-5,-7,-10,-10
27361929147,2,6,28,15,6,4,2,8
27361929147,-8,-8,-11,0,3,-2,-10,-13
27361929765,-13,-14,-6,-11,-11,-5,-10,-14
27361929765,-2,2,-5,-2,1,3,12,6
27361943446,-6,1,4,4,5,-4,-6,-8
27361943446,-2,-25,-4,5,2,-8,-29,-9
27361944120,-16,-26,-3,-16,-20,-14,-10,-5
27361944120,7,-12,-7,-7,-7,-3,1,3
27361966056,10,-7,0,17,15,12,7,7
27361966056,-6,8,0,-10,-11,-3,12,15
27361966624,-4,11,-2,2,1,-4,-13,-5
27361966624,-10,10,-39,-47,-36,-24,-18,-25
27361989181,-3,14,53,52,35,14,13,14
27361989181,3,12,-25,-1,17,13,6,-5
27361989820,5,13,-4,18,11,7,5,3
27361989820,8,26,81,83,56,28,13,0
27362002736,7,4,-24,-20,-13,-13,-8,-6
27362002736,-2,-15,-22,-12,1,5,15,13
27362010991,-12,10,23,38,30,10,-7,-28
27362010991,0,0,5,-20,-23,-21,-17,8
27362025883,-17,-17,-47,-17,-6,-1,-1,-7
27362025883,24,28,55,24,9,6,16,15
27362026659,0,-13,-39,-36,-24,-8,3,5
27362026659,-12,-1,-18,-15,-8,-15,-23,-38
27362048165,-19,-42,-13,-29,-28,-10,6,14
27362048165,-4,11,22,38,21,15,-2,-5
27362080476,55,18,10,-27,-21,1,20,38
27362080476,-37,-16,-12,-6,-15,-19,-35,-41
27362081954,28,13,-13,12,23,13,8,15
27362081954,8,13,36,23,7,6,9,4
27362082807,0,2,7,-18,-26,-7,22,13
27362082807,-3,-2,20,31,26,17,13,5
27362087294,4,-1,-11,-14,-5,9,21,9
27362087294,-9,-15,-14,-19,-17,-16,-16,-9
27362088072,2,1,0,6,8,-1,-5,-7
27362088072,19,10,-20,-40,-29,-15,-11,2
27362109033,-20,-9,22,32,22,13,7,-4
27362109033,-2,-3,-10,-4,-1,-2,-5,1
27362109804,-1,-5,-5,0,0,-6,-10,1
27362109804,3,-14,-15,-5,-1,2,11,-3
27362122680,5,-3,-1,-13,-13,-6,-5,3
27362122680,-2,-5,-13,-17,-13,-13,-16,-22
27362131394,-7,-9,-12,-2,3,1,-8,-3
27362131394,6,-10,6,5,2,11,23,34
27362145915,1,3,11,3,-2,-5,-3,-6
27362145915,-10,0,-10,-13,-7,-2,9,-5
27362146661,-6,-2,-7,-2,1,-5,-8,-5
27362146661,-5,-2,-13,-16,-14,-6,-2,-1
27362169058,10,4,-6,0,3,-2,-9,-7
27362169058,-3,-7,1,1,5,7,7,1
27362169760,-6,-6,3,1,-2,-2,-6,-1
27362169760,4,-1,17,15,6,-2,-2,2
27362182685,-3,0,-9,-7,0,-2,-8,-8
27362182685,-1,-7,-1,1,-1,-6,-10,-4
27362191559,-8,-10,-19,-11,-4,-5,-6,-3
27362191559,-1,-4,7,5,1,-1,0,1
27362205948,3,18,4,-2,-5,-7,-11,-11
27362205948,-4,-5,-15,-14,-6,-3,-2,2
27362206694,9,3,7,10,5,0,-4,11
27362206694,-8,-14,-15,-7,-4,-1,3,-13
27362229074,8,11,10,8,2,2,1,8
27362229074,-11,25,2,-7,-6,-8,-4,-2
27362229794,-2,4,6,4,2,3,-3,-2
27362229794,-4,8,-8,-2,4,6,5,8
27362242729,-2,5,16,5,-5,-7,-5,-5
27362242729,4,-13,-5,-3,-1,-3,-4,-1
27362251020,2,-4,0,-1,1,0,4,0
27362251020,0,-5,-33,-18,-7,-3,-3,-4
27362265842,-6,-7,39,21,2,0,0,-2
27362265842,-3,-21,-18,-11,-4,-3,-1,0
27362266585,-5,-6,7,4,2,0,-1,-1
27362266585,6,10,18,12,4,-1,-2,6
27362289056,-11,2,-4,-6,-3,-1,-4,-12
27362289056,-9,-1,-6,-5,-3,-5,-8,-3
27362289805,-7,-17,-15,-6,-2,-2,-4,-20
27362289805,0,1,2,-3,-4,-2,4,23
27362302794,11,-4,-1,-1,-1,1,3,19
27362302794,9,-15,-8,0,-1,-2,-1,1
27362310953,-22,6,6,4,5,10,8,2
27362310953,-10,-1,2,-2,-1,0,-1,-32
27362325699,-7,-3,-7,-5,-4,-2,1,-4
27362325699,-8,-8,-8,-5,-1,-2,-3,-9
27362333447,9,-8,-3,0,-3,-7,-5,10
27362333447,-2,-18,4,2,0,-1,0,4
27362349128,11,11,-12,-1,-1,-2,-2,-1
27362349128,2,-3,6,1,0,-1,1,0
27362349764,-3,-6,7,5,1,0,-3,-8
27362349764,-2,0,-1,-2,-3,0,-3,1
27362371604,0,-13,-23,-12,-4,-3,-3,-1
27362371604,4,6,4,1,-1,-1,-3,4
27362372321,0,6,3,4,2,1,3,0
27362372321,7,-1,-5,-4,-2,-1,-1,1
27362385880,0,2,-3,-5,-3,-4,-5,-4
27362385880,-6,2,-2,-2,-1,-1,-3,-6
27362386647,-1,-4,-17,-10,-2,-1,2,1
27362386647,-1,2,8,3,-1,-3,-4,-2
27362409121,1,-1,5,-1,1,0,0,-3
27362409121,0,-6,0,1,2,3,6,6
27362409790,8,-7,-19,-5,-1,0,1,10
27362409790,2,19,34,9,1,-6,-9,-14
27362431658,-6,-9,-9,-5,-5,-6,-9,-5
27362431658,13,3,-7,-3,2,13,18,21
27362432305,-10,1,3,6,4,1,0,-10
27362432305,-1,-10,-13,-2,0,1,2,11
27362445892,-3,2,-3,0,-2,-5,-3,-3
27362445892,2,14,30,11,-2,-7,-7,-8
27362446584,3,5,-14,-7,-5,-3,-4,-1
27362446584,4,0,-6,-2,0,1,-1,-3
27362469128,1,5,-4,-4,-2,-3,-3,-3
27362469128,-2,-6,-12,-2,-2,-2,-1,1
27362469828,-3,4,20,5,-1,-2,-1,0
27362469828,2,-2,-4,0,1,-1,-2,0
27362491597,0,9,-2,-2,-1,1,2,-1
27362491597,-5,1,0,0,-2,0,-2,-5
27362492262,2,7,8,4,1,-1,-2,-1
27362492262,-1,-6,-14,-5,-2,1,-1,0
27362505930,-4,-2,1,8,1,1,2,-1
27362505930,-4,6,1,-10,-6,-7,-5,-9
27362506622,0,-2,-3,-2,0,-2,-2,2
27362506622,-4,-10,5,6,3,2,-1,5
27362529159,-4,-4,-8,-2,0,1,3,-4
27362529159,6,7,3,-1,2,8,6,3
27362529816,-3,6,-4,-3,-1,0,6,12
27362529816,1,3,4,-4,-3,-1,-2,-8
27362551594,-6,-13,-12,-2,-2,-5,-5,5
27362551594,-8,-1,7,6,4,0,-2,-15
27362552298,1,-1,4,-2,-3,-3,-4,-4
27362552298,1,6,-5,-2,-2,-1,0,0
27362565263,-2,2,1,-2,0,2,-2,-3
27362565263,-2,-9,-11,-3,-6,-6,-4,5
27362574135,3,3,11,7,3,0,0,-3
27362574135,-1,-5,-12,-7,-3,-2,-1,-3
27362589255,-3,-2,17,5,5,3,4,5
27362589255,0,1,1,0,2,-2,-5,0
27362590586,-10,-15,-20,-6,-4,-3,-2,-9
27362590586,0,2,13,3,-2,-2,-2,2
27362611966,6,1,-2,-4,1,1,1,1
27362611966,-1,-1,-15,-5,-2,-2,-3,7
27362613559,2,7,12,3,0,4,4,-13
27362613559,-14,-10,-15,-1,0,-2,0,1
27362625161,-4,-17,-7,-10,-5,-3,-3,-8
27362625161,5,13,0,-3,-4,-7,-7,7
27362634213,1,3,2,1,2,-1,-5,-2
27362634213,1,-2,-4,-1,0,5,9,3
27362649101,3,1,2,-1,-2,-2,-3,3
27362649101,-6,-10,-7,-1,-1,1,0,-12
27362650786,3,-4,-9,-8,-3,-1,-3,5
27362650786,2,14,18,8,2,1,-3,-2
27362671683,-2,-4,-4,0,-2,-1,-2,-3
27362671683,-3,-1,1,-1,-1,-1,1,-2
27362673123,0,1,4,1,0,-1,-2,3
27362673123,0,-4,-9,-9,-3,-4,-3,0
27362685292,-4,4,-2,1,1,2,3,-4
27362685292,-9,-7,-9,2,1,-3,-2,-5
27362694158,1,6,16,-1,-5,-4,-4,0
27362694158,1,-3,-4,-3,0,-1,2,4
27362709691,0,8,9,4,1,2,0,-3
27362709691,-7,-10,-18,-10,-4,-3,-1,-2
27362711326,0,2,-3,7,1,-3,-2,-9
27362711326,2,-1,1,-4,-3,-3,0,8
27362731542,3,11,1,-3,-1,-4,-1,2
27362731542,5,1,5,5,4,3,1,3
27362733180,-8,0,2,0,-2,0,0,0
27362733180,-1,-1,2,2,0,-1,-3,-8
27362745245,-2,-6,-13,-6,-2,-1,-1,0
27362745245,-2,-5,8,1,-2,-1,-1,-1
27362754160,1,5,5,-2,0,-2,0,2
27362754160,-3,-6,-17,-4,1,-1,0,-1
27362769122,-5,1,19,8,-1,-3,-3,-4
27362769122,3,2,-1,-1,-2,0,-1,1
27362770666,-4,-10,-21,-9,-3,0,2,2
27362770666,-3,1,7,4,2,-1,0,-8
27362791567,1,4,0,1,0,1,1,0
27362791567,-1,-3,0,1,0,0,-1,0
27362793105,2,-1,0,1,0,-2,-2,0
27362793105,1,-1,-7,-3,-3,-1,-1,3
27362805243,1,-9,-9,-5,-4,-1,-2,-2
27362805243,1,9,6,2,0,-1,0,-3
27362814183,-3,-5,-8,-1,-1,1,0,1
27362814183,2,-1,11,1,-1,-3,-5,-1
27362836553,-1,-5,-1,-1,-1,-2,-1,2
27362836553,1,-1,-1,-3,-2,-1,1,1
27362838106,0,-1,-3,-2,-1,-1,1,-4
27362838106,1,0,-4,-2,-2,-2,-2,-2
27362851594,-3,-1,-1,1,0,0,-1,0
27362851594,-1,-3,-5,-4,-1,1,-1,-1
27362853110,-4,-9,2,2,-2,-2,-2,-2
27362853110,3,16,7,0,0,-1,0,0
27362865273,1,1,-3,-4,-2,-2,-4,1
27362865273,-1,-2,-2,-1,-2,-2,-2,-2
27362874129,0,1,2,1,-1,1,0,1
27362874129,-3,-7,-6,-1,-1,-2,-1,0
27362889180,-2,-5,-11,-9,-2,-4,-2,-4
27362889180,1,5,17,5,0,-1,-1,0
27362890602,2,-3,-1,-2,-2,-1,-3,0
27362890602,-4,0,-2,-1,0,4,2,-4
27362919077,2,6,6,4,-2,-3,-2,1
27362919077,-6,-8,-13,-8,-2,-2,1,-8
27362920587,1,2,1,0,-1,0,4,7
27362920587,-4,-6,-4,0,2,1,0,2
27362925208,-1,-7,-5,-3,-2,-1,-1,0
27362925208,4,2,3,-1,-1,-2,-2,-4
27362934125,1,-2,-1,0,1,1,1,-2
27362934125,-3,1,-3,-3,-5,-3,-3,-7
27362949066,-3,-6,0,0,-2,0,2,0
27362949066,1,5,-1,0,-1,-3,-2,0
27362950607,1,0,-6,-8,-3,-3,-2,0
27362950607,0,0,17,13,3,-1,-2,-2
27362971656,-5,-6,-4,-4,0,-1,-1,-3
27362971656,-3,-8,-2,1,-3,-1,-1,1
27362973127,3,3,6,2,3,1,-2,2
27362973127,-6,-8,-14,-6,-2,-1,0,-6
27362985694,-3,3,8,1,0,1,1,1
27362985694,1,-2,-14,-7,-3,-3,-2,1
27362994135,2,-2,-2,-1,-1,0,1,0
27362994135,-2,-1,0,-2,-2,0,-1,-1
27363009108,-2,2,7,4,1,2,1,-2
27363009108,-1,3,-3,-3,-2,-1,-3,1
27363010639,-5,-2,1,1,-1,-1,-1,-4
27363010639,1,0,-1,-1,1,-4,-2,-14
27363031626,-2,-3,-4,-3,0,-1,2,16
27363031626,0,-4,0,-1,-1,-1,-1,2
27363033136,-9,-9,-4,1,0,-1,-3,-4
27363033136,3,11,-1,-4,-2,-3,1,3
27363045156,-1,-3,-5,0,-2,-2,-3,-6
27363045156,-5,-4,-1,-3,2,-1,1,-1
27363054161,5,8,3,3,2,0,-1,0
27363054161,-5,-9,1,1,-2,-2,-1,-3
27363069000,1,3,1,1,-1,-1,-1,-3
27363069000,-2,-1,4,1,0,-1,-1,1
27363070663,-2,-3,-12,-5,-1,0,1,-5
27363070663,-1,-9,-2,1,0,0,-1,3
27363091557,3,8,-2,-4,-1,-2,-1,-3
27363091557,1,-3,6,4,0,2,2,3
27363093113,-3,1,4,0,-2,-4,-2,-3
27363093113,1,3,2,-1,-1,1,2,0
27363105272,-3,-6,-10,-4,-2,-2,-2,0
27363105272,-1,-4,-2,0,-1,-1,-1,1
27363114161,-5,-5,-11,-6,-5,0,0,-2
27363114161,2,-4,-6,-2,0,-2,0,-3
27363128449,-5,-4,6,0,0,-2,-3,2
27363128449,-2,2,-7,-5,-2,-2,-1,-3
27363135321,0,-6,2,0,0,-2,-3,-1
27363135321,0,10,-4,-3,-1,0,0,4
27363151563,6,-6,-4,-6,-3,-3,-2,-8
27363151563,1,9,8,5,-1,-1,-1,-1
27363153110,-4,-3,-2,-2,0,-1,0,-1
27363153110,0,-3,-1,-2,-1,-3,-3,1
27363165249,-4,0,-1,-2,-2,-2,-2,-3
27363165249,-1,2,-1,1,1,-1,-1,0
27363174134,1,0,5,1,1,1,0,1
27363174134,-1,-4,-4,-5,-5,-2,0,3
27363188393,0,3,1,2,0,-1,-2,-4
27363188393,0,-4,-5,-3,-2,-1,0,-2
27363195278,0,2,2,1,1,-1,-2,1
27363195278,-3,-5,-3,-2,-1,-2,-1,0
27363211593,4,1,-1,0,-2,0,0,3
27363211593,-6,-3,-4,-3,-2,-2,-2,-5
27363213101,-2,0,-3,-3,-3,-1,0,-3
27363213101,4,-2,4,0,0,0,-2,5
27363225227,-1,-4,-2,-4,-2,1,2,0
27363225227,2,4,5,1,1,-1,-2,-5
27363234107,-2,0,7,4,-1,-2,0,5
27363234107,-2,5,2,1,-1,0,-3,-4
27363248471,-7,-6,-2,2,1,0,-3,-8
27363248471,3,3,-2,-2,-2,-1,-2,9
27363255239,0,-3,-6,-4,-3,-1,-2,-2
27363255239,0,2,3,1,-1,-2,0,-1
27363272060,-1,0,-1,0,-1,-2,-1,0
27363272060,-4,-5,-7,-2,-2,-2,0,-3
27363285876,-1,2,-1,0,1,0,0,-2
27363285876,-2,-7,-4,1,-1,1,-1,2
27363286590,-1,-11,-9,-5,-2,0,1,-2
27363286590,0,18,13,2,0,-1,-1,-4
27363294160,-2,-1,-4,-2,-1,-4,-3,0
27363294160,-1,3,5,1,0,1,-1,-2
27363308368,-6,-6,3,4,1,0,0,0
27363308368,1,-8,-7,-6,-4,-3,-3,-2
27363315239,-1,-1,-3,-2,0,0,0,-2
27363315239,-2,-2,-2,-1,0,-1,1,-1
27363331597,-2,4,3,2,1,0,1,-1
27363331597,-1,-6,-6,0,-1,1,0,0
27363333111,1,0,2,1,1,0,-3,0
27363333111,-4,-7,-4,-4,-1,-4,-2,-3
27363354028,0,2,-2,-2,-2,0,0,3
27363354028,-1,-4,-1,0,1,1,-1,0
27363355652,1,0,-7,-5,-5,-2,0,-1
27363355652,0,-6,0,-2,-2,0,-2,-3
27363368406,2,5,8,4,1,-1,-2,3
27363368406,0,4,3,2,1,2,1,-1
27363375254,-1,-7,-7,-3,-3,-1,-2,1
27363375254,-1,1,-1,2,1,1,0,-1
27363391523,0,-2,-2,-3,-1,0,-1,-2
27363391523,-3,-10,-4,-2,-2,-2,-2,0
27363393135,2,6,1,3,1,-1,1,0
27363393135,4,1,-4,-4,-5,-2,-1,-3
27363414095,-2,-8,-6,-3,-2,-1,0,-2
27363414095,0,10,9,4,0,0,-1,0
27363415581,-3,-6,-2,-2,-2,-2,-1,1
27363415581,-1,3,-1,-2,0,-2,-1,0
27363428772,-2,-2,1,0,1,-1,-2,-1
27363428772,-1,-3,-4,-3,-1,0,0,-1
27363444162,0,-6,0,-2,0,-2,0,-1
27363444162,-6,-3,-2,-2,-2,0,1,0
27363451593,1,2,2,-2,1,-2,-3,-2
27363451593,0,-1,2,5,2,1,-1,-3
27363453124,0,4,5,0,-2,-3,-2,-3
27363453124,0,-3,-2,3,2,1,-1,1
27363474112,-1,-1,-5,-4,-4,-3,-3,-2
27363474112,-3,-5,-6,-3,0,0,-1,-1
27363475606,1,0,-1,1,1,1,-1,-1
27363475606,5,-4,1,0,-1,-3,-2,3
27363487741,-10,-8,-2,-1,0,0,-1,-6
27363487741,2,2,-7,-4,-2,-1,-1,1
27363496635,-3,-9,-13,-6,-2,1,1,-2
27363496635,3,19,15,6,-1,-1,-2,2
27363511584,1,3,3,5,1,0,0,1
27363511584,-1,6,9,-1,-1,-2,-1,1
27363513079,-4,-2,-3,-5,-2,-2,-2,-3
27363513079,-4,-9,-10,-3,-3,-2,-4,-3
27363534178,4,6,0,0,0,1,0,2
27363534178,-4,-3,1,-3,-2,-2,-1,-1
27363535599,-1,-4,0,-2,-4,-2,-1,0
27363535599,-1,2,-13,-6,-4,-2,-2,-1
27363547744,-2,4,3,2,2,1,1,-1
27363547744,-1,-8,-6,-2,-2,0,-1,0
27363556637,-1,5,1,2,0,0,0,-2
27363556637,-2,-6,4,2,-1,-1,0,-1
27363571617,-2,-2,-9,-5,-3,-1,-1,-1
27363571617,-1,-2,-5,-3,0,-1,0,-2
27363573107,-1,-2,0,1,1,0,-1,0
27363573107,1,-3,2,-1,-1,0,-2,-3
27363594182,2,2,1,1,0,-1,0,1
27363594182,-2,-5,-1,-1,-1,-2,0,0
27363595628,-4,-5,-3,-5,-4,-2,-4,-4
27363595628,-1,4,5,3,2,1,1,0
27363607749,-2,0,2,-2,-3,-1,-2,-1
27363607749,2,-4,-12,-5,-5,-4,-1,2
27363616639,-3,5,11,6,3,2,0,-1
27363616639,1,-1,-4,-3,0,-1,0,0
27363631635,1,-1,-4,0,0,0,0,-2
27363631635,1,4,10,1,0,0,-1,0
27363633096,1,-3,-9,-5,-3,-2,-2,-1
27363633096,-3,-6,1,-1,-1,-2,1,-1
27363654087,0,-3,-1,-3,0,2,-1,1
27363654087,-2,-3,-4,-3,-3,-2,-2,-4
27363655587,-1,0,1,-2,-2,0,-1,-1
27363655587,-4,-6,-9,-5,-3,-1,0,-3
27363667734,2,1,-4,-1,-2,-3,-1,0
27363667734,-1,0,4,2,1,0,-1,-2
27363676611,-3,-4,1,-2,-1,-2,-1,1
27363676611,-4,-16,-1,0,-2,-1,-3,-4
27363691494,4,22,8,0,-2,-1,0,0
27363691494,-6,-3,-12,-7,-1,-2,-1,-4
27363693092,0,0,10,8,0,0,0,0
27363693092,0,1,0,-2,1,1,1,0
27363713944,-3,-6,0,-2,-3,-4,-3,-2
27363713944,1,-4,-9,-6,-3,-2,-1,0
27363720182,-2,2,-3,-2,-1,-2,-2,1
27363720182,-1,4,-2,0,0,-1,0,0
27363727774,-3,-4,5,2,-1,-2,-2,-3
27363727774,1,-7,-10,-1,-1,-1,0,2
27363736631,-2,-10,-9,-5,0,0,0,-2
27363736631,-2,-1,10,5,2,3,1,0
27363751592,1,4,-2,-2,-1,0,-1,-2
27363751592,-2,-6,2,5,-1,1,0,0
27363753085,3,7,4,2,1,-1,1,-1
27363753085,-2,-3,-6,-5,-3,1,0,1
27363774259,-1,-9,-1,2,-1,-3,-2,-1
27363774259,-5,-2,-3,-3,-3,-2,-1,-5
27363775638,1,2,-3,-1,-1,0,-1,-2
27363775638,-2,0,-11,-4,-2,-1,-2,-2
27363787799,-2,-5,2,-1,0,-2,-2,0
27363787799,-2,-2,2,2,0,0,0,1
27363796629,0,-1,2,0,0,0,-1,-2
27363796629,3,0,-6,-5,-4,-2,-1,1
27363811615,-1,4,-3,-3,-1,1,1,2
27363811615,0,5,9,-1,-2,-1,0,-1
27363813108,-1,-3,-3,0,0,-3,-1,1
27363813108,-3,3,-2,-2,-2,-2,-3,-2
27363834074,-4,-9,-1,0,0,-1,-2,-4
27363834074,2,0,4,1,0,0,-1,1
27363835610,-2,-4,-3,-1,-2,0,-1,-1
27363835610,-12,-4,-14,-7,-3,-3,-1,-10
27363847647,0,-3,-3,-1,-1,-1,1,-2
27363847647,-1,1,3,0,0,-1,-2,-1
27363856644,0,-1,-8,-4,-2,0,1,0
27363856644,0,2,14,4,-1,-1,-1,-1
27363871545,3,3,4,-1,-2,-4,0,2
27363871545,-6,-7,-9,-2,1,1,-2,-2
27363873156,0,-6,-1,-2,-2,-2,-2,-3
27363873156,2,11,3,-1,0,0,1,2
27363894117,1,-6,-10,-5,-3,0,1,-2
27363894117,3,10,12,6,1,-1,0,2
27363895578,-4,0,-3,1,1,1,0,0
27363895578,0,-3,0,0,0,0,-2,-1
27363907722,-3,-6,-5,-3,-2,1,-3,-2
27363907722,-1,-2,-8,-5,-3,-1,0,0
27363916607,0,5,8,1,0,1,1,0
27363916607,2,-2,-1,-3,0,-1,0,-1
27363931627,-1,-2,-7,-2,0,0,-1,-1
27363931627,-1,-6,-5,-4,-2,-2,0,-2
27363933135,-3,2,2,-1,-1,-1,0,0
27363933135,-2,-8,12,6,1,1,0,-2
27363954122,1,12,1,-2,-3,-1,0,-1
27363954122,-1,-4,1,1,0,1,-3,-2
27363955639,-1,2,-10,-5,-2,-3,-2,-1
27363955639,-3,-7,-5,-5,-2,-1,1,1
27363967675,-3,-3,-3,-2,-1,-2,-1,-1
27363967675,-1,0,-4,-4,-3,-2,-1,-1
27363976606,-1,5,4,-1,0,-2,-3,-2
27363976606,5,4,1,6,2,2,-1,2
27363999124,-4,-2,4,1,0,0,-2,-2
27363999124,0,-6,-7,-3,1,0,-1,0
27364000619,-2,-14,-15,-6,-3,-2,-2,-2
27364000619,-3,1,-3,-3,-5,-4,-1,-1
27364014015,0,0,13,5,2,1,0,1
27364014015,-3,-4,-2,1,-1,-2,-2,-4
27364015617,1,15,17,5,2,1,0,-2
27364015617,1,-12,-24,-10,-4,-1,0,-1
27364027675,2,9,12,8,1,-1,-2,0
27364027675,-4,-5,-5,-3,-2,-2,-1,0
27364036638,2,1,-1,0,-5,-1,0,0
27364036638,-6,3,-5,-2,1,1,-2,-3
27364050875,-3,-9,-10,-6,-3,-2,-2,-2
27364050875,2,4,-3,0,0,-2,0,2
27364065179,-4,-4,5,2,-1,-4,-2,-7
27364065179,3,3,1,0,1,0,-1,3
27364073936,0,-1,-1,1,-1,-1,2,1
27364073936,-3,-2,1,-2,-1,-1,-2,-2
27364075548,-1,-7,-1,-2,-2,-2,0,3
27364075548,-2,-3,6,6,3,-1,1,0
27364087652,-1,7,-3,-3,-2,-1,-2,0
27364087652,1,5,-2,-2,-1,0,0,0
27364096653,-3,-10,-6,0,0,0,-3,-1
27364096653,-2,0,1,-1,0,-2,-1,-3
27364110981,-2,-7,-4,-1,-1,0,0,0
27364110981,0,2,5,-2,-1,-1,0,0
27364117767,-2,-3,-8,-5,-3,-2,-1,-2
27364117767,1,1,0,-1,-3,-2,-2,3
27364134096,-5,-5,-6,1,0,-1,-2,-5
27364134096,-1,2,1,1,0,2,1,-3
27364135636,-4,-4,-10,-4,1,2,-1,-1
27364135636,3,8,7,1,-1,0,0,0
27364147645,-2,-4,0,-5,-3,-3,-1,0
27364147645,2,-1,-3,-1,-3,-3,0,5
27364156624,-2,6,19,12,5,2,1,-4
27364156624,-1,-8,-20,-10,-6,-4,-2,-2
27364171729,-2,-1,2,-1,-2,-1,-3,-3
27364171729,2,-2,-10,-5,-1,0,-1,1
27364173075,3,-2,-5,-2,0,-1,0,2
27364173075,-3,-2,7,2,-2,-2,-3,-5
27364194059,-2,-8,-8,-4,-1,-2,-1,0
27364194059,-2,0,-10,-8,-4,-2,-1,-4
27364195666,1,11,12,6,0,-1,-2,1
27364195666,-2,-1,7,3,1,-1,-1,-3
27364207723,-2,-1,0,-2,0,0,-2,0
27364207723,2,2,7,2,1,-1,-3,-1
27364216635,-3,-6,-18,-6,-4,-3,-2,-2
27364216635,4,5,-5,-3,-1,-1,-1,1
27364231598,-2,-4,14,5,0,0,0,-1
27364231598,-4,-14,-1,5,2,-1,-2,-2
27364233116,1,11,4,-7,-2,-1,0,2
27364233116,1,-2,-9,-5,-3,-2,-2,1
27364254046,-2,-2,1,-1,-4,-4,-2,-1
27364254046,-2,2,17,2,2,0,-1,-1
27364255592,-2,-5,0,-1,1,0,0,0
27364255592,-6,-5,5,1,1,1,-2,-2
27364276592,3,2,-30,-11,-2,0,-1,1
27364276592,-3,2,4,-2,-3,-1,0,-1
27364278102,0,-1,7,3,-1,-2,-1,-2
27364278102,0,2,-4,-3,-2,-1,-2,-1
27364291495,-4,-10,-8,-3,0,-1,1,-3
27364291495,-1,6,13,11,4,0,-1,-3
27364293076,1,-3,-5,-4,-4,-1,0,-2
27364293076,-1,-2,-5,-4,-3,0,1,1
27364314121,3,-2,0,0,-1,1,0,0
27364314121,-1,-1,-18,-7,-4,-3,-1,-3
27364315630,-3,-4,1,2,1,-1,-2,-2
27364315630,-1,0,3,-2,1,2,-1,0
27364336473,0,-2,-16,-7,0,-2,-2,-1
27364336473,-1,4,13,9,2,0,-3,0
27364338049,5,3,6,3,0,-1,-1,0
27364338049,-4,3,1,3,1,-2,-2,-4
27364351542,-2,-3,-8,-7,-5,-2,-2,-1
27364351542,2,4,10,3,3,2,1,0
27364353084,-3,-10,-21,-7,-2,-1,-1,-1
27364353084,0,3,0,-3,-1,0,0,-2
27364374121,0,-2,7,3,-1,-1,-1,-1
27364374121,-3,-2,-3,-4,-4,-3,-2,-3
27364375608,-2,-2,12,2,-1,1,0,-2
27364375608,1,-6,-18,-8,-1,0,0,0
27364395651,-1,3,6,3,2,2,0,0
27364395651,-4,-13,-5,0,-1,-1,1,2
27364404111,2,17,4,-2,-2,0,-1,-2
27364404111,1,0,7,2,-2,-1,-2,-2
27364410980,0,1,-2,-7,-4,-2,-1,0
27364410980,-2,-6,-15,-7,-4,-1,-1,-1
27364417645,-3,-4,6,5,4,1,0,0
27364417645,1,-1,0,1,-1,-1,-1,1
27364434122,-3,1,4,1,0,-1,1,-1
27364434122,3,2,4,-2,-2,1,-1,-2
27364435596,-1,-5,-6,-3,-1,-2,-2,-2
27364435596,-2,-1,3,4,-1,-2,-1,0
27364456653,-1,1,4,1,-2,0,0,-1
27364456653,1,1,-5,-3,-1,-3,-1,-1
27364458096,0,-4,-6,-5,-1,0,1,0
27364458096,-4,-5,-1,-1,-1,-1,0,0
27364470876,-2,4,1,-5,-1,-2,0,-4
27364470876,-3,1,-2,1,0,-1,-1,0
27364477645,3,3,-1,-1,0,-1,-2,0
27364477645,0,-3,0,0,-1,0,-2,-1
27364494014,1,2,0,4,1,-1,-2,-2
27364494014,-5,-3,3,1,-2,-2,-1,-2
27364495572,-1,-5,-3,-5,-3,-2,-1,1
27364495572,-2,-3,-2,-1,0,-2,0,-1
27364516711,0,-2,-8,-4,-1,0,0,1
27364516711,0,7,21,7,-2,-1,-2,-1
27364518069,-5,-7,-17,-6,-2,-2,-2,-2
27364518069,-1,-4,9,0,-3,-2,-3,0
27364530890,1,7,-6,-1,-2,-2,-2,-1
27364530890,-3,-9,-12,-8,-3,-3,-1,0
27364537695,-2,-1,0,-3,-1,-3,0,-1
27364537695,0,5,-1,1,0,0,2,0
27364554180,-1,-9,-1,1,3,-2,-1,-1
27364554180,2,1,-3,-5,-3,-1,-3,-1
27364555604,-3,-2,-3,-2,-2,0,-2,0
27364555604,-4,-3,-8,-2,0,1,-1,-2
27364576435,1,3,5,5,1,0,-3,1
27364576435,-1,3,7,4,1,-1,0,1
27364578063,-2,-2,-7,-2,-1,-1,0,-1
27364578063,3,5,4,0,-1,-1,0,1
27364590853,-3,-9,-2,0,0,0,1,-2
27364590853,0,-6,-6,-5,-2,0,1,0
27364597766,1,13,13,2,-1,-1,-3,-1
27364597766,0,1,3,1,1,0,-2,-1
27364614521,-1,-4,-1,1,-2,-1,-2,-2
27364614521,1,5,-5,-3,0,2,0,-1
27364627749,-1,-6,-4,-2,0,-1,-1,0
27364627749,-1,-3,-7,0,-3,-3,-1,-2
27364636620,-4,0,5,4,0,-3,-1,-1
27364636620,-1,1,1,1,2,1,0,1
27364638057,0,0,6,2,-1,0,1,-1
27364638057,-1,-1,-10,-6,-3,-2,-1,0
27364650898,-1,0,2,-1,-2,-3,-1,-1
27364650898,-2,-5,-10,-4,-1,-1,-3,-3
27364657601,2,4,10,5,0,0,-1,0
27364657601,0,-3,-6,2,1,0,1,1
27364674096,0,-1,0,-3,-2,-1,-1,-1
27364674096,0,0,0,-5,-1,-2,-1,0
27364675613,0,-5,-8,-6,-1,-1,-1,1
27364675613,-5,0,11,3,0,-2,-3,-4
27364696371,3,2,-3,3,1,0,1,-3
27364696371,2,0,13,1,1,-1,-1,-2
27364702688,-4,-11,-24,-12,-6,-3,-3,-1
27364702688,2,10,8,6,2,0,-1,1
27364710919,0,-2,-4,-1,3,2,-1,1
27364710919,-3,-4,-2,-2,-2,-2,-2,-3
27364717737,-1,-4,-2,2,0,-1,0,-1
27364717737,0,3,3,-5,-3,-2,-2,-1
27364734005,-2,0,8,1,-3,-3,-4,-2
27364734005,-3,-9,-12,-4,-1,0,0,0
27364735600,-3,-2,-3,0,-2,-1,-1,-3
27364735600,-2,-3,-3,0,2,2,-1,-2
27364756546,0,-1,1,-3,-3,-1,-1,1
27364756546,-1,0,10,1,0,-2,-2,-2
27364758129,-1,-3,-16,-3,1,0,1,1
27364758129,0,-3,9,4,-2,0,0,-1
27364770231,-5,-4,-9,-7,-5,0,-2,-2
27364770231,2,3,5,3,0,0,-1,0
27364779129,-4,1,4,0,-1,-1,-1,-3
27364779129,0,-2,-4,-1,-1,-2,-2,2
27364794042,0,-2,-3,-4,-1,-2,-2,-5
27364794042,-4,-5,-17,-6,-2,-1,1,-2
27364795585,1,3,12,4,0,0,0,0
27364795585,-3,-3,-2,-3,-2,-3,-2,-3
27364816554,0,0,-1,-1,-1,0,0,3
27364816554,0,-1,-10,-6,-1,-2,-1,1
27364818052,1,6,14,7,2,0,-2,0
27364818052,-1,-8,-12,-7,-4,-2,-1,-1
27364830215,-1,3,8,-1,1,-1,-2,0
27364830215,-1,-2,-4,0,0,-1,0,-2
27364839135,-1,-7,-9,-7,-5,-2,-2,0
27364839135,3,4,-1,-1,-1,-2,0,1
27364854101,-3,0,6,2,0,1,-1,-2
27364854101,-1,-5,-8,-2,0,0,-2,0
27364855620,-1,1,5,-2,-1,-1,1,1
27364855620,-2,-5,-15,-2,0,-2,1,-3
27364876542,0,2,-4,-4,-2,0,0,0
27364876542,-2,-1,-4,-2,-1,0,-1,-4
27364878058,0,-2,12,4,1,-1,-2,-1
27364878058,-2,-3,4,-2,-2,-1,-1,-2
27364890245,-2,3,-6,-1,-3,-2,0,-3
27364890245,5,-1,-1,2,-2,0,1,3
27364899062,-2,0,-11,-5,-2,-1,0,-1
27364899062,-3,-8,2,1,-1,-1,-1,-1
27364914076,-1,-1,6,5,1,0,-2,1
27364914076,0,4,-11,-3,-3,-2,0,-4
27364915613,3,2,6,1,-1,0,0,1
27364915613,-1,-5,-9,-5,-1,-2,-3,1
27364936598,-5,-2,2,0,0,-3,-1,-5
27364936598,2,1,7,3,1,0,-1,-1
27364938073,-4,-6,-8,-4,-2,-1,-2,-3
27364938073,-1,3,0,-3,0,1,-1,-1
27364950253,4,2,9,5,1,1,-2,-1
27364950253,-6,1,1,-1,1,-1,-2,-1
27364959112,-1,-2,-6,-1,-3,-2,-1,-3
27364959112,0,0,13,2,1,2,2,1
27364974097,2,-5,-16,-9,-3,-2,-1,0
27364974097,-1,-4,-9,-1,-3,0,-1,-2
27364975568,0,3,4,4,2,-2,-3,-3
27364975568,0,0,-4,-1,-1,-1,-1,-3
27364996599,2,2,1,-1,0,0,-3,1
27364996599,-3,-2,2,-1,0,-2,-2,-3
27364998074,1,-5,-2,-4,1,1,1,6
27364998074,-5,1,3,0,-2,-2,-3,-5
27365010224,-5,4,0,-3,-1,-1,-1,-1
27365010224,-4,-6,-2,-3,-3,-1,-2,-3
27365019110,-1,-2,-6,0,-1,1,-1,1
27365019110,2,1,0,-3,0,0,-1,-1
27365034227,-3,-8,-7,-5,-2,0,1,-3
27365034227,-3,6,11,7,1,-1,-1,-1
27365035579,-2,1,9,1,2,1,0,-1
27365035579,-1,3,-7,-3,-4,-1,-2,1
27365056625,1,-4,-9,-6,-4,-3,-4,-1
27365056625,1,0,1,-2,-3,0,1,3
27365058107,3,-3,-3,1,0,-2,-2,4
27365058107,-8,1,2,-1,0,0,0,-9
27365070233,1,2,2,2,0,0,0,-1
27365070233,-3,-5,-8,-4,-1,-1,1,-2
27365079135,3,3,11,2,0,-2,-2,-2
27365079135,-3,-8,-15,-3,-2,-1,-1,0
27365094040,-1,-2,-5,-2,0,0,0,1
27365094040,6,7,8,0,-1,-3,-2,1
27365095609,-5,-7,-12,-5,-3,0,0,-4
27365095609,5,4,12,6,1,-1,-2,0
27365116546,0,4,4,1,0,-1,0,-1
27365116546,1,-2,-3,-1,1,1,-3,2
27365118066,-8,-11,-12,-5,-4,-2,0,-3
27365118066,0,8,4,0,-3,-2,-1,-2
27365130267,1,-3,-5,-2,-2,-1,0,0
27365130267,-5,-5,-2,-1,-1,-1,-3,-1
27365139137,4,3,2,-2,-2,-4,-3,-3
27365139137,-3,-11,-5,-2,2,-1,1,-1
27365154065,0,3,6,2,-1,-1,-2,5
27365154065,-3,-6,-1,-3,-3,0,-2,-7
27365155601,-2,7,-4,-3,-1,1,-1,-3
27365155601,-4,-5,1,2,1,1,2,3
27365176606,-4,-1,-4,0,-1,-2,-2,-2
27365176606,-1,-1,2,-1,0,-3,0,-1
27365178110,2,-3,2,-2,-3,-1,-2,1
27365178110,1,0,-7,-4,-1,-2,2,1
27365199163,-2,-4,2,-4,-2,-1,-1,-3
27365199163,-1,2,9,5,1,-1,0,1
27365200600,0,1,5,2,-1,0,0,-2
27365200600,1,4,5,0,-1,-3,-3,0
27365213962,-1,-2,-3,1,-1,-1,1,0
27365213962,4,-1,-4,-2,0,0,0,-1
27365215551,-2,3,-1,-3,1,1,-1,-1
27365215551,0,-4,-10,-5,-5,0,-1,-2
27365236598,-5,-6,-6,-2,-1,0,-1,-2
27365236598,0,-4,-7,-2,-2,1,-1,0
27365238062,0,6,5,4,0,0,0,0
27365238062,-7,-10,-1,-2,-1,-1,-1,-4
27365259096,1,2,-2,-2,-1,-2,0,5
27365259096,6,3,2,-2,-1,1,0,2
27365260590,-11,-7,-5,-2,1,0,-2,-10
27365260590,3,4,2,1,0,0,0,3
27365274123,-4,-4,-2,1,1,-2,-1,-3
27365274123,-1,7,8,2,1,-2,1,5
27365275577,1,-5,-16,-8,-2,-4,0,-2
27365275577,1,5,8,4,1,-4,-3,0
27365296571,-6,-15,-3,-1,-1,-1,-4,-2
27365296571,-2,9,-2,-1,-2,4,-2,-4
27365298044,-6,-9,1,0,-2,0,-1,-1
27365298044,4,12,2,-2,-1,-1,-1,0
27365319140,-1,2,1,1,2,0,0,-2
27365319140,-2,-7,-5,-4,-1,-4,-1,-3
27365320581,0,3,3,2,-1,-3,-1,5
27365320581,-3,-7,-2,-1,-1,-5,0,1
27365334122,0,4,2,1,-2,-3,-1,-1
27365334122,-4,-9,-9,-5,-4,-6,-4,0
27365335579,-8,5,4,3,1,0,2,-4
27365335579,4,4,4,1,0,0,0,0
27365356578,2,2,-3,-1,-1,-1,0,-3
27365356578,-4,-7,-2,-2,-1,-1,-1,0
27365358072,6,-1,-1,-1,0,-1,-1,3
27365358072,-2,-4,2,0,-3,1,-2,-3
27365378118,0,-1,-1,-1,-2,-2,-1,0
27365378118,-3,-13,-14,-3,-1,0,1,-1
27365386601,4,19,16,2,-1,-1,-4,1
27365386601,-4,0,-8,-6,-1,2,-2,-9
27365393321,1,0,1,1,1,2,3,1
27365393321,1,2,0,1,-1,-1,-2,-7
27365400206,-8,-7,-5,0,-1,0,2,6
27365400206,-2,-3,-6,-1,-2,0,-2,3
27365416632,1,-1,0,-3,-2,-2,-2,-1
27365416632,-2,-7,2,1,-2,-1,-2,-5
27365418099,2,-7,-4,-1,0,-2,-2,-1
27365418099,1,-1,-1,-3,1,-2,-3,-2
27365439232,-4,-5,-6,-2,-1,0,-1,1
27365439232,2,25,10,2,2,1,3,3
27365440546,1,-4,1,2,-1,-1,0,3
27365440546,-4,-2,1,0,-2,-2,2,1
27365453490,-4,-4,0,-2,-2,-1,-2,-5
27365453490,0,-2,-5,-5,0,-1,-2,-1
27365460248,0,-1,-7,-3,-1,-2,-1,-1
27365460248,1,-2,-2,1,0,-3,-1,-2
27365476589,1,-1,-2,-1,-1,-2,0,-2
27365476589,-2,0,0,1,0,-2,-1,1
27365478097,-1,-6,-3,-1,0,-1,-2,-3
27365478097,-3,-3,1,2,0,0,-1,0
27365499160,3,4,1,-1,0,-2,-2,2
27365499160,-11,-7,2,1,-3,-2,-2,-7
27365500570,1,-5,-15,-7,-2,-1,-1,-1
27365500570,0,0,-2,-2,-2,-1,-1,-5
27365513924,3,-3,-2,-2,0,-1,0,1
27365513924,3,12,4,-1,-1,-3,1,0
27365520245,8,6,6,2,1,-1,-2,0
27365520245,0,-1,-2,-1,0,-1,0,-4
27365536640,1,-2,-3,1,-1,-1,2,0
27365536640,-10,-4,-1,-1,-1,-2,-1,-4
27365538342,-3,1,-3,-2,-4,-1,0,2
27365538342,-2,1,-4,-2,-1,-1,1,-2
27365558955,0,0,1,2,0,-3,-2,-2
27365558955,3,-3,0,-1,1,-1,0,3
27365560552,-2,0,6,0,0,-1,1,-4
27365560552,0,-3,-3,-2,-1,-1,-3,2
27365573258,-3,-3,-3,-4,-1,-1,0,-1
27365573258,1,-3,-1,-2,-1,-2,0,3
27365580169,-5,-6,-4,0,0,-1,0,-3
27365580169,-1,-1,-1,-1,-1,-1,-3,1
27365596541,-7,-11,-8,-2,-1,-1,-2,0
27365596541,0,7,-1,-1,-2,-1,-2,-2
27365598050,3,6,11,4,2,1,0,-2
27365598050,2,4,2,-2,0,-1,0,1
27365619073,1,2,5,1,-1,0,-1,0
27365619073,-2,-10,-2,-1,2,0,0,-1
27365620578,-2,-7,-6,-2,-3,-2,0,-3
27365620578,-4,-3,-1,-1,-2,0,-1,2
27365633483,-2,3,-1,-2,-1,1,-2,-5
27365633483,2,-2,-3,-1,-3,-1,0,-1
27365640229,1,-3,-7,-4,-5,-2,-4,1
27365640229,-4,0,-4,-3,-3,-1,-1,-4
27365663998,-2,1,4,1,0,-2,-3,-1
27365663998,4,-1,-2,2,2,2,1,5
27365665526,-3,3,1,-1,0,1,-1,-7
27365665526,1,-4,-1,0,-2,-1,-3,-2
27365679004,-1,0,-2,-4,-2,-1,-2,-2
27365679004,-1,-1,-3,-2,-1,1,-1,0
27365680555,-1,2,-1,-1,-1,-2,-2,0
27365680555,-3,-7,-6,-1,-3,-2,-2,0
27365692720,-3,-7,-3,-1,-2,-3,-2,-2
27365692720,0,5,-1,1,0,0,-2,-2
27365701600,-1,-1,-1,-2,-1,-2,-1,1
27365701600,0,4,-1,0,0,0,1,-2
27365716576,4,3,2,2,0,-1,-2,1
27365716576,-1,-4,1,-1,-1,-2,-1,-1
27365718085,-4,-3,-3,-1,-2,-1,-1,-1
27365718085,0,-1,3,0,2,0,1,1
27365739164,0,-2,-2,-2,-2,0,0,-2
27365739164,-2,0,-4,-3,0,-1,-2,-1
27365740530,-1,-8,-4,1,1,-1,0,-1
27365740530,3,1,2,0,0,0,0,3
27365761563,-5,3,7,-1,0,1,3,-2
27365761563,-2,-3,-6,-3,-3,-1,0,-5
27365763076,-2,-2,-1,-2,-4,-2,-1,1
27365763076,0,-2,-2,-1,-3,-2,-2,-1
27365776487,-4,-4,-4,-2,-3,-1,0,1
27365776487,-3,-4,-4,-2,-2,-1,-4,-5
27365778045,-4,0,-2,-3,-1,1,0,-2
27365778045,5,3,3,2,1,0,0,2
27365806538,-1,2,3,0,-1,-1,-2,0
27365806538,0,-3,0,0,-1,-2,-1,-2
27365808083,0,-7,-1,-2,0,1,-3,-3
27365808083,-3,-6,-1,-2,-1,1,-1,0
27365812683,3,2,-6,-2,-2,-2,-2,-1
27365812683,0,-1,-1,0,-3,-2,-1,0
27365821612,-1,4,1,-1,-1,-1,-1,-1
27365821612,-3,0,-3,0,0,1,2,1
27365836577,-3,-9,-4,-1,0,-1,0,-4
27365836577,-4,7,2,-4,-2,0,-2,-2
27365838078,3,5,2,0,-1,-1,0,0
27365838078,-2,-4,0,0,-1,-1,-2,-1
27365859078,-1,1,-4,1,-1,-3,0,-2
27365859078,-3,-6,-3,-2,-2,-1,0,0
27365860550,0,2,3,1,-4,-1,-1,-1
27365860550,-1,-1,-4,-1,-2,-2,-3,-1
27365872761,-5,2,1,-2,-1,0,1,-2
27365872761,-4,-3,1,-1,0,-1,-1,-1
27365881625,1,-3,-4,-4,0,-2,0,0
27365881625,-4,-1,-3,-3,-1,-2,-1,-2
27365895837,3,0,1,0,-1,0,-3,0
27365895837,-1,-5,-2,2,0,0,-2,-2
27365896542,-3,1,8,1,-1,-1,-1,-1
27365896542,0,5,3,0,1,-1,1,0
27365918418,-4,-1,-6,-3,0,0,-2,-5
27365918418,2,3,-1,0,-1,-1,-1,3
27365919099,1,-4,-5,1,0,-1,0,-7
27365919099,1,0,3,0,-2,-1,-1,-2
27365940751,3,2,2,0,-4,-2,-1,1
27365940751,1,-5,-3,-2,-1,-2,0,-1
27365941529,-5,-1,-3,0,0,-2,-3,0
27365941529,-3,2,0,-3,-2,0,2,-10
27365955747,2,5,1,0,0,3,3,7
27365955747,-5,-6,-4,-2,-2,0,-1,0
27365956558,0,-3,0,1,-1,-4,-3,0
27365956558,3,-5,3,2,-1,0,1,1
27365978313,-5,0,-4,-4,-1,-3,-4,-10
27365978313,-5,-1,-3,-2,-3,-2,-1,-6
27365979116,6,3,1,-2,-1,-1,0,1
27365979116,-9,-13,-8,-5,-2,-2,0,0
27366000777,0,1,2,0,-1,-2,-1,1
27366000777,2,-1,-3,-2,-1,-1,1,2
27366001598,-3,0,-1,0,0,-2,0,0
27366001598,3,-2,-4,-1,0,0,-4,-8
27366015783,-7,-9,-5,-1,1,-1,-2,-3
27366015783,0,7,4,-1,0,-1,0,0
27366016572,7,5,6,3,0,1,2,3
27366016572,-2,-5,-9,-2,-1,-3,-1,1
27366038409,0,-1,3,1,-2,-3,-3,-10
27366038409,0,-4,-2,-1,1,0,-1,8
27366039090,-4,-2,-6,-4,-3,-3,-3,-1
27366039090,1,0,2,-1,-1,-1,-1,0
27366069001,3,5,-1,-2,-1,-2,2,0
27366069001,-1,2,2,3,1,-1,-1,-2
27366069744,-3,-3,-3,-1,-1,1,0,-2
27366069744,0,2,0,-1,-1,-2,-3,-1
27366075912,0,-3,-7,-3,-1,-2,-2,2
27366075912,-11,-3,1,-1,1,-2,-2,-6
27366076553,2,-2,-5,-3,-2,-1,-3,-3
27366076553,-3,-1,-1,0,0,-1,0,-1
27366098431,-1,0,1,0,-1,1,-1,-5
27366098431,4,1,-1,-2,-2,-2,0,4
27366099046,-3,-2,0,-2,0,-2,-1,0
27366099046,-7,-5,-3,-2,-3,-1,-2,-1
27366121595,-2,4,10,2,2,0,-2,-5
27366121595,1,-2,-2,-1,-3,0,0,8
27366122242,0,0,-1,1,1,1,-2,-2
27366122242,4,5,0,-1,-2,-2,-1,3
27366135871,-4,-2,-3,-2,-1,1,2,-5
27366135871,0,1,-3,-1,-1,-2,-3,-8
27366136577,-3,1,-1,-1,-1,0,-1,1
27366136577,-3,-7,-8,-4,-1,0,-2,1
27366158504,4,7,10,2,-1,-2,-3,3
27366158504,-2,-2,-5,-4,-2,-1,2,1
27366159053,-5,-5,-2,-2,-1,-1,-1,2
27366159053,5,4,2,0,1,-1,-2,-2
27366188958,2,-6,-6,-2,0,0,-1,3
27366188958,1,2,1,1,0,0,1,-1
27366189726,0,-1,-1,-1,-3,-3,-1,-5
27366189726,-4,-3,-1,-1,-2,-2,-3,-2
27366195732,0,-1,3,0,0,0,0,-3
27366196512,-8,-5,-4,0,1,2,3,-1
27366196512,-1,5,10,1,-1,-3,0,1
27366218210,-11,-8,-2,-2,1,1,0,-8
27366218210,-3,-3,-5,-3,-2,-2,0,-5
27366219089,-2,-8,-2,-2,-1,0,-1,-1
27366219089,1,3,-2,-1,1,0,-1,3
27366241581,1,2,-4,-1,-3,-3,-3,2
27366241581,2,0,1,1,0,-1,1,-3
27366242241,-2,-3,-3,-1,0,-1,-1,-2
27366242241,3,11,5,2,0,0,1,1
27366255911,4,1,2,-2,-3,1,2,7
27366255911,-6,-1,-6,-3,-2,-2,-3,-2
27366256563,8,3,2,-1,-2,-1,-3,-6
27366256563,-2,-5,-6,-1,-1,-1,-1,5
27366278397,-1,0,-1,-1,0,-1,1,0
27366278397,-3,-5,-1,1,-1,0,0,2
27366279074,1,2,-3,-3,0,-2,-4,0
27366279074,-2,-2,0,-2,-3,0,0,-4
27366301456,-1,0,-1,-1,-1,-2,-3,2
27366301456,3,-5,-2,-1,-1,-1,-1,0
27366302224,1,9,3,0,0,0,0,2
27366302224,3,8,7,1,1,0,1,-3
27366315905,-1,-6,-2,-3,-3,-1,1,3
27366315905,1,2,-3,-2,-2,-1,-4,-1
27366316546,-6,-4,-2,-2,-1,-2,0,-6
27366316546,0,-6,-5,-2,-2,-1,-2,0
27366338323,1,-4,-4,-2,0,-1,-1,1
27366338323,-2,2,1,-1,-2,-2,-2,-3
27366339041,-4,-3,-2,-1,-2,0,-1,1
27366339041,-6,-3,-5,0,-1,1,-3,-12
27366361478,-1,-2,-1,1,-2,-2,2,6
27366361478,3,9,4,0,2,-1,-2,-1
27366362231,-3,-9,-13,-4,-2,-3,1,10
27366362231,-6,-7,5,-1,0,-2,0,-10
27366375849,0,1,-1,-1,-1,-1,-1,0
27366375849,1,-2,3,1,-1,-3,-1,-6
27366376517,3,3,3,0,-1,-2,-1,5
27366376517,-1,0,-6,-1,-2,-1,-1,1
27366398318,-2,-4,-7,-2,0,-2,-2,-2
27366398318,0,5,0,-2,-1,1,3,6
27366399058,6,3,9,4,1,0,-3,-6
27366399058,2,-1,-4,-1,-2,0,0,5
27366421645,-12,-5,-6,-4,0,1,-2,-5
27366421645,-4,-5,-5,-5,-4,-2,0,-2
27366422210,-1,-1,-3,-2,-1,-2,-2,0
27366422210,-2,-2,1,0,-2,-2,-1,-1
27366435922,0,-3,-3,0,-1,0,-1,0
27366435922,2,0,0,1,0,0,-3,-9
27366436573,-1,6,3,0,-2,-2,2,2
27366436573,-5,-8,-2,0,2,0,-3,0
27366458411,3,2,3,1,1,0,1,-1
27366458411,-2,-6,-2,-1,0,-1,0,-2
27366459041,-3,-4,-2,-1,-2,-1,0,-4
27366459041,0,0,-4,-3,-2,0,-2,-2
27366481559,0,-2,1,-1,-2,1,-1,1
27366481559,-1,-3,0,-1,0,-1,-1,0
27366482241,-2,-1,-3,-1,-1,0,-3,-3
27366482241,-3,-5,-5,-3,-2,0,3,-4
27366495839,5,2,6,4,0,0,-3,6
27366495839,-3,1,-2,-2,0,0,1,-1
27366496515,-7,-2,-2,-2,-2,-3,-2,-3
27366496515,2,-2,1,1,-4,-3,-2,3
27366518500,1,-2,-2,-2,-3,-2,0,-1
27366518500,-3,0,1,0,-1,0,-2,-2
27366519078,2,-3,-3,-3,-1,0,0,1
27366519078,-2,-1,-1,0,0,-2,-2,1
27366548918,0,-3,-3,-2,-1,-3,-1,-4
27366548918,0,6,3,1,1,-2,-5,2
27366549730,-5,-9,-4,0,-2,4,2,-1
27366549730,-10,-4,-6,-3,-2,-1,2,9
27366555732,-6,3,2,-1,-2,-2,-3,-7
27366555732,0,-2,-1,-2,-4,-2,-1,-1
27366556536,1,1,1,2,0,0,-1,1
27366556536,2,2,1,0,0,-4,-1,-3
27366578363,1,-4,-4,0,0,-1,-1,3
27366578363,-5,-10,-8,-4,0,-1,-1,-1
27366579008,1,9,4,-2,0,-2,-2,-1
27366579008,-3,-2,-1,-1,1,-2,-2,-5
27366601560,4,2,-1,0,-2,-1,0,-2
27366601560,-1,-1,5,1,-1,-2,0,-2
27366602265,-3,-6,-4,-1,-2,-2,-1,-2
27366602265,2,3,0,-2,-1,0,0,0
27366615847,0,3,1,-2,-2,0,0,2
27366615847,-4,-1,-4,-3,-1,0,1,-8
27366616514,-2,-6,-3,-2,-3,-1,-1,-3
27366616514,9,13,5,2,0,0,1,12
27366638458,1,-6,-1,1,0,-2,-2,-10
27366638458,10,-1,-4,-1,-1,-1,-1,3
27366639002,0,0,1,0,-1,-2,-2,-7
27366639002,2,0,-1,-2,-1,1,-3,-5
27366661507,-2,1,-1,-2,-1,0,-1,2
27366661507,-2,-3,-5,-1,-2,-2,-1,5
27366662265,-3,-7,-3,0,0,0,-2,-4
27366662265,-14,1,2,-1,-2,-2,-2,-8
27366675903,-2,-1,-3,-2,0,-1,0,1
27366675903,-3,1,-1,-1,-2,-3,-2,-1
27366676566,2,3,-3,-2,-2,-2,-1,4
27366676566,-5,-2,6,3,-2,0,1,-5
27366698224,0,-2,-9,-6,-3,0,-1,-8
27366698224,1,-3,0,-1,0,1,-1,3
27366698999,2,-2,-4,-2,-2,-2,-2,1
27366698999,1,-4,-3,0,0,-2,-2,0
27366721564,1,2,0,-1,-2,-3,0,0
27366721564,2,7,2,-1,-3,-2,-1,-1
27366722268,0,0,-1,-1,2,1,0,-3
27366722268,1,0,-1,-1,-1,-3,-3,-4
27366735845,-5,-10,-1,2,2,0,1,4
27366735845,-3,4,-3,0,0,-1,0,-2
27366736543,0,-1,3,0,-1,-2,3,0
27366736543,-1,-8,-8,-3,-2,-1,-1,0
27366758304,2,4,7,0,-3,-5,-3,1
27366758304,-3,-3,2,1,1,-2,-1,0
27366759033,-1,2,-1,1,1,1,0,1
27366759033,0,-1,-1,-1,0,0,1,-1
27366781545,-2,1,-1,-2,-2,-1,-1,1
27366781545,-1,-4,-2,1,-1,0,1,1
27366782212,-9,0,1,-2,-4,-6,-4,3
27366782212,5,-4,-7,-2,-2,0,-2,-18
27366795156,-5,0,7,4,3,0,1,-1
27366795156,0,8,5,-1,-2,1,-1,-3
27366803368,2,-4,-1,-2,-1,-1,-1,9
27366803368,-2,3,-2,-3,-3,-2,-2,3
27366818418,2,0,3,1,-3,-3,-1,-2
27366818418,-2,-5,-13,-6,-1,1,-1,-2
27366819048,-3,-1,4,2,0,-3,0,-7
27366819048,-1,2,4,1,1,1,1,4
27366841658,-3,0,-5,-2,-1,0,1,2
27366841658,0,-3,4,0,-1,-1,-1,-1
27366842297,-1,0,-5,-3,-2,-1,-1,-5
27366842297,-2,-3,-1,0,-1,-3,-2,2
27366855230,1,2,-1,-1,-1,-1,0,-2
27366855230,-3,-5,-4,-1,-2,-1,-3,-3
27366863406,-1,0,-4,-3,0,1,-1,-3
27366863406,3,4,4,0,-2,-1,-3,1
27366878254,3,1,2,1,1,0,-2,1
27366878254,4,-2,-3,-1,-3,-3,-2,2
27366879023,-3,-1,3,-2,1,0,0,-4
27366879023,-1,-6,-6,-4,-2,-1,0,4
27366901446,0,2,-1,-2,-2,-1,-1,0
27366901446,2,0,4,3,-1,-1,-1,-2
27366902249,-6,-6,-4,-1,-1,-3,-2,0
27366902249,-3,-4,-3,-4,-1,1,2,1
27366915224,0,-1,-1,-2,-1,1,0,6
27366915224,-2,0,-3,-2,-2,-1,0,-3
27366923441,-1,-2,-7,-4,-2,0,-1,-6
27366923441,6,0,9,7,-1,-3,0,4
27366938399,-9,-8,-8,0,0,0,0,-6
27366938399,-1,1,3,0,1,-2,-2,-10
27366939067,1,5,0,-1,-1,-1,-3,3
27366939067,-4,-7,-7,-3,1,-1,1,9
27366961436,11,6,-2,-6,-3,-3,-1,-2
27366961436,0,1,13,8,-2,-6,-8,-6
27366962217,-11,-2,2,0,-1,1,-2,-6
27366962217,-2,-5,2,1,-1,3,3,6
27366975058,-6,-5,-4,-2,2,6,6,-12
27366975058,2,0,-5,-3,0,-1,-2,6
27366983365,6,-5,-7,-2,-2,-5,0,0
27366983365,-26,-2,2,-2,-3,-5,-5,-19
27366998195,-12,-8,-3,1,-1,-4,-2,15
27366998195,3,0,-4,-3,0,-1,3,1
27366998970,-3,-3,-5,-4,-3,-4,-5,-13
27366998970,2,-3,-4,-2,-1,0,2,3
27367021547,-3,-4,0,-2,-2,-2,-2,-5
27367021547,-6,0,-1,-2,-2,-3,0,-4
27367022248,5,1,0,0,-2,-2,0,12
27367022248,0,-4,-5,-5,-1,-4,-3,-6
27367035176,2,6,3,3,0,1,-1,-4
27367035176,-3,-6,-3,0,-1,0,1,5
27367043409,2,3,1,1,3,1,1,-1
27367043409,8,3,-6,-3,0,-1,-3,0
27367058449,-2,-2,6,0,0,-2,-4,-2
27367058449,-3,-3,-6,-2,-1,1,0,-5
27367059056,4,-3,-5,-1,0,3,5,13
27367059056,-2,7,6,4,0,1,-2,-9
27367081411,3,0,-5,-2,-2,-2,0,4
27367081411,-5,-3,0,-2,-2,2,1,-2
27367082208,2,1,4,0,1,-3,-2,1
27367082208,2,0,0,0,0,-3,-3,1
27367104045,0,-1,-5,-3,-1,-1,-2,-3
27367104045,-3,-1,-1,-3,-2,-3,-1,-9
27367104750,-3,-5,-5,-1,-3,-1,2,3
27367104750,9,3,0,-1,-1,0,1,7
27367118315,-1,1,6,3,2,0,0,-3
27367118315,2,-2,-1,0,1,2,0,-2
27367119026,3,10,10,3,-2,-2,-2,0
27367119026,-2,-2,-5,-3,-1,-1,-1,4
27367141521,-1,-1,-2,-2,-3,-4,-4,-3
27367141521,-1,-1,-2,-3,-1,-1,-1,4
27367142292,0,0,0,-1,0,-1,0,-7
27367142292,-2,-1,-1,-2,-1,-3,-4,-9
