27411680753,-1,0,-1,1,0,-1,0,0
27411680753,-2,-3,0,1,-1,1,-1,2
27411681537,-3,-2,-1,-1,-2,-2,-4,-3
27411681537,1,3,0,-2,0,1,-1,0
27411684162,-2,0,-2,0,1,0,2,-6
27411684162,0,-2,1,-2,-1,-5,-4,-2
27411684821,-1,-2,1,-2,-1,3,8,3
27411684821,-1,-3,0,1,-1,-2,-4,-2
27411686424,-1,-2,0,-3,-1,-1,0,1
27411686424,1,-2,-4,0,0,1,0,-7
27411690730,-2,-2,-1,1,0,-2,-2,11
27411690730,-2,1,-1,0,-3,-2,2,-1
27411698461,1,-1,2,0,-2,-2,-2,1
27411698461,0,1,-3,-1,-4,-2,0,0
27411712043,2,0,-2,-1,-1,-2,-5,-3
27411712043,-3,-5,-1,0,1,2,0,-5
27411723629,0,1,0,-3,0,-3,-2,7
27411723629,-2,-4,-3,0,0,2,1,1
27411735803,4,3,4,0,0,-3,-3,-3
27411735803,2,1,-2,-2,1,1,3,1
27411743605,-2,-4,0,0,1,-1,0,-1
27411743605,1,-3,1,0,0,-1,-2,0
27411756912,-7,-3,-2,-2,0,3,5,-3
27411756912,-6,-1,1,0,0,-3,-2,4
27411797903,-3,-2,-1,0,-3,-4,-4,-3
27411797903,-2,-2,-1,-1,-3,-2,-1,0
27411798581,1,-2,-2,-1,-1,-1,-2,0
27411798581,-2,-6,-3,0,-1,0,2,-1
27411799450,1,5,-1,-3,0,-1,0,-2
27411799450,0,-1,-1,-2,-2,-3,-2,-1
27411802570,-2,1,1,0,0,1,5,-2
27411802570,0,0,0,-1,0,-1,-2,0
27411809336,0,-4,-2,-2,-1,-5,-4,-2
27411809336,-1,0,0,-1,0,0,2,-2
27411817747,0,-1,-1,-2,0,0,-1,0
27411817747,-3,-1,-2,-1,0,2,2,0
27411824314,0,0,-2,-1,-1,-1,-2,-2
27411824314,0,-2,-2,-3,-2,-4,-3,-1
27411839993,2,1,1,0,-3,-4,-2,3
27411839993,1,0,-1,0,0,2,6,1
27411846822,-1,1,0,0,0,0,-2,3
27411846822,-2,0,1,1,2,1,3,-5
27411870404,-2,-2,-3,0,0,1,0,-2
27411870404,-3,-4,-1,-2,-3,-3,-6,-2
27411878292,0,-5,-4,-2,0,1,2,-4
27411878292,-1,3,0,-1,-2,-2,-2,-3
27411884965,-2,0,-1,-1,0,-2,-3,-2
27411884965,3,4,2,0,0,0,-2,0
27411891982,-2,-3,0,0,-1,2,1,0
27411891982,0,1,0,0,-2,0,-2,0
27411908424,0,-2,-1,-1,-1,-1,-1,3
27411908424,-1,-3,-1,-2,0,0,3,-2
27411909806,-1,-3,0,-2,-1,-2,-1,0
27411909806,0,2,-2,0,0,-4,-4,1
27411930943,-1,1,1,-2,1,5,5,-3
27411930943,-1,-1,0,-1,-2,-4,-4,-1
27411932292,0,-1,-2,0,-2,-1,-1,-3
27411932292,-1,-2,-1,0,1,-1,-2,-9
27411944341,0,-3,-4,-2,-2,-4,-3,13
27411944341,0,-1,-1,-1,0,-5,-7,0
27411951880,0,0,2,0,4,10,12,2
27411951880,2,-1,0,-2,-1,0,-1,3
27411967647,-2,-2,-1,-2,-1,-4,0,-8
27411967647,-1,-3,-2,-1,-1,-4,-2,-2
27411968295,0,5,0,0,-3,-4,-4,2
27411968295,-1,-4,-2,-2,-1,-1,-2,0
27411990008,-2,0,2,0,0,0,-2,-4
27411990008,-1,-2,-1,-3,0,2,2,-1
27411990810,-1,-2,-1,-2,-1,-3,-2,-3
27411990810,-2,-2,-1,-1,-3,-1,0,2
27412004313,-2,-2,-2,0,-2,-4,-3,-10
27412004313,1,-1,-3,-2,-4,-1,0,1
27412011886,-1,-2,-5,0,0,-4,-4,0
27412011886,1,0,0,-3,0,-1,0,2
27412027482,2,-4,-2,-2,-1,-1,-3,-3
27412027482,-3,3,0,0,-2,1,2,-3
27412028420,-1,0,-1,-2,-1,-3,-3,-6
27412028420,-2,-2,-2,-1,-1,1,3,0
27412049955,-2,1,0,0,0,1,-2,1
27412049955,-1,0,3,0,-1,-2,-1,-5
27412050737,-3,-5,0,0,1,-1,0,6
27412050737,-3,2,-1,0,-1,-3,-3,-2
27412064328,1,4,1,-1,-1,0,0,0
27412064328,0,0,1,0,-2,-2,-2,-1
27412071929,-4,-2,-1,-2,-1,-1,0,-2
27412071929,-1,-4,-3,-2,-2,1,-2,-4
27412087573,-4,-1,-3,-3,-2,0,1,3
27412087573,-4,-1,-1,-2,-2,-5,-7,-14
27412088249,-4,-2,-1,0,-1,3,4,13
27412088249,0,0,-1,0,0,1,1,1
27412110195,-1,-2,-2,-1,-3,-4,-2,0
27412110195,3,-1,-2,-2,1,-1,-2,-1
27412110798,0,0,0,-3,-2,-4,-5,-6
27412110798,0,-2,0,-1,0,-1,0,-2
27412125041,-3,-3,-3,-3,-2,0,-1,-2
27412125041,-1,1,-1,0,2,1,0,3
27412125749,0,-5,-4,0,-1,-2,-2,-1
27412125749,6,8,3,1,0,-1,-2,1
27412147535,0,1,2,1,-2,-2,-4,-5
27412147535,-3,-4,-1,-4,-1,1,0,1
27412148277,-3,6,2,-1,-2,1,-1,2
27412148277,-5,-5,-3,0,-2,-1,-3,-1
27412170003,0,-1,-1,-2,1,0,-1,1
27412170003,1,1,-2,0,-1,0,1,3
27412170799,0,-3,-3,-2,-2,0,-1,-5
27412170799,-5,-2,-3,-2,-2,-1,0,1
27412184429,-3,1,0,0,-2,-2,0,-3
27412184429,-1,-1,-2,-1,1,-1,1,0
27412191834,2,0,0,-1,-1,-2,-3,-5
27412191834,0,-1,-2,-2,-2,-1,1,0
27412209049,-1,-1,-2,2,-2,-2,0,-1
27412209049,-3,-7,-7,-4,-1,-1,-2,1
27412209827,-2,3,4,1,-1,-1,-1,-4
27412209827,-2,-3,0,-2,0,1,-1,2
27412230013,0,0,-2,-5,-3,-1,-2,0
27412230013,2,6,3,-1,-2,-1,-2,-1
27412230811,-1,-3,-3,-3,-1,0,1,-1
27412230811,0,-2,-1,0,3,0,-1,0
27412244442,-1,-5,-6,-2,-2,1,-1,-1
27412244442,-3,-6,-5,-4,-5,-3,-1,0
27412251956,1,5,5,4,2,1,-2,0
27412251956,-1,0,0,-3,3,0,-2,-2
27412267432,-5,1,2,2,-1,-1,0,-2
27412267432,2,3,11,21,19,9,4,3
27412268216,2,-1,-8,-13,-8,-2,-1,2
27412268216,-4,-1,6,-1,-2,-4,-1,-4
27412290133,3,-2,-8,-16,-10,-4,-2,0
27412290133,-5,-21,-13,-5,-7,-4,-3,-4
27412290764,-2,-5,-8,5,8,3,1,-2
27412290764,2,23,14,-5,-7,-4,-2,0
27412304471,-1,-1,2,6,3,-1,-1,-2
27412304471,0,5,8,-8,-3,-2,-1,-1
27412312018,-4,-24,-15,-9,-7,-5,-2,-1
27412312018,-1,7,-1,2,3,-1,-1,-1
27412327539,-2,6,5,8,4,3,0,0
27412327539,4,9,8,10,10,5,0,-3
27412328270,1,3,2,-7,-5,-3,1,5
27412328270,-1,-9,-8,-5,-5,-1,-2,1
27412350070,-3,-10,-11,-13,-6,-5,-4,-3
27412350070,0,2,3,0,-4,-1,1,-1
27412350736,-4,2,6,4,4,0,-1,-2
27412350736,-2,-3,4,2,-1,1,-1,1
27412364337,0,-3,1,5,6,1,-1,-2
27412364337,-1,6,5,4,5,3,0,1
27412372013,-1,2,-2,-1,-4,-1,-2,-3
27412372013,-3,-6,-2,-1,-4,-3,-3,-1
27412387628,-1,-3,-4,-5,-2,0,-1,-1
27412387628,-2,-5,-8,-8,-5,-4,-1,-1
27412388268,4,11,9,0,-2,-3,-2,-1
27412388268,1,2,-5,2,2,0,-2,-3
27412410077,1,2,5,5,5,3,0,0
27412410077,-4,-4,-5,-8,-7,-3,0,0
27412410796,-2,-5,-2,1,1,0,1,-4
27412410796,-3,-8,-5,-4,-3,-2,0,-3
27412424455,-1,2,2,-3,-2,-3,-2,0
27412424455,-4,-6,-4,0,-2,-2,-2,-2
27412431967,1,10,3,1,-3,-1,-3,-2
27412431967,-3,-3,0,0,0,-1,1,-2
27412447532,-4,-1,3,3,3,2,1,-1
27412447532,3,1,-3,-7,-6,-6,-3,0
27412448278,-3,-9,-11,2,6,2,-1,0
27412448278,1,-4,-9,-6,-5,-2,-1,0
27412469981,-1,-1,2,4,2,1,1,0
27412469981,-5,-12,-4,-2,-4,-1,-1,1
27412470731,3,20,22,11,5,1,-1,0
27412470731,-3,4,-6,-6,-3,0,0,-1
27412484358,1,-7,-11,-11,-5,-4,-1,-3
27412484358,-1,3,6,-5,-12,-7,-5,-2
27412491821,-3,-13,-14,1,2,4,2,3
27412491821,-2,-2,-1,-2,2,0,-2,-3
27412507567,-3,-6,-10,-12,-8,-3,0,-3
27412507567,2,6,7,21,14,7,2,-1
27412508271,-1,0,11,6,1,-3,-3,-1
27412508271,0,3,6,-1,-4,-2,0,1
27412529971,1,-3,-3,-9,-6,-3,-1,1
27412529971,-1,-5,-6,-10,-6,-3,-3,-2
27412530733,-3,-4,-5,-2,0,0,1,-1
27412530733,0,1,4,12,4,4,0,-1
27412544304,-5,-3,9,6,1,0,1,3
27412544304,-3,-9,-28,-12,-5,-1,-3,0
27412551910,4,14,13,7,1,-1,1,2
27412551910,2,-4,-8,-7,-3,-4,-3,-6
27412575716,-2,3,3,1,-4,-2,-2,4
27412575716,-4,-3,-3,-8,-7,-4,0,0
27412576505,-1,-12,-14,-3,6,3,0,1
27412576505,1,-4,-5,-3,-1,0,0,-1
27412590124,3,-8,6,18,15,8,4,0
27412590124,2,39,22,2,-1,-4,-3,-4
27412590765,-5,-6,13,2,-6,-4,-1,-4
27412590765,-1,-4,-5,-6,-6,-4,-2,0
27412604418,-1,0,-1,-1,-1,0,-3,-3
27412604418,-5,-14,-22,-14,-8,-3,-1,-1
27412611846,-1,-1,1,0,1,-3,-3,-4
27412611846,1,1,2,6,4,2,2,2
27412627595,-7,-3,-7,-4,0,-1,-1,-4
27412627595,0,0,2,-4,-2,-2,-1,-1
27412628293,-2,-6,-14,-11,-6,-1,-2,-2
27412628293,3,0,14,11,2,1,0,3
27412650096,1,5,0,-7,-9,-6,-4,-2
27412650096,-3,-6,-5,3,3,1,-2,-3
27412650760,-4,4,12,-3,-5,0,-1,-3
27412650760,0,-9,-9,-1,1,1,1,1
27412672534,4,11,-11,-9,-9,-5,-2,0
27412672534,2,-20,-3,6,8,6,2,1
27412673301,-7,12,1,4,0,0,-3,-3
27412673301,-3,1,2,-1,-2,-3,-4,-3
27412688976,-1,-1,1,-1,-4,-4,-2,-2
27412688976,-2,-5,-8,-8,-9,-4,-4,-5
27412689833,2,-5,-7,-4,-3,-1,3,1
27412689833,-3,-1,-4,0,3,0,0,-1
27412709937,1,5,1,0,2,0,-1,-1
27412709937,1,2,6,7,7,3,1,2
27412710704,-1,-4,6,10,5,1,-2,-1
27412710704,0,3,2,-3,-1,-1,-3,2
27412732451,1,-8,-1,0,-2,0,3,2
27412732451,-3,10,6,-9,-6,-2,-2,-3
27412733202,-2,-8,-10,-11,-9,-7,-3,-1
27412733202,-4,-2,-11,-10,-10,-5,-4,-5
27412747492,-3,1,2,-1,0,1,0,0
27412747492,4,5,15,19,10,4,0,4
27412748267,2,-3,-17,-5,2,3,0,-2
27412748267,-2,4,11,15,8,1,1,0
27412770043,0,-5,4,-7,-4,-2,-1,-2
27412770043,-1,0,-10,-7,-5,-3,1,0
27412770749,-2,-8,-12,-15,-8,-3,-4,-1
27412770749,-2,-7,15,9,2,1,1,0
27412792649,-2,10,-3,2,0,-1,0,0
27412792649,6,7,9,3,3,0,-1,1
27412793299,2,-2,-8,-5,-3,2,2,2
27412793299,-3,-2,-14,-22,-15,-7,-5,-2
27412815680,3,3,4,11,3,0,-1,1
27412815680,-1,-8,4,8,1,0,0,0
27412816465,0,5,-6,3,6,2,0,0
27412816465,-5,2,5,5,1,-1,-2,-2
27412838296,-7,-20,-26,-16,-9,-6,-2,-4
27412838296,1,9,11,4,-1,-2,-1,1
27412838994,2,-2,1,-1,0,0,0,2
27412838994,0,0,-2,-3,-4,-2,2,-4
27412852476,0,3,1,0,1,-4,-5,-3
27412852476,-3,-6,-12,-4,1,1,0,-1
27412853267,-3,0,6,-3,-7,-4,-3,-2
27412853267,3,1,-4,-1,2,2,1,1
27412875769,1,1,8,6,5,3,1,1
27412875769,-4,-5,-4,1,0,1,0,-1
27412876443,-3,-4,-3,1,-1,-3,0,-2
27412876443,0,-9,-5,-12,-7,-2,-1,0
27412889453,7,24,16,12,9,2,-1,1
27412889453,0,-2,-1,-4,-3,-1,-1,-1
27412897512,-1,0,3,-2,-3,-3,-3,-3
27412897512,-6,-12,-12,2,3,1,-2,-2
27412912602,-3,-18,-8,-7,-6,-2,-1,-7
27412912602,6,25,6,-4,-4,-5,1,5
27412913269,-2,-1,3,-1,-4,-1,-1,4
27412913269,-3,-8,-8,-2,1,-1,-2,0
27412935737,2,11,11,7,2,1,1,0
27412935737,-6,-12,-5,0,-2,-1,-1,-6
27412936416,-1,0,-4,-5,-5,-4,-3,-3
27412936416,1,3,-4,4,5,0,0,1
27412949422,-5,-3,-2,-3,-5,-3,-2,-2
27412949422,-3,-10,-5,-3,2,0,0,1
27412965089,5,6,0,-4,-2,0,2,2
27412965089,-4,-11,-7,0,1,1,1,-2
27412972741,0,9,9,6,0,-1,-1,0
27412972741,2,6,5,2,2,2,-2,-1
27412973235,-2,-6,0,-5,-3,-3,-1,-1
27412973235,1,3,-2,4,2,2,0,-2
27412995661,-2,-10,-8,-16,-10,-3,-2,-1
27412995661,-3,-9,-8,-5,-9,-6,-1,-1
27412996433,-2,-3,4,9,10,4,1,0
27412996433,6,19,16,12,11,6,4,2
27413009313,2,1,11,2,2,-1,-1,4
27413009313,-4,-5,-21,-16,-8,-4,-3,-8
27413017492,-4,-4,-1,-5,-8,-7,-3,-3
27413017492,-4,-5,-11,-4,-6,-3,-1,-1
27413032450,3,1,-2,6,6,2,0,1
27413032450,4,1,7,1,3,0,1,2
27413033247,-4,-5,-6,-5,-5,-5,-3,-5
27413033247,-5,-3,4,-5,-3,-1,-1,0
27413055611,-4,0,-5,-5,-5,-3,-1,-2
27413055611,-3,-6,-1,7,3,-1,-2,-2
27413056431,-2,-9,8,13,10,4,1,1
27413056431,5,11,4,-6,-3,-3,-1,-1
27413069446,2,18,15,-4,-2,-2,-1,-2
27413069446,-3,3,-7,-4,-3,-1,-1,0
27413077728,-1,-10,-6,-4,-4,-2,-2,-5
27413077728,-2,-6,-4,-1,-1,-1,-2,-2
27413092572,-2,-13,-12,5,3,0,0,0
27413092572,0,-1,3,-10,-7,-3,0,-5
27413093249,1,7,0,5,5,2,0,2
27413093249,-1,-5,-5,-6,-5,-5,-3,-3
27413115695,-1,0,-1,0,-2,1,-2,-1
27413115695,-3,-1,6,7,1,-3,-3,-2
27413116462,-1,-1,-4,-1,-1,0,-3,-2
27413116462,-1,-5,-12,-6,-4,-2,0,-2
27413129384,-3,-11,-2,-6,-4,-1,-2,-4
27413129384,0,7,-1,3,-1,1,0,-1
27413137595,4,5,2,-2,-5,-4,-2,-1
27413137595,1,5,2,-2,0,-1,-1,-1
27413152602,1,1,-5,1,1,0,0,1
27413152602,-3,-8,0,6,5,4,1,-1
27413153291,1,1,-3,-5,-4,-4,-2,1
27413153291,-2,-5,-2,-5,-6,-2,-3,0
27413175758,-3,-3,-6,-7,-3,-1,1,0
27413175758,2,1,-2,6,3,1,-1,0
27413176511,0,0,-5,0,0,1,0,-1
27413176511,-4,-7,8,2,-1,-1,2,-3
27413198197,-1,2,-6,-9,-6,-3,-2,0
27413198197,5,3,-1,-2,0,0,1,1
27413198969,-4,2,2,9,6,3,2,-3
27413198969,-1,-3,-2,-5,-3,-3,-3,-3
27413212582,-2,-6,-6,-1,-1,0,0,-2
27413212582,-5,-9,-10,-7,-1,0,0,0
27413213253,3,3,14,2,0,1,-1,2
27413213253,2,7,2,5,1,1,0,2
27413243145,-2,1,5,5,6,0,1,-2
27413243145,1,-7,-9,-3,-5,-5,-4,-1
27413243908,-3,-10,-8,-12,-6,-4,-1,-3
27413243908,3,9,6,4,5,4,2,3
27413258254,-1,-1,-1,4,2,1,0,0
27413258254,-2,-3,3,0,0,-1,-2,0
27413258908,-4,-1,-7,-9,-5,-4,-3,-1
27413258908,1,5,-2,-5,-6,-5,-3,-1
27413272595,0,-11,-7,7,9,4,1,0
27413272595,0,9,11,7,6,2,-1,0
27413273241,0,-2,4,1,-2,0,-1,-6
27413273241,-4,-5,0,-2,-5,-5,-1,5
27413295867,0,-2,-2,1,-1,-2,-2,-2
27413295867,-1,-1,-1,1,0,-1,2,0
27413296478,0,-11,-13,-4,-4,-3,-2,2
27413296478,-2,13,0,1,3,4,1,-4
27413318254,0,-4,-10,-9,-6,-2,-3,-1
27413318254,0,2,11,0,-2,-2,-2,1
27413318947,-2,0,1,4,2,0,-1,-2
27413318947,-2,-3,-1,-4,-5,-4,-1,-1
27413340782,4,6,2,2,0,-3,-2,0
27413340782,-3,-2,-3,-4,2,1,0,0
27413341464,1,0,4,-1,0,-2,-2,1
27413341464,-1,-4,-16,-10,-7,-3,-2,-2
27413355714,-3,-5,-5,3,1,0,-1,-1
27413355714,1,3,9,9,3,0,0,-1
27413356443,1,8,4,4,4,2,1,0
27413356443,-5,-5,2,0,2,0,-3,-1
27413378244,0,-7,-2,-7,-6,-2,-1,1
27413378244,0,6,-10,-12,-9,-4,-1,-2
27413378923,-7,-16,-10,-3,-1,-1,1,1
27413378923,2,9,11,3,2,0,0,-5
27413392580,-3,1,-1,-3,-2,0,-1,1
27413392580,-1,-7,-3,-1,-3,-2,-1,0
27413393241,0,3,-3,-1,-3,-2,1,-1
27413393241,1,-7,-2,5,1,2,-2,0
27413415860,-2,0,4,-1,-2,0,0,-1
27413415860,-1,-3,-7,-5,-3,-1,-2,-1
27413416475,0,2,-1,-9,-1,0,-1,-1
27413416475,-1,1,8,9,-1,-2,-2,0
27413438244,-1,3,9,16,13,6,1,-1
27413438244,-1,-12,-11,-6,-2,-1,-2,-1
27413438949,-1,14,1,-2,-2,-2,0,-1
27413438949,-2,-8,-9,-7,-5,-2,-1,-3
27413452465,0,9,1,-7,-6,-4,-1,-1
27413452465,-1,0,4,7,4,2,0,0
27413453295,1,3,2,-2,-1,-2,0,-2
27413453295,-3,-8,-2,-1,1,-3,-3,-1
27413475791,1,-1,-2,-4,-5,-4,-3,0
27413475791,-5,-7,-13,-8,-5,-4,-3,-5
27413476433,0,3,9,3,-1,0,0,-3
27413476433,-1,6,6,2,0,-1,1,0
27413498215,-2,-8,-9,-7,-5,-4,-2,0
27413498215,1,1,1,-4,-2,0,-1,3
27413498930,-2,-7,-3,6,4,2,-1,-4
27413498930,2,5,3,0,-1,-1,-1,-2
27413512501,-2,-2,-1,-7,-6,-4,0,-2
27413512501,-2,-2,-3,-2,-3,-2,0,-4
27413513276,1,-2,-2,2,5,4,4,2
27413513276,0,-9,-4,4,4,1,0,0
27413535624,-1,2,-6,-6,-2,1,-2,-1
27413535624,0,-1,-2,-8,-9,-7,-4,0
27413537222,-2,9,8,7,1,-1,1,1
27413537222,-2,-9,-4,-4,-4,-3,-2,-2
27413558133,-2,5,7,2,0,-1,0,-4
27413558133,-2,-4,-3,-1,-1,-1,-2,1
27413559825,-3,-10,-4,-7,-5,-2,-2,-3
27413559825,1,12,5,3,2,1,0,-1
27413571823,-2,-7,-3,-2,-1,-1,0,-1
27413571823,1,5,8,-2,1,0,-1,0
27413580786,2,6,-3,-4,-3,-3,-2,-1
27413580786,-1,-5,-6,-3,0,-1,0,-3
27413595750,-2,-6,-9,-3,-1,-1,-1,0
27413595750,1,0,5,6,0,-2,-2,-1
27413597251,-3,-3,-1,-5,-1,-1,-1,-1
27413597251,-1,-3,-5,-1,-1,0,0,-1
27413618313,1,3,10,3,1,0,-1,-4
27413618313,-1,-7,-11,-6,-1,-1,3,8
27413619786,-3,0,-6,-4,-6,-5,-1,-1
27413619786,-1,-2,1,-2,1,0,-1,-2
27413631796,0,-3,-4,2,-1,-1,-3,2
27413631796,-4,0,-5,1,-1,-1,-3,-9
27413640821,3,0,-3,2,2,1,0,1
27413640821,-3,-11,-6,-8,-4,0,0,2
27413655652,-1,0,-1,-1,-4,-2,-1,-3
27413655652,0,6,0,-12,-6,-2,0,0
27413657253,-3,-9,-1,10,0,-1,-2,1
27413657253,3,10,6,7,8,1,-1,-1
27413678258,-5,-8,-9,-6,-5,-1,-2,-2
27413678258,-1,-2,7,7,3,2,0,0
27413679804,-1,-12,-13,-9,-8,-5,-3,-1
27413679804,0,11,0,-2,-1,-1,-1,1
27413691772,3,0,-7,2,4,1,1,1
27413691772,-1,4,20,13,7,3,2,1
27413700827,-1,1,0,-2,-2,-1,-4,-2
27413700827,-2,-8,-9,0,-2,0,0,-1
27413715645,0,-5,-7,-9,-5,-2,-1,1
27413715645,-1,0,-5,-4,-6,-2,-3,-6
27413717253,0,6,-2,2,2,0,-3,-1
27413717253,2,-1,7,2,-2,-1,0,3
27413737341,-8,-4,-7,-7,-2,-2,-1,-4
27413737341,-1,-3,-6,-3,-2,-2,-1,-2
27413745755,0,0,6,2,3,1,0,1
27413745755,-6,-5,-8,-7,-4,-1,-1,-3
27413751970,0,0,4,1,-1,-2,-1,0
27413751970,-1,-6,-9,-6,-6,-5,-1,-2
27413760788,1,-2,12,13,6,4,1,0
27413760788,1,20,17,4,4,-1,-2,0
27413775668,0,0,1,2,0,-1,-1,-8
27413775668,1,-3,-5,-3,0,0,-1,8
27413777248,-2,-4,-15,-14,-13,-5,0,-3
27413777248,-1,-9,-2,4,5,5,1,1
27413798931,-3,-8,-7,-10,-6,-3,-3,-1
27413798931,0,11,6,5,0,0,-3,-5
27413800251,0,6,8,5,6,5,3,0
27413800251,-1,-9,-3,-2,-3,-4,-1,0
27413811927,0,0,0,-1,2,0,0,1
27413811927,-4,0,-7,-9,-5,-1,-3,-3
27413820788,1,0,5,1,-1,-1,-1,0
27413820788,-3,-3,-8,-8,-4,-4,-3,-3
27413835682,-1,-6,-3,0,-4,-4,-1,0
27413835682,2,0,9,13,12,8,1,1
27413837258,1,4,-3,-3,2,1,0,1
27413837258,-1,-6,-6,-6,-7,-4,-3,-2
27413858132,1,4,10,3,2,0,-1,0
27413858132,-3,-10,-8,-5,-6,-5,-3,-1
27413859771,-2,7,4,-4,-4,-4,-3,-1
27413859771,-1,-13,-14,-4,-4,0,-1,-5
27413872317,1,6,6,4,2,1,0,2
27413872317,-5,-3,-3,-5,-4,-5,1,-1
27413880815,0,-15,-9,-4,0,1,-1,-6
27413880815,1,8,6,6,4,3,1,11
27413895775,2,14,9,3,1,0,1,-1
27413895775,-2,-8,4,-3,-1,-4,-2,-4
27413897256,-5,-3,-4,-5,-9,-6,-4,-2
27413897256,7,6,5,5,4,2,2,2
27413918216,0,-3,-4,5,3,0,-1,-1
27413918216,0,3,0,-3,0,-1,0,1
27413919734,-4,-11,-11,-14,-10,-6,-3,-3
27413919734,-3,3,-2,-6,-4,-2,-3,-7
27413931975,-2,-3,-1,2,5,2,0,2
27413931975,0,-5,-16,-10,-4,-2,-1,-4
27413940762,2,10,24,20,9,3,0,1
27413940762,0,4,3,-2,-3,0,0,-3
27413956330,-2,-10,-3,7,4,3,1,-2
27413956330,0,-2,-25,-23,-2,-2,-1,-2
27413963347,-3,3,21,26,6,0,-1,0
27413963347,1,-9,-18,-22,-13,-5,-1,1
27413978309,1,17,33,5,0,1,0,-1
27413978309,1,2,-8,-7,-4,-3,-2,-4
27413979771,-5,-9,-29,-30,-21,-12,-5,-2
27413979771,-2,-3,10,18,9,2,-2,-4
27413991834,-1,-2,-6,10,13,8,1,-2
27413991834,4,1,5,7,2,1,2,3
27414000785,-2,-1,-1,-7,-4,-2,-1,0
27414000785,0,-2,-1,-2,-2,-4,-2,-3
27414015783,-4,-2,-17,-15,-5,-1,1,-1
27414015783,-1,8,21,19,4,-1,-4,-2
27414017266,1,8,26,6,2,3,3,-1
27414017266,-4,-5,-1,2,1,-2,0,-1
27414038186,-2,-9,-21,-7,-7,-6,-3,0
27414038186,-1,-2,6,0,2,6,2,-3
27414039755,1,4,-11,-2,2,0,-3,0
27414039755,2,4,10,8,2,1,-1,0
27414060634,-6,-14,-34,-10,-4,-2,-3,-10
27414060634,4,12,43,4,-3,0,4,17
27414062227,-12,-15,-32,-32,-19,-14,-7,-7
27414062227,-2,-2,-2,-3,-10,-5,0,-3
27414075102,-3,-3,3,13,7,0,-4,-2
27414075102,0,-4,-15,12,12,4,1,-1
27414081866,-7,-15,-19,-18,-7,-3,-4,-5
27414081866,-4,-1,11,-22,-18,-9,0,1
27414098116,17,31,37,19,5,4,3,5
27414098116,3,0,1,19,14,3,-5,-2
27414099710,1,-8,-28,-8,5,8,11,8
27414099710,-14,-32,-47,-30,-12,-7,-5,-8
27414120694,5,12,19,-18,-23,-13,-3,-6
27414120694,-3,0,16,25,12,6,3,7
27414128248,2,12,11,25,11,-1,-4,-8
27414128248,-4,4,25,-1,8,7,2,1
27414135114,-2,-17,-27,-8,2,5,14,19
27414135114,-11,-2,-28,-45,-28,-16,-9,-10
27414141838,8,-1,40,21,11,6,5,4
27414141838,-9,14,36,34,10,-4,-10,-7
27414158188,-4,-17,-25,-3,2,3,-3,-7
27414158188,6,4,12,-3,0,4,5,3
27414159755,3,8,-9,-19,-11,-7,-7,3
27414159755,-4,12,-10,-4,-6,-6,-7,-12
27414180664,8,0,19,22,13,6,7,10
27414180664,0,-10,-52,-29,-17,-9,-3,-16
27414182232,0,14,14,5,12,9,6,13
27414182232,6,-8,8,29,8,2,-2,3
27414195043,-12,-13,-28,-24,-12,-8,-3,-4
27414195043,-4,2,29,-3,-13,-10,-2,-5
27414201851,16,15,14,37,31,15,6,3
27414201851,-2,-2,-27,-10,0,2,2,0
27414218337,-7,-16,-6,10,12,0,-32,-11
27414218337,8,7,-23,11,9,9,30,14
27414219773,-10,1,-4,-45,-32,-13,-5,-6
27414219773,-2,4,40,14,4,2,3,3
27414240774,12,21,51,25,6,2,1,2
27414240774,-13,-13,-39,-48,-26,-11,-16,-12
27414242260,-6,-25,-48,13,11,3,0,-2
27414242260,7,21,23,0,2,0,2,1
27414255120,-7,-9,-8,-25,-23,-10,3,0
27414255120,-4,-9,1,18,22,13,-1,1
27414261907,8,13,13,22,14,7,4,2
27414261907,-4,-20,-13,-4,5,1,-5,-2
27414278220,3,12,-3,-23,-12,-2,0,0
27414278220,1,0,-4,3,-2,-1,6,4
27414279733,-7,-14,5,-4,-2,-2,-5,-2
27414279733,1,-1,-33,-8,-4,-3,0,-4
27414300794,-5,-5,8,6,4,-1,-2,-9
27414300794,-2,15,29,17,7,6,16,18
27414302258,0,-5,-26,-26,-21,-15,-8,-7
27414302258,-4,-29,-35,-12,-7,-7,-4,1
27414314367,17,34,2,16,5,4,4,3
27414314367,10,17,83,44,6,-7,-16,-10
27414323320,-15,-27,-36,-43,-11,-2,-13,-17
27414323320,1,8,-9,1,-5,6,26,24
27414339600,-15,-18,-21,-4,0,-3,-3,-4
27414339600,4,-19,-17,4,10,10,1,1
27414341211,2,28,43,32,-3,-6,-13,-3
27414341211,6,-11,-25,-34,-13,-10,-7,-8
27414360723,-24,7,44,13,-3,-9,-7,-11
27414360723,-3,-10,-30,-13,-2,-1,-1,2
27414362318,4,-14,-9,5,8,6,5,2
27414362318,0,-7,-23,-12,1,0,-3,-3
27414374392,6,17,55,36,8,-4,-1,1
27414374392,-18,-26,-47,-32,-5,0,-1,-10
27414383292,1,10,26,-1,-9,-6,3,2
27414383292,4,-7,-29,-4,-6,-2,-6,-3
27414398241,5,21,33,17,11,6,4,6
27414398241,-2,-8,-13,8,-4,-16,-24,-9
27414399761,1,-11,-16,3,8,20,22,7
27414399761,-2,8,11,-29,-13,-3,5,3
27414420490,11,2,-16,-17,-9,-1,-1,4
27414420490,-4,3,10,11,11,2,-7,0
27414426787,3,4,14,21,5,2,-4,4
27414426787,-6,-5,10,-4,-7,-2,8,-4
27414434358,2,0,-22,-21,-6,0,3,-3
27414434358,0,9,37,16,-7,-12,-4,-1
27414443226,-1,3,-28,-20,-3,-2,-4,0
27414443226,1,-2,3,30,18,8,-6,-1
27414458252,-3,-9,-21,-15,4,6,3,-3
27414458252,0,8,19,1,-16,-10,-8,-6
27414459740,-7,-15,-19,-2,-2,-2,6,2
27414459740,4,36,67,23,5,-1,-2,0
27414480819,-8,-30,-26,1,1,-2,-2,-1
27414480819,4,10,-5,4,20,17,4,0
27414482254,-2,-4,10,12,7,0,-1,-4
27414482254,-14,-15,-55,-7,6,2,-1,-1
27414494358,14,-2,-6,-15,-3,2,10,10
27414494358,1,21,94,25,-8,-1,-1,-1
27414503278,-7,-13,-29,-4,-4,-6,-8,-5
27414503278,-3,-11,-6,15,11,6,4,-8
27414518164,8,13,6,-8,-3,-2,1,7
27414518164,-19,-55,-121,-47,-24,-11,1,-4
27414519734,10,41,85,20,3,-3,-2,1
27414519734,7,-12,-11,0,0,4,-4,3
27414540638,-16,-23,-16,-15,-11,-8,-7,-11
27414540638,2,8,20,21,16,9,-1,-5
27414542265,-13,5,20,10,4,4,4,-2
27414542265,34,31,-16,-32,-12,-3,-1,9
27414554248,6,-1,1,-10,-11,-3,4,1
27414554248,4,-19,2,17,9,5,-2,8
27414563271,-41,-48,-98,-68,-29,-12,1,-13
27414563271,0,21,69,30,18,7,-4,3
27414578248,1,-19,-36,15,1,-7,-4,1
27414578248,-2,25,42,-14,0,7,-6,-7
27414579759,4,9,-7,-4,-8,1,29,10
27414579759,2,1,10,8,4,0,-2,0
27414600733,0,-8,-13,-9,-6,-7,-9,-5
27414600733,-9,-15,-35,-5,-14,-12,-6,-7
27414602233,-10,-9,-65,-37,-5,-6,-8,-4
27414602233,1,20,40,34,22,14,10,3
27414614437,-16,-37,-41,-26,-17,-7,-9,-12
27414614437,6,44,84,50,43,19,6,4
27414623323,23,10,9,12,5,-1,-6,3
27414623323,-17,-12,-16,-15,-11,-8,-2,-7
27414638278,-6,-16,-21,-6,-2,-1,-6,0
27414638278,3,-5,-4,-7,-12,-10,-7,-3
27414639780,13,10,37,15,-3,-1,-2,-2
27414639780,1,7,2,-22,-14,-7,-3,6
27414660788,-1,8,54,21,9,3,1,3
27414660788,-7,-6,-61,-41,-18,-10,3,-4
27414662220,0,-7,5,27,6,-4,-16,-8
27414662220,-2,15,51,17,14,4,-16,-9
27414674337,-7,-9,-17,7,7,10,13,4
27414674337,3,20,13,-14,-13,-7,-2,1
27414683258,14,-5,5,2,-3,-5,0,5
27414683258,-19,-34,-27,-4,4,-4,-11,-13
27414697917,6,28,4,23,6,4,-1,-2
27414697917,-8,-10,5,-2,-2,1,2,-4
27414721393,-5,2,-1,-6,-8,-4,-9,0
27414721393,-5,-9,-6,-18,-17,-7,0,-1
27414722078,8,16,21,11,4,-1,4,1
27414722078,10,1,-30,-10,-2,3,10,5
27414723712,-5,1,-15,-28,-16,-10,-6,-4
27414723712,-4,-21,-59,-7,-13,-7,2,-3
27414734426,-9,26,26,-10,-2,4,3,-4
27414734426,-3,-33,-57,-28,-8,-4,-2,1
27414743251,20,20,35,59,47,20,8,10
27414743251,-13,-1,3,-16,-2,1,-8,-4
27414765781,9,-16,-24,-9,-9,-1,7,3
27414765781,1,-3,-49,-19,-5,-2,0,-2
27414767255,-19,6,64,35,4,-5,-16,-10
27414767255,9,2,-21,-3,-3,3,11,4
27414780740,-6,-17,-31,-42,-9,-6,-16,-6
27414780740,8,7,36,31,17,18,6,1
27414782277,-15,-50,-90,-53,-20,-9,-2,-1
27414782277,-35,-1,34,12,-3,-6,-7,-14
27414803243,32,30,35,1,-4,-1,-1,13
27414803243,-4,-13,-11,-16,-20,-11,-7,-7
27414804725,-6,11,19,9,21,14,2,-5
27414804725,26,3,-12,10,6,4,9,15
27414818272,-9,-10,-55,0,-10,-17,-7,-8
27414818272,4,44,87,18,10,9,4,5
27414819756,-7,-12,-26,-49,-34,-14,1,-10
27414819756,0,-7,-24,1,4,5,2,1
27414840747,-24,-7,14,26,14,3,-9,-8
27414840747,-2,-13,-31,-9,-13,-14,-2,1
27414842225,-13,-38,-39,-28,-2,2,-6,-5
27414842225,11,28,44,-17,-10,0,-2,-1
27414854392,-12,-20,-21,13,21,8,0,-4
27414854392,3,-2,10,-17,-25,-18,-11,-5
27414863267,11,20,26,44,19,5,-15,-4
27414863267,10,-4,-2,24,9,2,28,15
27414878218,2,-4,-11,-37,-14,-5,-9,-8
27414878218,-26,-22,-8,-8,2,-3,-4,-1
27414879736,15,16,38,-14,-26,-10,10,6
27414879736,2,-32,-67,10,14,13,3,1
27414900749,-4,17,9,-28,-5,0,1,-1
27414900749,7,5,6,42,23,10,6,3
27414902264,6,17,24,28,9,-2,-1,-1
27414902264,-22,-12,-7,-26,-23,-13,-13,-10
27414914372,-10,-35,-55,-33,-10,1,3,-1
27414914372,-2,-11,-11,11,11,-1,-9,-9
27414923282,2,11,10,-5,5,21,20,16
27414923282,11,-7,-15,-19,-22,-20,-14,-3
27414937580,-13,10,33,13,-2,-4,-3,-3
27414937580,13,3,-13,-9,-2,-2,-9,-4
27414944415,-4,5,0,5,-1,0,3,-1
27414944415,-20,-23,-23,-15,-1,0,-5,-3
27414960688,9,-3,5,-20,-22,-8,4,2
27414960688,-17,-7,-7,40,27,2,-14,-13
27414962224,17,0,-22,2,-4,-11,-13,0
27414962224,6,17,45,-13,-13,-3,9,4
27414974389,6,28,17,18,3,-4,-11,1
27414974389,3,17,99,31,3,7,17,10
27414983264,-3,-7,-62,10,10,-8,-24,-9
27414983264,-14,-6,39,22,4,2,-1,-7
27414997546,22,13,7,15,5,9,34,17
27414997546,3,30,5,-6,3,7,12,7
27415004396,-70,-69,-47,-29,-26,-21,-17,-18
27415004396,40,28,6,20,15,8,-1,-5
27415020743,-5,13,-19,0,16,1,-9,-8
27415020743,5,-6,58,26,-4,-2,-1,5
27415022256,8,-11,-45,-47,-15,-4,4,6
27415022256,-15,3,17,7,3,-3,-8,-6
27415043138,-24,-25,-24,7,8,1,-4,-9
27415043138,0,1,-63,-36,-26,-13,-8,-5
27415044771,17,17,54,21,19,6,-5,1
27415044771,-8,-22,-34,-14,-4,0,9,2
27415058703,12,28,92,6,-15,-15,-12,-6
27415058703,-23,-21,-48,-3,-1,-2,1,-1
27415060181,17,32,19,5,24,16,1,5
27415060181,5,-1,-23,-17,-4,7,9,1
27415080710,-11,-18,23,0,-6,-4,14,3
27415080710,7,-21,-50,-24,-3,-4,-4,1
27415082262,-14,-10,-24,-16,-13,4,4,-11
27415082262,21,46,69,27,8,-5,-11,6
27415103217,-29,-43,-37,7,5,3,-12,-14
27415103217,29,38,33,-8,-8,10,20,14
27415104711,11,4,38,20,-2,-8,6,5
27415104711,-7,9,33,8,5,3,-5,-4
27415118240,-5,-13,-22,-10,-12,-8,-10,-3
27415118240,-5,-25,-38,9,8,-4,-5,-3
27415119716,-1,-9,-44,-3,10,10,2,-2
27415119716,1,39,63,-6,-7,-5,-2,1
27415140860,22,15,36,52,33,16,4,5
27415140860,-18,-55,-106,-61,-23,-14,-4,-5
27415142242,-30,-6,29,10,1,1,2,-4
27415142242,2,-6,-13,44,-1,-16,-14,-7
27415163113,15,18,4,-14,-5,6,6,11
27415163113,14,33,19,-26,-18,-13,-10,-11
27415164829,25,16,62,34,11,2,-12,4
27415164829,-16,-78,-114,-29,-2,11,54,13
27415177595,-16,11,34,4,-11,-9,-5,-7
27415177595,-22,-16,-16,-7,0,-9,-14,-11
27415184261,10,7,-7,-3,-11,-10,-2,1
27415184261,-6,5,55,28,5,2,-10,1
27415200686,19,-3,-29,-26,-8,8,10,7
27415200686,12,22,37,13,13,11,15,8
27415202234,-1,39,48,23,4,-2,-2,-2
27415202234,-33,-36,-38,-8,1,-7,-21,-11
27415223093,-30,-36,-62,-38,-20,-20,-13,-16
27415223093,29,52,119,78,34,11,-7,0
27415224693,-1,-53,-62,-21,-18,-8,-1,-1
27415224693,20,32,14,-36,-14,0,12,14
27415237445,-12,5,28,17,-7,-6,-8,-7
27415237445,-7,-34,-22,14,11,-2,-4,0
27415244313,13,37,67,3,10,8,-12,-3
27415244313,-38,-34,-50,-20,-9,-8,14,1
27415260780,18,5,-5,-53,-19,0,-7,-10
27415260780,-19,-13,-25,-5,0,2,9,2
27415262266,18,-7,-14,17,6,2,9,2
27415262266,25,26,-86,-51,-23,-7,-21,-3
27415283217,12,41,55,71,32,7,-3,4
27415283217,-9,-12,-6,-36,-23,-7,-3,-6
27415284740,-24,-52,-69,-30,-12,0,8,1
27415284740,-4,15,49,34,12,-5,-18,-11
27415297547,18,8,-8,-29,-9,5,28,16
27415297547,3,-22,-35,-13,-4,3,3,4
27415304370,-22,17,9,-6,-11,-8,-8,-7
27415304370,20,-10,-39,-22,-5,-2,1,7
27415320723,21,5,-24,9,8,8,1,14
27415320723,-17,-8,76,27,11,-6,-15,-3
27415322202,17,1,-42,-39,-11,0,17,3
27415322202,-5,24,116,40,-8,-7,-16,-34
27415343173,-18,-8,-2,56,46,23,15,0
27415343173,5,-3,-38,-35,-27,-12,-11,12
27415344735,-17,25,39,4,6,-3,-14,-13
27415344735,22,7,-2,-15,-7,-1,3,10
27415357573,-6,-17,-53,-32,-13,-6,-2,-11
27415357573,6,47,86,72,24,4,-2,12
27415364392,-34,-64,-61,-31,-15,-6,1,-14
27415364392,29,24,22,-13,-9,3,5,15
27415380719,14,12,-2,-11,2,-2,-18,2
27415380719,-1,-3,-32,-26,-4,-2,5,-7
27415382239,-5,-13,17,-4,-2,7,12,8
27415382239,-4,-30,-62,-10,1,-2,-15,-11
27415403184,-50,-43,-57,1,12,3,-16,-20
27415403184,36,62,67,31,2,9,14,8
27415404767,12,12,-23,-19,-10,-9,-5,3
27415404767,-27,-30,-43,-52,-12,1,13,4
27415417631,22,30,98,36,8,-1,-5,6
27415417631,-5,-4,-52,-5,3,-3,-11,-13
27415424430,-6,2,36,-3,4,6,3,-7
27415424430,6,-23,-67,-9,7,2,10,30
27415440735,-13,-3,11,-36,-27,-9,2,-16
27415440735,-18,-24,-40,-32,-21,-5,12,-10
27415442231,36,57,127,67,22,5,-7,27
27415442231,-13,-6,-8,-14,-6,-5,-6,-20
27415463243,7,16,3,21,1,-6,3,9
27415463243,-14,-45,-10,-16,0,-1,-3,-15
27415464718,-1,8,10,4,-2,-4,-4,1
27415464718,-25,-22,-95,-56,-14,-7,-8,-19
27415485743,18,17,47,30,-4,-6,4,18
27415485743,-4,-18,-36,-40,-13,6,5,0
27415487230,-13,-5,19,-6,-22,-18,-5,-1
27415487230,12,45,113,65,38,17,0,-8
27415499820,-2,-5,-25,-13,-11,-7,-22,-12
27415499820,-20,-7,-33,-11,-2,-5,-1,-3
27415508261,26,4,23,15,12,8,9,5
27415508261,-30,-66,-28,18,-7,-12,-32,-9
27415523246,19,45,59,34,-9,-32,-36,-8
27415523246,-8,-21,-34,-21,9,35,41,5
27415524735,-9,-7,-22,-25,-6,-1,-5,-10
27415524735,14,19,33,46,16,-2,-9,0
27415536796,-14,-44,-12,-7,2,6,24,35
27415536796,-12,16,31,-9,-3,-12,-43,-43
27415545733,-15,-13,-90,-24,-7,0,9,-4
27415545733,19,6,-3,-2,6,8,2,11
27415560695,-3,-53,-57,-19,-12,-9,-10,-7
27415560695,-24,-6,-16,-23,-11,-9,-8,5
27415562202,46,45,29,28,23,18,32,17
27415562202,-20,-3,54,29,-5,-5,4,-4
27415583227,-7,-10,-54,16,41,38,22,-3
27415583227,10,-5,23,-16,-13,2,10,15
27415584757,-9,-30,-85,-19,-9,-24,-33,-20
27415584757,-2,68,92,56,18,4,10,9
27415596893,5,-10,-95,-91,-16,6,9,7
27415596893,10,-25,-5,18,-5,-13,-13,-3
27415605760,-6,-1,6,2,-2,-9,-25,-7
27415605760,6,8,12,-2,-1,1,19,-6
27415620868,-38,-25,35,-3,-6,3,7,-5
27415620868,5,11,25,35,4,-12,2,27
27415622237,25,26,11,-16,4,23,24,4
27415622237,-2,-19,-29,-23,-8,-6,-17,-15
27415643202,-11,-6,4,32,4,-4,9,-8
27415643202,11,1,-40,-18,-10,-2,5,-1
27415644730,-4,38,113,52,18,2,3,7
27415644730,-15,-17,-67,-52,-12,6,1,-2
27415656850,13,42,83,40,9,-1,-4,-2
27415656850,1,9,-14,-19,-16,-2,-4,-1
27415665767,-4,-23,-69,-42,-9,-5,-2,3
27415665767,-10,0,40,44,30,9,1,0
27415680672,3,-13,-50,-52,-28,-13,-7,0
27415680672,-5,15,79,20,18,8,11,0
27415682365,-13,28,75,90,13,-4,5,-13
27415682365,16,-18,-11,-56,-22,0,-3,19
27415703194,-25,-13,-32,-40,-22,-13,-12,-33
27415703194,25,-9,-8,17,5,-14,-10,6
27415704682,-1,-12,-58,-33,-5,13,34,32
27415704682,8,28,74,28,1,-8,2,-8
27415716880,8,-10,-14,27,-3,-10,-7,5
27415716880,0,20,2,-5,6,2,-19,-6
27415725764,-5,-2,28,16,10,1,-3,-6
27415725764,-2,-8,-40,-18,-15,-15,-11,-2
27415741299,-14,-29,21,27,10,9,6,8
27415741299,9,32,19,-8,2,0,1,-10
27415742707,3,-2,25,52,13,-5,-18,-2
27415742707,-13,-38,-85,-16,2,3,-3,-23
27415763272,21,48,79,-7,-20,-14,-13,-9
27415763272,-6,-11,-36,33,24,5,8,8
27415764701,-26,-44,-60,-45,-15,-7,-11,-21
27415764701,9,32,80,70,23,6,9,10
27415776872,-2,-11,-35,-28,-12,-11,-7,-3
27415776872,-7,-16,-4,-1,-12,10,30,-7
27415785793,-2,-10,-20,-55,-18,-4,-5,0
27415785793,-3,4,7,10,9,3,1,-1
27415800875,-4,-24,-69,-13,3,-1,-23,-2
27415800875,5,12,42,45,25,16,16,11
27415802267,-2,19,4,-25,-20,-6,-7,-11
27415802267,20,13,-15,-36,-11,4,17,10
27415823124,16,16,40,42,21,9,6,11
27415823124,-15,-6,-42,-47,-31,-21,-19,-6
27415824721,-13,-48,-25,-9,-6,-2,-4,-14
27415824721,-11,-2,-45,-3,-12,-10,-15,-5
27415836872,-10,1,37,66,19,-6,-6,-9
27415836872,6,15,55,-32,-9,0,4,1
27415845740,-16,10,40,7,-8,-4,-1,0
27415845740,0,-18,-44,-9,10,3,-14,2
27415860787,-21,-29,-47,-37,-16,-6,7,-7
27415860787,8,-20,-86,-23,-9,-4,-16,-9
27415862199,15,13,3,-5,1,-4,-17,-1
27415862199,29,9,-15,-7,-9,4,10,20
27415883139,1,44,90,14,6,17,29,14
27415883139,-14,9,-1,6,8,1,-11,-8
27415884749,-15,-60,-56,-8,-10,2,21,3
27415884749,16,-2,-7,20,9,-8,-13,-1
27415896930,-3,-21,-32,-45,-23,-14,-12,-10
27415896930,-14,18,28,0,5,5,-12,-12
27415905742,16,43,9,-16,-5,-5,-6,-3
27415905742,-41,-38,17,-19,-21,-9,0,-3
27415920726,27,-12,-68,-31,11,10,9,9
27415920726,16,22,16,49,22,14,8,9
27415922204,5,-2,-20,7,1,-7,-11,3
27415922204,-9,-8,-3,-4,1,-3,-5,-22
27415943216,-7,15,-17,-20,-2,8,22,6
27415943216,18,-6,9,23,0,-12,-10,7
27415944742,-12,-21,-68,-41,2,20,33,19
27415944742,16,-6,-51,-35,-14,-6,-4,-5
27415956845,-28,18,67,53,19,0,-22,-3
27415956845,-8,-12,8,34,4,6,35,8
27415965763,7,-50,-98,-20,0,0,-7,0
27415965763,-1,77,107,60,14,4,1,-2
27415980763,-12,-26,15,-51,-13,10,11,2
27415980763,20,-3,-9,-19,-9,-8,-11,5
27415982239,9,30,-13,40,7,-15,-13,-4
27415982239,5,18,22,6,9,5,1,0
27416003186,15,-4,-107,-50,-12,2,2,-2
27416003186,-26,-38,44,4,-4,-3,-9,-10
27416004686,20,-3,-35,22,-4,-3,-7,9
27416004686,-12,-15,15,-2,1,2,-5,4
27416025725,-20,-12,-26,-36,-15,-3,16,-4
27416025725,0,-11,-94,-28,-8,-12,-14,1
27416027251,35,-21,20,34,8,6,3,6
27416027251,3,35,69,8,-2,-4,-12,-3
27416039308,-14,-67,-76,2,-5,-7,-6,3
27416039308,-2,44,13,-8,6,4,-13,-41
27416048321,5,21,31,-21,-11,-1,8,17
27416048321,-2,-62,-113,-17,-13,-14,-1,-1
27416063067,23,49,119,1,6,11,-5,-3
27416063067,-2,15,78,33,4,1,3,3
27416064659,4,21,39,-31,-13,-4,9,3
27416064659,-14,34,29,-40,-20,-7,-1,-2
27416085509,8,-19,-76,-9,-8,-12,-8,1
27416085509,-3,-24,-21,8,-4,-3,-5,-1
27416091877,-45,-14,31,-23,-9,-10,-23,-23
27416091877,8,-20,-52,-12,-3,-5,9,5
27416100691,-11,26,50,15,-2,-9,-8,-3
27416100691,-18,-2,38,14,3,-2,-12,-8
27416102161,-2,23,31,21,6,0,5,3
27416102161,-1,-28,-17,12,2,-4,-9,-3
27416123280,4,-17,-42,-7,0,2,6,-14
27416123280,-7,46,61,13,4,-1,-24,-1
27416124698,6,-51,-91,-71,-18,8,36,21
27416124698,-11,29,42,10,11,8,2,-4
27416145742,11,57,127,95,30,14,1,6
27416145742,-5,-38,-75,-16,2,2,6,8
27416147185,-6,13,7,19,4,-7,-13,-15
27416147185,10,-20,-65,-18,-1,10,8,14
27416168246,6,-6,25,-13,-14,-10,-8,-12
27416168246,-8,-39,-87,-68,-29,-12,8,-3
27416169713,-4,66,80,12,3,5,-5,-8
27416169713,8,-13,-16,-26,-2,11,26,17
27416183606,16,12,2,2,-2,-11,-12,9
27416183606,-6,-32,-69,-15,-3,0,-23,-24
27416189359,-9,3,43,25,14,6,10,3
27416189359,10,-13,24,31,6,-1,2,6
27416205704,-6,7,-74,-51,-20,-16,-13,-7
27416205704,5,-37,-17,-38,-11,8,17,16
27416207236,-3,-2,-25,-8,-1,-4,-5,-6
27416207236,-3,13,35,29,2,-4,-10,-6
27416220093,5,-15,-46,-14,-7,0,-1,-2
27416220093,7,15,-54,-6,16,2,4,7
27416226912,-5,5,-3,9,4,-2,-14,-12
27416226912,10,15,-1,-22,-8,-1,4,0
27416243189,-12,13,17,39,20,4,-1,6
27416243189,-4,-5,-23,-27,-8,-2,-1,-4
27416244740,-8,-8,50,58,15,-1,2,-4
27416244740,-8,-4,-56,-29,-10,1,-10,-10
27416265619,14,-17,-4,38,17,-3,-8,-10
27416265619,2,27,49,11,0,3,15,20
27416267212,-17,7,34,-20,-2,9,6,1
27416267212,-20,-11,-5,-4,-13,-17,-9,-17
27416279965,18,9,30,3,3,10,-10,-1
27416279965,2,-20,-25,20,-6,-6,22,11
27416286988,1,-3,25,12,11,-2,-14,-13
27416286988,-17,-50,-83,-42,-14,-2,3,0
27416303083,-2,41,87,39,8,-6,-11,-4
27416303083,6,-3,-96,-72,-21,-10,9,-2
27416304693,0,0,52,69,18,5,-13,-6
27416304693,29,67,96,-2,2,-5,1,8
27416325634,-60,-77,-82,-33,-19,-4,8,-6
27416325634,4,-3,17,30,6,6,-1,2
27416327294,5,11,-66,-54,-16,-1,4,-1
27416327294,-27,-16,-24,9,10,7,-7,-8
27416339986,33,8,-88,-46,-14,-10,-8,-3
27416339986,-6,6,84,56,16,5,-5,14
27416346884,9,6,3,-12,-6,1,24,14
27416346884,3,-50,-82,-31,-9,6,13,-3
27416363132,15,71,44,13,15,13,11,28
27416363132,-2,-38,-36,6,8,7,-1,-3
27416364717,7,29,-13,6,0,-10,-21,-10
27416364717,0,-25,-93,-66,-12,-5,4,4
27416385713,-16,12,76,76,19,2,8,-11
27416385713,2,1,57,18,4,-2,-3,-3
27416387231,7,36,12,-2,-11,-7,-4,2
27416387231,1,-23,0,8,10,2,-13,-10
27416400021,22,26,0,-21,-8,0,6,2
27416400021,-31,-46,-40,-42,-16,-8,-16,-14
27416406880,-7,-31,-47,-7,-3,-12,-52,-15
27416406880,-13,14,72,55,20,16,59,20
27416423169,1,-36,-12,-22,-12,-6,1,5
27416423169,14,35,27,2,0,1,6,0
27416424743,2,-42,-31,-37,-13,-6,-1,-3
27416424743,-6,21,50,26,-8,-16,-23,-6
27416446142,-32,-51,-90,-26,4,10,13,5
27416446142,9,41,24,-17,-8,-1,17,3
27416447660,-7,-10,44,60,19,6,0,-1
27416447660,6,17,6,18,7,-2,-20,-14
27416459956,-14,-42,-60,-39,-11,4,11,6
27416459956,23,15,-1,5,3,-3,-12,5
27416466841,25,63,70,60,20,9,22,12
27416466841,-9,-5,-8,40,18,-1,-23,-20
27416483223,-27,-21,-17,-31,-14,5,23,9
27416483223,-3,-11,-45,-14,-5,1,4,-4
27416484728,-6,-45,-35,-21,-9,-7,-6,-1
27416484728,-3,3,-20,-18,-2,-1,-7,0
27416505696,1,9,37,71,18,-8,-27,-20
27416505696,-5,54,76,18,8,-3,-24,-14
27416507210,-4,-31,-89,-53,-14,5,56,19
27416507210,-14,0,63,23,1,2,2,2
27416519376,13,-18,-75,-52,-11,-1,-8,0
27416519376,8,9,23,26,2,-4,-12,-9
27416528203,-18,-20,-3,-2,3,-1,-15,-8
27416528203,-15,-52,-83,-34,-5,-4,1,-2
27416543144,29,105,119,41,9,-8,-15,-3
27416543144,-7,19,83,41,11,3,13,-8
27416544739,-17,-41,-32,-29,-12,6,15,10
27416544739,18,39,46,-12,-22,-14,-7,7
27416565756,-5,-15,-2,1,8,5,3,1
27416565756,8,-16,-60,-13,-6,-6,-5,4
27416567265,2,-3,-6,-10,-5,-6,-15,-13
27416567265,-13,-3,-10,-3,4,4,0,-5
27416579237,4,-7,-18,4,-5,-7,-7,-2
27416579237,-15,-11,-15,-25,-6,-5,-9,-5
27416588222,20,58,77,52,16,0,-24,-10
27416588222,-2,-32,-60,-41,-3,16,15,9
27416603119,35,30,27,14,3,8,17,13
27416603119,-20,-33,-16,-13,-7,0,2,2
27416604690,-9,1,-16,-5,-5,-8,-16,-10
27416604690,9,18,21,20,2,-6,-10,-4
27416625721,-7,-19,-7,-19,-9,-5,-3,-6
27416625721,3,-32,-82,-18,4,5,2,7
27416627299,3,37,62,40,17,1,-8,-7
27416627299,6,36,28,-9,4,17,29,13
27416648357,-8,-27,-13,4,-1,-1,4,4
27416648357,26,14,33,32,11,6,7,9
27416649687,-5,-19,-57,-29,-10,-1,11,0
27416649687,1,-2,7,17,2,-3,-1,1
27416663113,-18,-21,-18,-7,-6,-10,-15,-18
27416663113,-15,-17,-21,-13,-7,-2,8,6
27416664772,3,12,15,11,4,3,1,4
27416664772,13,11,7,-1,-3,-15,-36,-9
27416685737,-7,-20,-27,-8,-1,1,11,7
27416685737,-3,34,35,3,-4,0,-1,-9
27416687216,-11,-53,-32,-25,-2,5,6,7
27416687216,3,22,-5,-4,-10,-6,-6,-5
27416699365,4,5,-9,-1,9,2,-9,0
27416699365,-5,-19,-11,8,-2,-6,-5,-3
27416708232,-7,4,8,-4,-4,-2,0,-4
27416708232,-6,-53,-18,8,-1,-2,1,0
27416723211,4,46,26,-3,1,3,2,-4
27416723211,7,22,13,-5,0,3,6,4
27416724687,0,-10,-21,-10,-4,-1,3,1
27416724687,-2,10,48,35,5,-2,-7,-8
27416745631,-13,-33,-12,-6,-10,-12,-10,-2
27416745631,-4,-11,4,-5,0,5,-1,0
27416747260,1,5,-45,-16,-9,-2,2,2
27416747260,0,-13,6,5,3,1,-1,1
27416759261,-5,-16,7,12,6,7,9,2
27416759261,-1,-42,-24,-9,-6,-11,-10,-6
27416768230,12,76,50,10,6,-1,-10,-2
27416768230,-9,-21,-4,-1,1,0,9,12
27416783119,6,12,10,6,1,6,6,-1
27416783119,-7,-19,-23,-13,-7,-5,-4,-1
27416784711,7,30,12,-3,-2,-2,2,-2
27416784711,-4,-12,-11,-4,-1,-4,-7,-4
27416805684,1,27,10,-2,-2,-2,-7,-4
27416805684,-4,-40,-31,-6,-1,2,3,-1
27416807227,-4,-32,-17,-5,-5,-4,-1,0
27416807227,5,46,12,3,8,3,2,-3
27416819341,1,-26,-4,0,3,2,1,2
27416819341,1,29,11,1,-3,-5,-3,-2
27416828261,-8,-25,-2,-1,3,0,1,-2
27416828261,1,0,-13,-3,-4,1,2,-4
27416843126,-6,-6,-8,-3,-2,-1,-3,-4
27416843126,1,8,-3,-2,-3,-2,0,1
27416844704,1,-3,-7,-13,-5,-2,-1,2
27416844704,-5,-25,-20,-6,-5,-5,-2,-1
27416865721,-2,-6,6,5,3,1,-3,-6
27416865721,7,47,22,5,1,2,5,3
27416867176,-2,-34,-17,-5,-2,-1,1,2
27416867176,-4,21,8,-2,-2,-1,-2,-7
27416887590,0,-10,3,2,-2,-4,-5,-1
27416887590,2,-1,-9,-2,-1,-1,-1,3
27416888237,-5,-27,-9,-4,-1,-1,-2,-3
27416888237,0,18,1,-1,-2,-1,-2,-2
27416902497,1,5,10,3,2,2,1,5
27416902497,-4,-1,-8,-4,-3,-3,-3,-3
27416903171,3,17,12,6,2,-4,-2,-1
27416903171,0,-3,1,-1,-2,-3,-2,-2
27416925071,-3,-4,-18,-10,-5,-3,-2,-1
27416925071,4,11,19,3,-1,-3,-2,-1
27416925730,-4,-19,-21,-11,-5,0,0,1
27416925730,-2,-2,2,3,0,-2,-1,-1
27416947565,-3,-4,-2,-3,-3,0,-1,-4
27416947565,-10,-18,-11,-1,-1,-2,-3,-2
27416948232,4,5,-14,-8,-4,-3,-3,4
27416948232,2,2,21,6,-1,1,2,-3
27416961788,2,10,4,0,-4,-4,-1,1
27416961788,-7,-23,-17,-6,-1,1,0,-3
27416977570,5,28,18,4,1,-2,-4,-2
27416977570,0,-5,-14,-6,0,-3,-6,1
27416985048,0,0,-2,2,-2,4,5,-5
27416985048,0,-16,-5,0,-1,-1,1,9
27416985720,-2,7,3,-3,-1,0,0,-2
27416985720,-2,-3,-4,1,-3,-1,-2,-7
27417007502,4,9,9,2,1,-3,-2,8
27417007502,-6,3,-5,0,0,1,0,-7
27417008180,-5,-21,-10,-5,-2,-2,-1,-2
27417008180,-1,-4,-2,-4,0,0,1,-2
27417023252,1,-5,5,-1,-1,-1,-2,7
27417023252,3,17,2,-1,-1,-1,-3,-2
27417030044,-7,-26,-10,-2,-6,-3,-3,-2
27417030044,1,8,3,5,3,3,1,-1
27417045037,0,14,3,-1,0,-1,0,-5
27417045037,0,-8,-11,-10,-5,-4,0,1
27417045702,0,12,16,11,2,0,1,-2
27417045702,-1,-14,2,3,-2,-2,-3,1
27417067490,-4,-10,0,3,1,1,-1,0
27417067490,1,-2,-1,1,1,2,1,0
27417068157,1,-5,-4,-4,-1,-1,-1,0
27417068157,3,10,0,-5,-3,0,1,2
27417082622,-3,-11,-16,-5,-3,-4,-5,-4
27417082622,1,15,7,2,0,-2,-3,-2
27417083190,-3,-8,-3,-3,-2,-1,-2,-2
27417083190,1,7,1,-1,2,1,1,1
27417105100,-8,-7,-5,-3,-3,1,0,-5
27417105100,2,5,-5,-1,1,-1,-1,-5
27417105705,-1,-11,10,4,1,1,0,7
27417105705,0,5,-6,-6,-2,-1,-4,-1
27417127501,1,4,12,4,0,-2,-2,0
27417127501,-6,-19,-16,-9,-5,-2,-3,-2
27417128220,3,16,9,5,1,1,2,-2
27417128220,-2,-13,-18,-6,-3,-4,-4,-2
27417143249,-5,-3,-3,-3,-2,0,0,1
27417143249,-1,-18,-4,-1,-2,-2,-1,1
27417150040,4,26,-1,-5,-3,0,-2,-2
27417150040,2,1,-1,0,1,1,4,3
27417165040,4,4,10,-1,-1,-5,-3,-1
27417165040,2,9,12,5,1,5,5,0
27417165614,-5,-19,-12,-3,1,-1,1,-2
27417165614,-4,-9,-2,0,-5,-3,-2,-5
27417187598,1,1,-6,-5,-3,-3,-2,0
27417187598,-6,6,14,3,0,-4,-3,-1
27417188208,-1,-7,-10,-3,-1,0,0,-2
27417188208,0,2,3,-1,0,-1,2,2
27417202497,-2,-12,-10,-4,-3,0,-1,-4
27417202497,-4,-18,1,1,-3,-2,-3,-3
27417203194,4,38,3,-8,-5,-3,-2,-2
27417203194,-4,-18,6,1,1,1,-1,0
27417225080,2,8,-1,0,-1,-1,0,-1
27417225080,-2,-3,-5,-1,-2,-1,-2,-2
27417225717,-7,-22,-12,-4,-3,-3,-3,-4
27417225717,2,4,-4,-3,-4,-2,1,2
27417247483,0,6,5,0,1,1,-1,-2
27417247483,0,0,1,-1,-1,-2,-4,-2
27417248223,-3,-4,-10,-1,1,2,4,0
27417248223,0,-11,3,1,0,1,0,-2
27417262453,-3,18,1,-3,0,0,3,1
27417262453,1,2,3,3,2,0,-1,-3
27417263229,-7,-18,-9,-5,-3,-3,-4,-4
27417263229,5,33,18,3,2,-1,0,3
27417285038,-2,-13,-7,-5,-1,-1,-3,-2
27417285038,1,12,-3,2,-1,0,0,-2
27417285688,-1,-1,7,5,-1,0,-1,0
27417285688,-3,-15,-15,-7,-5,-3,-2,0
27417307541,-1,-6,-5,-2,-2,-3,-2,-3
27417307541,0,3,-2,-2,-2,0,2,1
27417308192,-1,-5,4,6,6,2,1,1
27417308192,-4,-8,-6,0,-2,-1,-2,-2
27417321912,0,5,-1,0,-2,-5,-2,0
27417321912,3,4,1,-3,-1,2,1,1
27417330049,-3,-9,-6,-1,-3,-2,-2,-1
27417330049,1,2,-2,-5,-3,-1,-1,-1
27417345036,1,10,12,6,2,2,1,2
27417345036,-1,-12,-11,-6,-4,-3,-2,-1
27417345697,4,18,4,-2,-1,-4,-5,2
27417345697,-8,-3,-7,1,2,0,-2,-9
27417367539,-1,-14,-2,-2,-2,2,6,9
27417367539,0,6,5,1,0,0,-2,1
27417368216,-2,-4,1,1,-1,1,0,-2
27417368216,1,-1,3,-1,-1,0,-1,2
27417382472,0,0,-7,-2,-1,-1,-3,-5
27417382472,1,2,6,4,3,1,1,5
27417383188,0,-13,-4,-2,-2,-2,2,3
27417383188,-6,-1,2,0,-1,-1,-2,-2
27417405468,-2,-5,-8,-4,-3,-2,-3,-4
27417405468,1,4,5,2,1,-1,-1,0
27417406167,-2,-19,-13,-5,0,1,1,-1
27417406167,4,16,2,0,-3,-1,0,2
27417427602,1,4,4,4,3,0,-1,0
27417427602,-3,7,2,-4,-3,-1,-4,-1
27417428176,-3,-3,6,2,1,-2,0,0
27417428176,-2,-7,-4,-2,-1,-4,-1,-4
27417443201,-2,-17,-8,-5,-4,-2,-1,-1
27417443201,1,11,2,0,-1,-2,-3,-4
27417450222,0,-4,-9,-2,0,1,4,-2
27417450222,-1,4,5,1,1,-1,-1,2
27417465059,1,1,2,1,0,-2,-4,-1
27417465059,-1,8,5,1,0,-1,-2,-2
27417465689,-1,-4,3,0,-1,0,-1,0
27417465689,-6,-12,-10,-3,-3,-2,-1,-1
27417487550,-1,-4,-5,0,2,0,1,-3
27417487550,1,-4,-5,-6,-2,-2,0,2
27417488168,0,15,13,9,4,1,-2,-2
27417488168,2,-8,-6,-3,-1,-1,0,1
27417501757,-5,-3,-6,-5,-4,-3,-4,-2
27417501757,-2,-13,-2,-1,-3,-1,1,-2
27417510083,0,16,6,1,-1,-2,-2,1
27417510083,-2,0,0,3,4,2,-1,-4
27417525017,-1,1,6,-1,-1,-3,-2,-2
27417525017,-2,-8,-6,-3,-1,0,-1,-1
27417525664,0,-3,-9,-5,-6,-4,-1,-1
27417525664,2,0,-4,-3,-3,-3,-2,2
27417547502,-3,-4,4,-2,-1,1,-1,1
27417547502,2,10,6,1,0,-1,-2,-1
27417548174,-3,-1,0,-1,-1,0,-2,-2
27417548174,2,2,0,-3,0,1,0,1
27417561762,-2,-8,-10,-1,-2,-1,0,-2
27417561762,-1,-6,-11,-5,-3,0,2,3
27417570055,1,3,12,6,0,-1,-1,-2
27417570055,-2,2,2,-2,-1,-3,0,0
27417584972,-1,3,4,2,0,-1,-2,0
27417584972,-3,-2,-9,-4,-1,-3,0,-1
27417585622,-3,-6,-5,-4,-2,-3,-1,-1
27417585622,-1,-5,-5,-4,-1,1,0,-1
27417607528,-4,-6,0,1,1,-1,0,-3
27417607528,2,10,8,3,2,-2,-4,0
27417608166,0,-4,-1,-4,-2,-1,0,-4
27417608166,2,2,0,1,2,3,4,1
27417621853,-3,-9,-3,-1,-1,0,1,-1
27417621853,-4,-3,-8,-3,2,-1,-4,-4
27417630476,0,-1,-7,1,-2,0,-5,0
27417630476,-1,3,12,1,-4,-4,-3,-2
27417645057,6,22,12,2,1,1,2,1
27417645057,2,-8,-1,-3,-1,-1,0,-1
27417645690,-5,-10,-4,0,-3,-3,-2,-3
27417645690,-4,-7,-15,1,3,0,0,-2
27417667583,-1,-13,-10,1,0,1,-1,0
27417667583,-5,1,15,4,-1,-3,-2,0
27417668170,1,7,-12,-8,-3,-3,0,-1
27417668170,3,10,9,1,-5,-2,0,1
27417690801,-3,-11,-9,-3,0,-1,-1,0
27417690801,-1,2,-17,-3,0,0,-2,-5
27417691373,0,-1,10,-2,-1,0,3,3
27417691373,-6,-15,-6,-1,-3,-3,-3,-1
27417705088,4,23,7,1,-1,-3,-2,-3
27417705088,-1,-5,5,1,-2,-1,-2,-1
27417705703,-3,-6,-6,-4,-1,1,2,-2
27417705703,0,-3,-9,-5,-3,-3,-4,-1
27417727555,-1,1,13,2,-1,-2,-1,0
27417727555,-3,-11,-19,-4,-2,-1,-1,-1
27417728193,0,7,1,0,2,-1,0,0
27417728193,-3,-2,12,4,2,0,-1,0
27417741888,-3,-3,-12,-6,-3,-2,-1,-3
27417741888,-4,-2,3,3,-1,0,0,-1
27417749767,2,0,-4,-3,-3,-1,-1,0
27417749767,-2,-13,-5,-3,-2,-1,-3,-2
27417765000,2,16,3,-2,-2,-1,0,0
27417765000,3,4,7,0,-1,0,1,0
27417765672,-2,0,-2,0,-1,-1,-2,-1
27417765672,-6,-21,-15,-5,-3,-1,0,-2
27417787519,6,16,5,3,2,-1,-1,1
27417787519,0,-1,-4,-5,0,-2,1,0
27417788239,-1,-1,14,2,0,0,-2,-1
27417788239,2,1,-8,-3,-1,-3,-1,-3
27417801839,-1,-1,11,2,1,0,-1,-1
27417801839,-1,0,-12,-4,-3,-2,-1,0
27417810053,-1,0,7,3,0,-3,-2,-1
27417810053,-2,-3,-5,-4,-2,-1,0,-1
27417833139,-8,-13,-11,-2,-1,-1,-1,-4
27417833139,0,-12,-4,1,2,2,1,-1
27417833924,0,14,11,0,0,-1,0,-2
27417833924,1,6,2,-1,-1,-2,0,0
27417847523,-3,-4,-4,-4,0,-1,-3,0
27417847523,-4,-1,3,0,-1,0,-1,-2
27417848192,1,-12,-17,-6,-4,-2,-3,0
27417848192,-1,-1,8,7,3,-4,-4,-2
27417870723,3,14,21,1,-2,-2,-2,3
27417870723,-7,-10,-19,-8,-2,2,2,-2
27417871419,-1,1,-2,2,0,1,-1,-3
27417871419,1,3,3,-1,-1,-1,0,0
27417885454,-3,-19,-15,-3,-3,-5,-4,-1
27417885454,5,18,17,1,1,-5,-6,1
27417886141,1,5,1,0,1,6,4,3
27417886141,1,9,0,-2,1,2,1,1
27417907471,0,-12,-10,-3,-1,-1,-1,-2
27417907471,-4,-2,-5,-8,-2,-2,-1,-1
27417908150,-3,-1,9,9,3,-1,-3,-3
27417908150,1,5,9,2,2,1,1,1
27417930678,2,-2,-10,-1,2,3,2,1
27417930678,-4,1,8,4,-1,0,0,0
27417931429,-2,-2,-6,-6,-4,-5,-6,-3
27417931429,-1,1,4,1,1,1,0,1
27417945015,-3,-13,-12,-7,-2,-3,-3,-3
27417945015,0,8,16,11,1,-2,-4,2
27417945765,2,-5,-4,-6,-3,-1,1,-1
27417945765,1,3,0,0,-2,1,-2,-2
27417967621,-4,-4,-16,-6,0,-1,1,-2
27417967621,-1,-16,2,3,-1,0,1,-3
27417968180,-2,14,3,-6,-2,-6,-6,-1
27417968180,-3,-5,-17,-6,-4,0,2,-2
27417990808,4,3,9,5,2,1,-2,0
27417990808,-2,-7,-8,-6,-1,-3,0,-3
27417991398,-1,1,9,4,3,-1,1,2
27417991398,-3,-6,-2,-4,-2,-2,-1,-1
27418004985,-6,10,1,-4,-2,0,-1,-3
27418004985,0,-12,-5,-1,-2,-3,-2,-2
27418005678,-3,-16,-19,-1,1,1,1,0
27418005678,0,14,28,8,0,-2,0,0
27418028061,-2,2,-5,-4,0,-2,1,0
27418028061,0,3,-5,-2,0,1,-1,0
27418028622,0,0,-1,1,-1,0,-1,-1
27418028622,-7,-13,-13,-3,-1,-2,-3,-3
27418050649,3,7,13,5,-1,-1,-2,1
27418050649,2,4,-2,-7,-3,0,1,0
27418051386,-3,-5,-9,-1,-1,-2,-2,-3
27418051386,-1,-4,1,2,-1,-3,-5,-3
27418064962,-1,-4,-2,0,-2,-1,-1,-1
27418064962,1,8,-3,-8,-1,0,0,0
27418065662,-3,-8,3,0,0,0,2,-1
27418065662,2,7,3,0,0,0,1,0
27418088228,0,3,-1,2,-2,-2,2,0
27418088228,-3,-11,4,5,-1,-3,-2,-3
27418088957,1,8,-12,-8,-2,-3,-1,0
27418088957,-2,-8,3,-5,0,-1,-1,-1
27418111331,-3,-7,-14,2,-6,-6,-6,-5
27418111331,0,4,6,2,3,3,1,0
27418111913,2,1,2,-3,-2,0,-2,-3
27418111913,3,2,-6,-4,-5,-2,-2,1
27418125071,-1,-2,1,0,2,0,-1,-2
27418125071,-4,-5,3,2,0,2,1,-2
27418125721,-2,-3,-3,-2,2,2,2,2
27418125721,-2,-2,-10,-3,-3,-2,0,-2
27418148271,-3,-6,-4,-2,-1,-3,-5,-5
27418148271,2,11,11,0,-1,1,1,0
27418148903,-3,-3,13,6,0,-1,-2,0
27418148903,0,-2,-7,-5,-2,3,1,0
27418170777,-2,-12,-14,-2,-3,-1,1,0
27418170777,0,11,7,-2,-1,-3,-2,1
27418171415,-2,-8,-8,-3,0,-2,-2,-1
27418171415,1,11,7,5,2,-1,0,1
27418184972,-4,-9,-11,-9,-3,-2,-2,-2
27418184972,-2,-10,-15,-4,-3,-2,-3,0
27418185649,1,5,9,4,-3,-4,-6,-3
27418185649,-3,-1,-3,0,1,5,3,-1
27418208189,-2,1,18,4,2,5,3,1
27418208189,0,-14,-15,-7,-5,-4,0,2
27418208977,1,8,-4,-2,-5,-3,-2,-6
27418208977,-2,0,4,0,1,-3,-4,-2
27418230396,-2,3,-1,-2,0,-1,-2,1
27418230396,1,-7,-2,2,-2,0,1,0
27418231096,1,7,7,0,-1,2,2,0
27418231096,-5,-3,4,7,1,-4,-4,-2
27418245041,-1,-4,4,-5,-4,1,1,-1
27418245041,-1,1,-14,-1,0,-2,-2,-1
27418245698,-1,-6,-11,-7,-5,-6,-5,-1
27418245698,0,3,7,2,3,7,5,0
27418268151,-2,0,-3,-3,0,0,-1,1
27418268151,-3,2,1,0,1,1,0,-3
27418268925,0,-5,-8,-6,-2,0,1,0
27418268925,1,1,-3,0,-3,-5,-5,-2
27418290729,2,6,14,7,0,-3,-3,0
27418290729,-2,-5,-14,-7,-5,-2,-2,-1
27418291362,-6,-15,-5,-5,-2,-2,-2,0
27418291362,-1,-3,-6,-7,-2,-1,-1,-1
27418304974,-1,2,2,5,0,-2,-1,0
27418304974,3,14,27,8,1,-4,-3,2
27418305650,-2,-2,-10,-3,2,3,2,-3
27418305650,-1,-10,-13,-9,-3,1,1,1
27418328266,0,2,10,4,2,1,0,1
27418328266,-2,0,8,5,3,-2,-2,-1
27418328912,-4,-9,-8,0,1,2,2,2
27418328912,7,7,-1,-4,-1,-3,-2,0
27418350699,-1,-2,-12,-5,-2,-1,0,-1
27418350699,0,-2,9,6,-2,-2,-2,-1
27418351401,-3,-2,-1,-1,-3,-5,-5,-4
27418351401,-1,5,6,-1,2,1,3,1
27418364926,0,3,0,-4,-4,-1,1,0
27418364926,0,-2,-6,-5,-1,-1,-2,-1
27418365611,-1,-12,-28,-6,0,-2,-1,-1
27418365611,3,16,43,14,2,-1,-2,-1
27418388154,-3,-7,3,-2,-2,-2,-2,-2
27418388154,-1,-4,-3,-3,-2,0,-1,-1
27418388920,0,-1,-5,-3,0,2,1,0
27418388920,1,-7,-36,-9,-4,-4,-1,-1
27418410660,-7,-1,14,9,3,0,-1,-3
27418410660,1,1,-13,-6,-3,-2,-2,0
27418411342,4,5,10,-2,-1,-1,0,1
27418411342,-1,-3,16,1,2,2,1,3
27418424978,6,10,1,3,0,-4,-2,1
27418424978,-3,2,7,5,1,-3,-6,-5
27418425671,2,5,-1,-1,-3,2,3,1
27418425671,-3,-6,-3,2,1,1,1,1
27418447447,-2,-2,11,0,1,0,-1,-2
27418447447,-5,-7,-15,-3,0,4,3,0
27418454293,0,-4,-16,-8,-3,-4,-5,-1
27418454293,-8,-4,-13,-6,-3,-2,-7,-2
27418470789,8,9,21,8,0,-1,0,4
27418470789,-4,-7,-9,-7,-2,-1,1,-1
27418472180,3,0,5,3,2,0,1,-1
27418472180,-8,5,19,14,4,1,0,-4
27418484313,-3,-9,-24,-10,-2,-2,-3,0
27418484313,5,6,3,1,2,1,0,-1
27418493207,1,1,10,5,-2,-4,-1,0
27418493207,-5,-19,-18,-9,-4,-5,-6,-2
27418507994,0,-4,-8,-5,-3,0,-2,1
27418507994,-4,-2,4,2,1,2,2,3
27418514303,-2,5,-5,-9,-3,0,0,0
27418514303,-3,-6,4,8,-3,-4,-2,-2
27418530618,-5,-10,0,3,-3,-3,-4,0
27418530618,4,15,-5,-4,-1,2,6,6
27418532155,-8,-8,10,2,-1,-2,-2,-1
27418532155,1,4,-10,-9,-2,-2,-2,-1
27418544326,1,-11,0,-3,-2,-1,-4,-4
27418544326,-2,9,-1,-4,-5,-4,-3,-5
27418553226,-1,3,4,5,1,0,-1,-7
27418553226,1,1,-2,-1,-3,-2,-4,-7
27418568291,-5,-6,-7,0,1,2,2,-5
27418568291,1,-6,-1,0,-1,-5,-3,-6
27418569696,-1,0,8,6,2,0,0,-2
27418569696,-4,1,-8,-5,-3,-4,-4,-5
27418590696,2,3,-7,-4,-1,-1,-1,-5
27418590696,-1,-2,1,-1,1,6,3,5
27418592179,-10,-7,1,0,-2,2,4,3
27418592179,10,15,4,1,1,-1,0,1
27418604379,-7,-6,-8,-6,-2,-7,-7,-4
27418604379,2,5,2,3,2,2,4,4
27418613175,-9,-8,1,1,1,4,4,-8
27418613175,-2,-5,-2,-1,0,3,3,2
27418628153,4,8,3,-1,0,0,-1,-2
27418628153,-3,-8,-5,-3,-3,-4,-6,-5
27418629581,7,0,-7,-3,-4,-3,-5,2
27418629581,-8,-3,-4,0,-1,0,0,-4
27418650755,-1,1,3,0,0,2,2,-3
27418650755,-7,-16,-4,-2,-2,-3,-3,-5
27418652170,-3,-14,-10,-5,-2,-3,-3,2
27418652170,5,20,11,2,-1,-5,-4,-3
27418664320,1,3,-7,-5,-4,5,5,6
27418664320,-2,2,2,2,0,0,-1,-4
27418673265,1,5,8,3,0,-5,-5,0
27418673265,-5,-23,-22,-6,-3,-6,-3,3
27418688221,-5,2,5,3,3,2,5,2
27418688221,8,-6,-9,-3,-4,-4,-7,0
27418689661,1,8,-1,-5,-2,-1,0,-2
27418689661,-4,-5,15,9,2,-3,-2,0
27418710778,2,5,5,-1,-2,-5,-4,1
27418710778,-4,-9,-8,-4,-4,-7,-7,-3
27418712181,-9,-8,0,1,4,6,3,-3
27418712181,2,-1,-3,-1,0,3,2,1
27418724303,5,3,-7,-1,0,1,0,-1
27418724303,-2,-2,5,0,2,-2,-2,1
27418740695,0,4,-2,1,-3,-5,-5,-1
27418740695,-2,7,8,-1,-2,1,2,-4
27418748309,-5,-11,-14,-6,-2,0,0,-2
27418748309,0,7,9,4,1,1,0,0
27418749649,7,9,8,3,-1,-4,-2,-1
27418749649,-6,-12,-13,-3,1,8,3,-1
27418770699,-2,-8,-5,0,-1,-1,0,0
27418770699,-4,-3,-1,-1,-2,0,1,7
27418772206,4,0,-3,-2,-3,-3,-4,-11
27418772206,3,0,1,-2,-2,-2,1,0
27418784360,-4,-4,-3,-1,1,2,0,-2
27418784360,1,2,1,-1,0,1,2,0
27418793233,1,3,1,-1,0,1,0,2
27418793233,-2,-10,-11,-2,-1,-4,-3,-2
27418808203,-9,-9,1,-2,-4,-3,-2,-7
27418808203,2,0,-3,-2,-2,-3,-2,-4
27418809692,5,17,17,2,-2,-2,-3,1
27418809692,4,5,-3,-5,-3,0,2,-1
27418830789,2,-2,-6,-5,-1,0,1,1
27418830789,-2,-3,2,-2,-1,-2,-1,-2
27418832152,-5,-13,-6,-1,-1,1,2,2
27418832152,1,8,-1,-5,-1,2,0,1
27418853165,1,-1,2,4,-2,-5,-5,0
27418853165,-3,-5,-4,0,0,1,3,-4
27418854707,-2,-4,-9,-4,-1,0,-1,-2
27418854707,3,-1,6,1,-1,-3,-3,1
27418868622,1,-1,-2,-2,0,1,2,-2
27418868622,-4,4,9,0,-2,-3,-4,-3
27418870212,0,-3,-4,-1,0,0,-1,1
27418870212,0,-9,-7,-2,-1,-2,-3,1
27418890671,2,11,4,-2,-1,0,2,4
27418890671,-3,0,-3,-2,0,0,-3,-5
27418892153,-3,-8,-4,-2,0,0,-1,0
27418892153,0,4,-4,-3,-3,-4,-3,0
