27777432664,0,-1,-1,-1,-1,-1,1,0
27777432664,1,1,-1,-3,0,-1,0,-2
27777433445,-3,5,-1,0,-1,-1,-1,-1
27777433445,-1,-4,-6,-1,1,0,0,1
27777437655,0,6,4,1,1,0,-2,0
27777437655,0,5,3,0,-1,-1,0,-1
27777439262,-2,0,0,-1,-1,-1,-2,-2
27777439262,2,-12,-8,-3,-2,-5,-3,-2
27777443276,1,6,0,-1,-5,-3,-2,0
27777443276,-7,-18,-11,-2,-3,-3,-3,-2
27777451957,1,6,2,-1,-1,-2,-2,0
27777451957,-2,0,2,0,-1,0,0,-1
27777467153,0,-9,-7,-3,-2,-3,-2,-1
27777467153,-1,-11,-3,-1,-1,0,-2,0
27777473476,-4,15,3,0,-1,0,-1,-2
27777473476,2,2,-3,-1,-3,-1,-1,1
27777484848,0,-2,2,-2,-1,0,0,-6
27777484848,1,-7,-11,-2,-2,0,0,0
27777504942,0,-2,2,1,-1,-1,0,0
27777504942,-3,10,7,0,1,-1,-2,-7
27777506416,8,5,2,0,1,-1,-2,3
27777506416,-1,0,0,-2,-1,-2,-3,0
27777551586,0,7,0,0,-1,-1,-1,-1
27777551586,-1,-3,-3,-1,-1,-1,0,0
27777552397,-5,-11,-7,-2,-1,-1,-2,-1
27777552397,1,22,13,2,0,-2,-1,-1
27777553235,3,-2,-4,-2,-1,-2,-2,-2
27777553235,-3,4,7,0,-1,-3,-2,-2
27777556370,-1,-4,-4,-1,0,1,-1,2
27777556370,-3,-10,-10,-2,-2,-1,0,4
27777563270,-6,-3,1,-1,-2,-1,-2,-7
27777563270,0,4,1,-2,-1,-2,0,-1
27777570679,1,4,2,0,-2,1,-2,-2
27777570679,1,-6,-3,-2,-1,0,-1,1
27777587118,0,-3,-3,-1,-1,-2,0,3
27777587118,-4,-12,-8,0,-1,1,0,1
27777593282,0,13,4,-1,1,-1,1,0
27777593282,0,-12,-3,-1,0,1,0,0
27777602104,3,14,5,1,0,0,1,-1
27777602104,0,4,1,-2,-1,0,0,-1
27777624620,4,-2,-2,-1,-1,-1,0,1
27777624620,0,-8,-5,-2,1,1,-1,-3
27777626103,0,-1,-3,-2,-2,-1,-1,0
27777626103,-2,-4,1,-1,2,0,0,1
27777638949,1,4,2,-1,-1,-2,-2,-4
27777638949,0,2,0,0,1,-1,0,-3
27777645762,-4,-11,-4,0,1,0,0,0
27777645762,-1,1,-2,0,-1,-1,-1,-2
27777661749,-2,-4,-4,-2,-1,-1,-2,1
27777661749,0,-1,-3,-1,-1,-1,-2,-2
27777668249,1,-3,-2,0,1,1,-1,2
27777668249,-11,5,2,0,-2,0,0,-4
27777684634,2,1,2,-2,-1,-3,0,1
27777684634,0,0,-6,-2,-2,-1,-2,1
27777686068,-1,4,6,-1,0,0,-2,-3
27777686068,0,-8,-7,-1,-1,-1,-3,1
27777698826,0,0,2,0,-3,-1,1,-1
27777698826,-2,0,3,-2,-2,0,-1,-2
27777705590,-3,-6,-1,-1,1,0,-2,-1
27777705590,2,3,1,0,0,-3,-1,2
27777721965,-3,-3,1,0,0,1,0,-2
27777721965,1,-1,1,0,-1,-2,1,0
27777723579,-4,-13,-4,-3,-1,-1,0,-2
27777723579,2,4,-1,-2,-2,-2,-1,0
27777744640,-4,-1,-4,-2,0,-1,-3,2
27777744640,-2,1,-1,-2,-1,-1,-1,0
27777746107,-1,-7,-4,-1,0,1,1,1
27777746107,0,-6,3,-3,1,-1,-1,-2
27777758955,0,13,3,-1,-2,-1,-1,-1
27777758955,0,-3,-6,-2,-2,-3,-1,-1
27777765719,-3,8,5,1,0,-2,-2,-3
27777765719,2,4,3,-1,0,-1,0,0
27777782040,-3,-4,1,-1,-1,0,-1,-2
27777782040,-1,-2,0,-1,-2,-3,-1,-1
27777783586,3,15,1,-3,-1,-2,0,1
27777783586,0,-2,-4,-1,-3,1,-1,0
27777804686,-4,-10,-5,-2,-1,-2,0,-4
27777804686,-2,6,1,0,-1,1,-1,-2
27777806100,-2,-12,-8,-3,0,-1,-1,0
27777806100,0,6,9,1,-3,-2,-1,-1
27777818959,-2,-1,-3,0,1,-1,0,-1
27777818959,-2,-2,0,-1,0,-1,-1,-1
27777825787,-1,-1,-2,-1,-2,-2,-1,-1
27777825787,-4,-13,-8,-2,0,0,-2,0
27777841992,1,23,9,1,-2,0,1,1
27777841992,-2,2,3,0,-1,-3,-1,-2
27777843600,-3,-6,-4,-1,-2,-1,1,-1
27777843600,-1,1,-1,-3,-2,-3,-2,-3
27777864607,0,-5,-2,-2,-2,-1,-1,0
27777864607,-1,-2,-3,-2,-2,0,-1,-1
27777866052,-3,-12,-4,-1,-1,-2,-2,-1
27777866052,4,15,2,2,1,1,0,-1
27777878290,-1,-8,-6,-1,1,0,-1,-2
27777878290,-2,-4,-3,-2,-1,-1,-1,-1
27777887153,-2,0,2,0,-1,2,0,-1
27777887153,1,-4,-6,-2,-1,-1,1,-1
27777902041,0,-4,-1,-2,-1,0,-2,-1
27777902041,0,3,0,0,1,-1,0,-2
27777903626,1,-3,-3,-3,-2,-2,-1,-1
27777903626,-1,-3,-2,0,0,-1,-2,-2
27777924543,-2,-4,-1,-2,-2,-2,-1,-3
27777924543,-2,-14,-13,-2,1,2,-1,-1
27777926081,-1,6,5,0,-2,0,-1,1
27777926081,-2,-5,-7,-2,-2,-2,-1,-2
27777938302,-1,-7,-3,-2,0,2,2,2
27777938302,2,13,7,0,0,0,0,-1
27777947108,-3,-17,-13,-2,2,1,1,-1
27777947108,-1,19,13,2,-2,-2,-2,-2
27777961742,-3,-8,0,-7,-6,-5,-4,-3
27777961742,-1,2,5,5,1,-2,-3,-2
27777968121,0,-1,-4,-5,-5,-2,1,-1
27777968121,-3,-3,0,-5,-6,-4,-4,-5
27777984470,2,8,-7,2,3,-2,0,3
27777984470,0,5,-1,6,10,7,5,3
27777986063,-3,-3,-2,-7,-5,-3,-1,-3
27777986063,-3,-5,-4,3,-3,-3,-11,-14
27777998069,-5,-16,-5,5,2,-2,-7,2
27777998069,7,21,16,1,-2,0,13,8
27778007111,0,10,3,6,6,4,2,-3
27778007111,-2,-11,-13,-12,-3,0,2,2
27778022065,-5,-18,-10,-4,-5,-4,-6,-11
27778022065,-3,-21,-9,-3,-5,-6,-9,-4
27778023558,7,33,23,-3,-5,-8,-8,16
27778023558,2,-30,-31,-5,3,3,2,-10
27778044594,-9,8,-3,4,2,7,23,10
27778044594,-2,8,-6,0,-1,-1,1,4
27778046064,-2,17,32,10,-3,-8,-29,-43
27778046064,-13,-45,-27,-10,-2,2,19,22
27778058135,7,65,26,-1,-5,-8,-12,-5
27778058135,2,8,10,-4,2,4,0,-9
27778067132,3,-11,-10,8,3,4,9,18
27778067132,5,15,25,-7,-5,-2,-7,-4
27778082007,-4,7,-10,-10,-7,-5,-5,-12
27778082007,-9,-49,-35,-11,-6,-5,-12,-12
27778083604,7,78,18,7,3,-2,-2,10
27778083604,4,5,19,-1,-1,3,8,0
27778104573,-8,-42,-33,-15,-7,-2,1,4
27778104573,2,19,39,2,-8,-6,-10,6
27778106075,-5,-33,-23,6,14,10,9,-16
27778106075,1,-2,9,13,3,-1,-6,5
27778118252,3,2,12,8,8,5,7,-1
27778118252,-2,-18,-36,-10,-6,-4,-2,2
27778127127,-2,-32,-1,-9,-8,-6,-8,6
27778127127,8,1,-2,-3,-3,-2,8,5
27778150143,8,22,28,10,5,0,-8,-2
27778150143,-10,-9,-8,4,4,6,11,-8
27778151679,2,19,18,-5,-5,-2,0,-2
27778151679,-2,-12,-15,1,2,1,-5,-4
27778165260,-4,-24,-15,-4,-1,-5,-17,-15
27778165260,0,-4,-4,-4,-2,2,11,10
27778166729,-1,19,18,-2,0,-1,0,-3
27778166729,-5,-13,-42,-10,-12,-10,-13,-5
27778178278,-1,-7,10,6,1,4,5,1
27778178278,-3,14,-36,-1,3,-1,-4,-3
27778193194,-3,41,78,9,-7,-8,-12,-14
27778193194,-1,-6,-33,-14,-5,-3,-4,2
27778202071,4,19,45,12,2,6,21,11
27778202071,1,-5,15,1,5,1,-11,-15
27778203585,-6,-46,-59,-20,-6,-5,10,20
27778203585,-1,17,32,4,-4,-3,0,-6
27778224467,-5,-37,-40,-9,-10,-9,-13,-8
27778224467,7,32,35,25,13,9,13,11
27778226032,-2,-29,-21,8,10,8,1,-4
27778226032,2,47,33,12,8,1,-4,-3
27778247057,0,-26,-26,-13,-3,2,7,5
27778247057,-1,15,9,-19,-20,-14,-11,0
27778248587,-3,-7,-15,-7,-5,-2,0,0
27778248587,-4,-5,-5,11,8,4,5,0
27778269485,-5,1,9,-1,-1,-4,-7,-10
27778269485,-1,-9,-5,-10,-6,-6,-11,-4
27778271057,3,-16,-41,-7,-5,-2,2,1
27778271057,-3,8,32,9,4,2,1,-3
27778284567,4,12,6,1,3,1,-4,0
27778284567,-4,-2,17,2,-1,-3,-7,-10
27778286105,-2,-56,-49,-11,-1,7,16,17
27778286105,1,40,37,10,-1,-2,-7,-6
27778298195,-1,-8,-14,-2,1,-2,-5,0
27778298195,7,-5,3,0,1,4,19,16
27778307133,-4,6,-7,-6,-6,-4,-9,-11
27778307133,0,-20,-17,-3,3,8,18,17
27778322005,-3,3,5,2,-3,-2,-5,-2
27778322005,-7,-27,-40,-5,0,-1,-3,-4
27778323595,2,16,39,10,5,1,0,-5
27778323595,0,-2,9,-6,-7,-6,-7,-5
27778345044,-2,-2,-16,-7,-7,-3,6,6
27778345044,0,-1,14,7,4,2,-4,-1
27778346576,-4,2,-5,0,2,0,-1,-6
27778346576,0,-8,-7,-1,1,-3,-5,-2
27778374524,2,-3,-17,3,3,1,2,3
27778374524,-4,3,8,-1,-3,-4,-9,-8
27778376060,-1,7,2,-2,-5,0,1,1
27778376060,-4,-4,0,-6,-4,-3,-4,-5
27778382081,0,-15,-18,-4,0,1,-1,-2
27778382081,2,3,-1,-3,0,3,2,2
27778383589,0,4,10,1,-2,-3,-1,-1
27778383589,1,-3,-11,18,15,7,2,4
27778404504,-2,-6,0,-3,-3,-2,-5,-7
27778404504,1,-9,-1,7,7,3,3,4
27778406096,-1,18,9,-2,0,-2,-2,-2
27778406096,-1,-13,-14,-13,-8,-4,-8,-5
27778427103,4,24,23,8,1,-2,1,1
27778427103,-4,-3,7,-4,-6,-4,-9,-10
27778428582,3,-7,-10,3,-2,5,6,5
27778428582,2,9,11,3,1,-1,3,5
27778441988,-2,2,3,-2,-1,-2,-3,-1
27778441988,-4,-3,-12,-6,-3,-5,-3,-4
27778443557,-1,-2,-2,-3,-1,-3,-5,-2
27778443557,-2,-9,-19,-6,-4,-3,-2,-3
27778472084,-4,-1,7,2,1,-1,-4,-4
27778472084,-4,1,-5,-4,-3,-3,0,-1
27778473591,-1,-7,5,2,2,1,2,1
27778473591,2,22,8,1,1,0,-1,0
27778487084,2,15,10,-2,0,1,-9,-1
27778487084,-1,1,4,5,1,2,9,1
27778488555,-4,-3,-14,-6,-4,-3,-4,-2
27778488555,0,-2,14,-2,-5,-4,-4,-3
27778501341,-2,-6,0,-1,-1,0,1,1
27778501341,3,8,3,-1,-2,-1,-3,2
27778508165,-1,-14,-14,-5,-1,-2,-2,-2
27778508165,-5,-18,-11,-2,-4,0,-4,-7
27778523193,1,11,-2,0,0,-1,5,3
27778523193,0,-13,-8,-2,-2,-3,2,3
27778532133,2,11,8,0,-3,1,5,6
27778532133,-3,0,-11,-16,-13,-9,-7,-1
27778547001,-1,-6,5,9,5,5,-3,-4
27778547001,-6,-15,-28,-3,1,-1,-2,-3
27778548577,-1,1,21,9,4,1,1,-2
27778548577,1,7,8,-1,0,3,9,4
27778577463,0,-1,0,-7,-8,-5,4,3
27778577463,-1,5,2,-6,-5,-8,-23,-9
27778579069,-1,-16,-17,-11,-5,-1,9,0
27778579069,-3,-18,-22,9,10,7,2,3
27778583132,2,5,15,4,0,1,-2,-2
27778583132,-1,7,9,3,0,1,-2,-5
27778599601,-1,-4,-10,-5,-4,-4,-5,-3
27778599601,-2,-18,-21,-11,-7,-6,-6,-4
27778607094,1,15,9,6,2,3,4,0
27778607094,-4,-5,-7,-1,-1,-1,-1,-1
27778608639,3,14,23,5,-3,-1,2,2
27778608639,0,-2,-2,-1,1,0,6,6
27778629570,-2,-17,-14,-4,0,-1,-3,-3
27778629570,0,3,1,-7,-8,-3,5,1
27778631053,-6,-10,-10,-2,-1,-2,-8,-5
27778631053,0,3,6,6,5,2,-2,-2
27778652110,-8,-30,-24,-11,-7,-6,-2,-1
27778652110,5,25,18,6,6,2,4,4
27778653595,2,7,2,5,4,2,-3,-3
27778653595,-4,-3,11,6,1,-1,-1,-3
27778674554,2,19,-3,0,3,-1,-3,-3
27778674554,2,-6,-4,-4,-3,-2,5,4
27778676073,-2,-5,-6,-1,0,0,-6,-5
27778676073,-4,-11,-7,-9,-7,-5,-2,-5
27778688609,0,-4,2,-1,-1,-2,-1,-1
27778688609,-5,-16,-6,-1,-1,-3,-1,-1
27778697099,3,21,23,5,4,5,1,0
27778697099,1,-1,-1,1,2,1,-1,2
27778703245,1,4,3,-2,-2,-2,1,1
27778703245,-1,-3,-3,-3,-4,0,-1,1
27778712086,-6,-22,-28,-14,-9,-7,-6,-2
27778712086,0,9,7,5,1,0,-2,-3
27778726914,1,4,2,7,5,4,1,1
27778726914,-2,-11,-4,1,4,2,1,-1
27778728547,-2,1,4,2,-2,-3,-2,-2
27778728547,0,2,-1,0,-2,-3,-5,-1
27778749618,2,2,-4,-9,-7,-6,4,1
27778749618,-3,1,-23,-17,-9,-2,-2,-1
27778751106,-3,-2,6,11,3,-2,-3,-1
27778751106,5,4,-2,10,17,7,3,2
27778779733,1,5,24,14,7,2,0,2
27778779733,-3,-8,-8,-3,-2,0,-3,-2
27778781100,-3,-2,-7,-11,-7,-5,-7,-4
27778781100,-5,-24,-43,-18,-9,-5,-2,-1
27778787047,0,7,28,1,-1,-2,0,0
27778787047,0,-10,-28,-2,-1,-1,8,2
27778788554,2,3,28,16,5,0,-5,0
27778788554,4,42,71,12,-2,-2,0,0
27778809630,-3,-14,-22,-14,-2,3,-3,-1
27778809630,-2,4,3,-1,-5,-3,-5,-3
27778811077,-1,-8,-1,-3,0,-1,-3,0
27778811077,-1,-21,-54,-4,-2,-4,-7,-2
27778823232,4,40,80,17,3,6,3,2
27778823232,-4,-12,-14,-3,3,1,-16,-6
27778832084,2,-2,-8,-5,-4,3,31,9
27778832084,-4,-17,-17,-22,-12,-1,10,2
27778846182,-9,-33,-71,-20,-15,-11,-7,-5
27778846182,7,25,65,28,15,6,0,1
27778854585,2,9,10,0,0,-3,-7,-4
27778854585,1,5,14,6,5,6,-3,0
27778877181,-4,-14,-35,-12,-7,-5,-1,-2
27778877181,5,35,73,15,0,1,12,3
27778878580,-4,-20,-65,-14,-5,-5,-5,-2
27778878580,-3,15,27,-5,-8,-8,-2,-4
27778899540,-5,-15,-15,2,7,2,-8,-3
27778899540,-1,-24,-24,-11,-6,-3,-3,0
27778901097,0,-10,-30,10,11,7,6,3
27778901097,-3,-1,36,4,-4,-6,-6,-3
27778906374,0,20,19,-2,-3,-3,-4,-1
27778906374,-9,-15,-42,-13,-6,-7,-13,-11
27778913191,2,6,23,-4,-5,0,3,4
27778913191,3,-20,-27,1,4,7,17,7
27778929560,-5,-13,-29,-12,-6,-3,5,0
27778929560,-1,2,-7,-1,-3,-2,-3,-1
27778931065,-2,-7,-16,-7,-2,-1,-9,-6
27778931065,-5,-10,-42,-4,-2,-5,-10,-5
27778952121,8,13,48,20,9,5,5,3
27778952121,-4,5,-25,-5,-4,-2,2,-3
27778953597,-1,-7,-19,-3,2,8,9,3
27778953597,3,20,41,9,0,-5,-6,-2
27778974630,-1,-5,-7,-10,-2,1,-16,-5
27778974630,-5,-24,-30,5,4,4,26,7
27778975260,-1,8,47,-8,-8,-5,1,-2
27778975260,1,28,42,6,-4,-4,-5,-4
27778988876,-1,-5,-28,-4,0,-2,-11,-6
27778988876,6,5,9,9,5,5,7,7
27778989541,-6,3,29,5,-1,-5,-7,-3
27778989541,4,0,-13,15,14,15,8,4
27779011372,-15,-22,-38,-29,-22,-27,-19,-8
27779011372,-2,5,14,8,0,-6,-15,-5
27779012042,7,0,-14,10,17,8,-1,0
27779012042,0,5,-3,-9,-8,-4,-1,-1
27779027263,4,4,-15,5,8,12,23,7
27779027263,-1,11,65,9,-7,-5,4,-1
27779033892,-8,6,35,1,-10,-14,-20,-4
27779033892,3,-17,-44,-9,7,9,4,6
27779049033,5,4,-12,-4,0,7,16,5
27779049033,7,8,11,17,17,14,0,1
27779049568,-8,-11,-23,-10,-9,-15,-10,-9
27779049568,-4,-14,6,-1,-5,-4,-2,-4
27779079587,5,11,35,8,2,-2,-23,-6
27779079587,-1,-22,-93,-34,-3,8,22,5
27779080260,-5,16,81,35,2,-12,-21,-20
27779080260,-4,-17,-64,-43,-11,11,45,21
27779085638,-5,-19,-20,-7,-5,0,6,0
27779085638,6,18,52,15,5,1,-5,2
27779101277,3,-25,-90,-19,6,6,3,5
27779101277,9,51,93,22,5,-6,-12,-6
27779108776,-14,-15,21,12,-2,-11,-11,-10
27779108776,4,11,8,8,0,-3,-8,0
27779109573,-1,9,10,-11,-8,0,1,-1
27779109573,-8,-16,-18,-9,-10,-12,-17,-10
27779131264,9,5,-8,6,9,10,6,9
27779131264,-8,-4,4,-16,-16,-16,-8,-5
27779132047,2,-17,-20,1,5,18,21,7
27779132047,-3,3,-20,-10,-5,-10,-33,-7
27779154470,-2,-22,-30,3,-2,-2,3,-4
27779154470,-1,11,6,-10,-7,-4,14,1
27779155253,2,20,0,-12,-4,0,-1,2
27779155253,2,-6,-2,13,9,2,-9,-2
27779177140,-2,-28,-24,-6,1,20,27,11
27779177140,-4,16,71,20,-2,-9,-14,-6
27779177775,5,1,-45,-23,-2,7,7,4
27779177775,-5,-6,11,16,0,-12,-18,-16
27779191158,0,11,16,-3,-2,-5,0,5
27779191158,0,-24,-52,-20,-1,5,8,9
27779198969,4,-10,-23,7,12,8,10,4
27779198969,-1,7,9,10,-3,-9,-26,-6
27779205701,-5,4,9,0,-4,-1,16,-3
27779205701,1,3,-28,-15,-4,1,-6,-5
27779213919,-4,-15,19,18,-6,-8,2,7
27779213919,-6,-44,-60,-11,2,4,0,-3
27779228717,7,27,35,-4,-3,-3,6,9
27779228717,-11,-26,-67,-18,-5,-15,-37,-20
27779229517,4,19,36,9,-3,3,30,10
27779229517,-12,-25,-60,-34,-18,-5,4,-12
27779251834,3,18,40,28,9,-13,-40,-8
27779251834,-2,-6,-16,-10,0,-3,-8,-14
27779252492,-5,-13,-1,-9,-6,1,5,5
27779252492,-2,-13,-40,-25,-6,3,22,15
27779265668,11,27,25,15,6,8,14,1
27779265668,7,20,48,14,-2,-5,-12,3
27779281434,-6,-22,-34,3,4,-5,-22,-11
27779281434,5,-4,17,19,13,16,22,6
27779288904,-10,-33,-115,-58,-18,-13,-20,-7
27779288904,-6,-16,-5,9,5,3,-6,-1
27779289528,6,26,29,17,7,2,-6,-4
27779289528,-13,-24,-56,-37,-22,-25,-44,-16
27779311398,-5,-1,33,11,-2,-4,18,-2
27779311398,5,17,68,26,9,5,4,11
27779312101,2,-11,-56,-32,-7,-1,-4,-4
27779312101,10,21,54,38,22,31,48,21
27779325623,4,7,13,5,4,6,-3,-2
27779325623,-3,-2,-5,-12,-11,-15,-12,-12
27779333936,-2,-1,-5,-1,1,-11,-29,-26
27779333936,6,5,21,18,3,3,33,24
27779357197,-2,-2,-8,7,1,0,-13,-4
27779357197,-3,14,22,-9,-7,4,36,14
27779357760,0,1,-12,-9,-9,-8,-23,-15
27779357760,0,16,51,12,10,3,-11,-11
27779379591,-2,-12,-31,-9,0,0,-2,-4
27779379591,0,-3,-33,-5,1,1,-15,-4
27779380246,-13,-9,24,-12,-17,-23,-41,-7
27779380246,-11,-1,4,12,-3,-13,-13,-30
27779385697,1,7,70,22,0,19,60,36
27779385697,9,5,15,10,12,13,9,1
27779393916,-8,-8,-23,-28,-13,-2,13,3
27779393916,8,3,-10,-5,3,1,-22,3
27779409237,-9,-13,-74,-30,-9,-17,-57,-32
27779409237,-7,-34,-68,-4,6,19,54,12
27779409972,-8,-15,10,4,-14,-19,-2,-2
27779409972,1,29,-5,-33,-12,-5,-8,-4
27779431396,5,10,81,40,4,-4,4,0
27779431396,-9,4,38,22,7,-11,-44,-11
27779432066,8,5,15,28,19,19,33,12
27779432066,0,-15,-47,-14,-5,3,-6,8
27779455939,-5,-8,11,-7,-8,-1,32,-1
27779455939,7,45,52,0,-6,-10,-29,-5
27779456685,8,13,-41,-29,-1,8,13,10
27779456685,-6,10,97,61,14,8,41,1
27779476224,3,-3,-45,-14,-2,1,-13,0
27779476224,-3,-12,3,-1,-3,-11,-6,-4
27779483908,-4,6,-2,-20,-13,-11,-26,-12
27779483908,-6,-20,-40,-8,-2,3,4,3
27779491334,-2,5,35,24,11,-7,-33,-17
27779491334,2,-5,-44,-8,2,8,32,12
27779492022,-5,-1,-1,-10,-12,-4,-2,2
27779492022,-1,-20,-23,-16,-1,6,16,8
27779507083,9,57,98,36,11,4,2,7
27779507083,1,-15,-127,-84,-28,-19,-30,-11
27779513916,3,-9,44,56,26,12,-8,-7
27779513916,-7,-7,-14,-20,-14,-11,1,-5
27779528847,4,3,-5,7,12,6,9,6
27779528847,-11,-49,-76,-42,-18,-1,4,1
27779529541,4,33,17,13,8,2,1,3
27779529541,7,1,-63,-25,-9,-11,-18,-9
27779551831,6,-10,45,40,24,25,13,6
27779551831,-16,-33,13,9,-8,-20,-24,-17
27779558808,3,-3,0,-20,-6,11,39,17
27779558808,-6,26,58,15,3,-15,-18,-14
27779565669,6,-1,-5,-7,0,12,14,11
27779565669,7,19,41,30,14,8,-14,-7
27779581338,1,3,2,13,5,6,-2,0
27779581338,3,18,39,11,2,5,23,7
27779588902,-2,-3,-10,4,3,1,-15,-1
27779588902,-11,-35,-31,-11,-4,-7,-29,-9
27779589566,8,0,-50,-10,-1,10,39,17
27779589566,26,50,91,19,1,1,6,11
27779611406,-5,-20,-89,-29,-10,-3,4,-5
27779611406,9,-36,-58,-1,-5,-5,-1,1
27779612066,0,41,99,38,7,-8,-18,-11
27779612066,-15,-57,-104,-35,-2,0,-19,-6
27779635953,-8,-16,-46,-27,-19,-20,-4,3
27779635953,-3,21,32,11,4,9,20,6
27779636762,-11,-22,-38,-26,-8,-5,-11,-11
27779636762,3,-16,-11,7,-2,-6,-18,-4
27779657086,-3,34,2,-8,1,-6,-12,-7
27779657086,-11,-24,-37,-15,-9,11,43,4
27779657725,4,0,52,55,22,1,-33,-3
27779657725,-7,10,1,-12,-11,-6,-19,-8
27779671154,5,-11,-16,-19,-10,-2,28,10
27779671154,4,28,49,14,1,-6,-20,0
27779687017,7,-17,-59,-32,-3,21,33,7
27779687017,0,1,56,35,4,-11,-3,3
27779688614,-18,-26,-14,-17,-23,-28,-52,-30
27779688614,3,23,10,-11,-1,13,35,15
27779693951,1,-12,-7,-1,2,0,-2,5
27779693951,-12,-28,-83,-11,6,-2,-22,-13
27779708722,-1,-5,-13,13,4,1,9,1
27779708722,7,36,52,-2,-1,4,-7,-3
27779709495,-8,-16,0,-10,-7,-8,4,-1
27779709495,5,20,42,35,9,2,-9,-5
27779731013,-10,-23,-62,-27,-13,-21,-18,-14
27779731013,-2,1,-22,-2,1,9,14,1
27779738871,-10,-7,-19,-1,-8,-15,-22,3
27779738871,14,10,-7,-6,0,-1,-12,-1
27779745685,-4,-23,-27,22,19,16,-14,-5
27779745685,-2,5,8,-9,1,11,55,19
27779753875,9,8,10,14,2,-4,4,7
27779753875,-2,-18,2,-22,-4,17,31,11
27779768892,-2,5,7,25,10,-3,-23,-10
27779768892,6,20,60,36,15,-6,-31,-10
27779769561,-15,-56,-128,-55,-14,6,26,1
27779769561,14,31,65,17,4,4,2,8
27779791372,-7,-15,-20,-32,-24,-27,-13,-10
27779791372,1,33,56,12,-3,-6,-14,-2
27779792063,4,33,41,41,9,-9,-14,-7
27779792063,-6,0,-4,-25,-8,1,19,1
27779814520,1,8,24,7,6,4,-12,-2
27779814520,-5,-40,-38,-43,-26,-6,42,11
27779815217,-5,6,-27,-17,-10,-21,-34,-17
27779815217,-24,-32,-45,-15,4,14,1,6
27779837043,7,7,-13,-1,1,5,1,1
27779837043,19,-14,-59,-1,7,5,8,11
27779837768,4,22,76,30,0,2,-7,1
27779837768,-9,-3,-53,-39,-22,-23,-2,-17
27779859605,-6,12,13,-12,-9,0,11,8
27779859605,-5,21,80,47,17,-3,-39,-16
27779860277,4,11,-8,-29,-13,2,19,4
27779860277,8,-5,-49,-15,-1,-6,-15,-3
27779890769,-6,-2,76,40,3,5,13,2
27779890769,5,9,-48,-3,-3,-9,-14,-10
27779891551,-7,-11,-13,-17,-10,-1,-3,0
27779891551,-3,-49,-54,-29,-17,-4,29,11
27779893162,10,44,10,-9,10,5,-11,-1
27779893162,5,-3,33,34,17,5,17,9
27779912753,-19,-23,44,40,6,-10,-41,-19
27779912753,-2,-3,-27,-40,-24,0,16,-1
27779914217,-4,9,28,-20,-18,-6,12,4
27779914217,-12,-15,-10,-4,-9,-4,-16,-4
27779915062,5,28,34,-6,2,-9,-7,-6
27779915062,16,58,96,49,20,23,19,13
27779934570,-9,-55,-91,-36,-13,-14,-6,-5
27779934570,3,79,95,29,4,-2,-3,-5
27779935259,7,-9,-87,-29,3,22,41,16
27779935259,-11,-11,36,50,10,-18,-41,-19
27779948909,9,19,74,23,9,13,31,8
27779948909,-1,27,7,-7,-1,-7,-17,0
27779949635,1,-6,-17,-32,-13,-5,-10,-4
27779949635,15,34,28,37,17,6,7,6
27779972443,9,41,34,-18,-14,-16,-24,4
27779972443,-2,-17,-7,-8,3,30,63,18
27779973121,-6,-25,-31,-8,-9,-5,6,3
27779973121,-6,7,33,46,15,-6,-25,-18
27779994511,0,-17,-40,-5,0,-7,-13,-5
27779994511,-21,-54,-106,-40,-19,-23,-39,-21
27779995220,31,60,44,-2,4,17,34,21
27779995220,-13,-70,-74,-9,0,3,-3,7
27780009182,8,-4,-48,-2,3,7,29,6
27780009182,-8,-1,20,30,20,10,-2,-4
27780016419,-10,-32,-20,15,7,-1,-11,-11
27780016419,5,14,46,27,4,-4,2,4
27780039953,-17,-28,-78,-22,-4,0,-7,-6
27780039953,0,-26,-69,-17,-10,-20,-37,-8
27780040698,-2,24,92,37,7,9,0,-9
27780040698,3,-5,54,25,1,-2,23,11
27780061998,-14,-29,-90,-50,-13,10,9,0
27780061998,-5,-27,-12,4,0,-10,-11,-8
27780062789,-13,-21,-32,-13,-4,-2,-10,2
27780062789,12,24,-9,-35,-16,-6,-7,0
27780068868,15,40,107,55,19,8,-1,2
27780068868,4,12,6,-23,-15,-6,11,6
27780069541,-7,12,43,33,11,-4,-10,-8
27780069541,-5,-19,-71,-41,-5,9,10,4
27780092044,4,12,31,-3,-2,6,18,7
27780092044,3,-2,2,0,1,1,-12,-6
27780092755,-4,-18,-43,-17,-7,-7,0,-2
27780092755,-13,-5,-48,-22,-9,-18,-24,-11
27780114447,0,-13,-13,17,0,-24,-34,-11
27780114447,3,-27,-70,-41,-8,32,57,16
27780115187,1,-19,-27,-10,-1,-1,-13,-4
27780115187,11,45,54,25,13,8,-6,-2
27780128844,-12,-34,-96,-60,-32,-22,-20,-12
27780128844,3,-9,44,26,7,-6,-16,6
27780129528,-5,-36,-94,-30,-3,12,45,15
27780129528,9,44,64,-12,-4,2,-2,3
27780167087,-1,12,73,33,8,7,8,0
27780167087,1,-16,-36,-4,1,4,-3,0
27780167740,-2,-30,-63,2,11,1,-8,-9
27780167740,-3,41,77,25,-11,-33,-46,-16
27780174483,-1,-17,-32,-4,7,31,33,6
27780174483,3,-2,-43,-14,-5,3,30,11
27780175249,5,44,88,28,10,-3,-13,-3
27780175249,-15,-35,-59,-9,-8,-1,9,-11
27780188889,-1,3,27,1,2,-4,2,-3
27780188889,-7,-12,-40,-23,-13,-17,-21,-4
27780189567,3,8,12,2,4,10,19,4
27780189567,5,-16,-60,-29,-6,3,-1,0
27780211947,1,35,70,25,4,-9,-18,-4
27780211947,0,21,64,39,22,11,11,-5
27780212729,-5,-6,-5,-11,-13,-10,-17,0
27780212729,0,43,68,8,-3,-3,-8,-9
27780241921,-7,-62,-100,-37,-15,-2,6,2
27780241921,8,48,70,29,7,-16,-23,-8
27780242673,-1,6,5,0,6,7,9,0
27780242673,-3,-19,-5,-4,-1,15,16,6
27780248716,8,13,19,18,20,17,39,13
27780248716,-8,1,16,4,-10,-16,-31,-15
27780249495,6,10,17,15,7,14,29,15
27780249495,-10,-34,-11,-3,1,-3,-16,-6
27780272080,2,0,-15,3,-5,-14,-24,-5
27780272080,4,-32,-66,-38,-7,25,22,7
27780272720,-7,-12,-64,-3,-3,-13,-27,-9
27780272720,-12,-35,-79,-29,-9,2,31,5
27780294577,-6,-7,-9,5,2,-5,-25,-15
27780294577,-2,-6,6,-17,-6,-6,2,2
27780295238,-1,3,46,25,-2,-8,-7,-5
27780295238,1,11,12,-1,-3,-7,-22,-3
27780317049,1,5,-42,-39,-11,0,10,4
27780317049,0,9,12,27,14,-5,-26,-8
27780317725,-6,-8,-18,-33,-17,-13,-1,-6
27780317725,1,-17,-68,-8,-7,-17,1,-1
27780339566,4,14,10,34,19,22,36,20
27780339566,-11,-16,13,4,-9,-12,-13,-14
27780340229,5,43,79,36,12,5,1,9
27780340229,2,-7,-56,-28,1,10,26,9
27780354517,0,6,65,25,2,-8,-16,-6
27780354517,3,0,-36,-10,-6,-3,9,3
27780355244,-11,-27,-23,-11,-2,-12,-32,-19
27780355244,-5,-14,-28,7,2,1,10,1
27780368870,-3,3,-3,-1,-2,1,3,6
27780368870,-2,12,3,12,2,-4,-21,-10
27780369572,3,-6,-46,-29,-10,3,20,5
27780369572,2,34,73,22,4,-1,-25,-5
27780392742,-9,7,43,15,-2,-18,-30,-20
27780392742,-9,-36,-105,-41,-7,12,15,10
27780393565,11,24,70,31,12,8,3,2
27780393565,0,12,41,18,7,8,4,-3
27780413555,-1,-19,-39,-26,-4,6,9,2
27780413555,10,12,19,7,-3,-14,-12,2
27780421269,-10,1,30,4,-7,9,18,-5
27780421269,3,1,2,-13,-7,4,27,7
27780428085,13,17,2,17,5,-4,-11,3
27780428085,-9,-1,10,3,4,1,11,4
27780443730,1,0,-27,-13,-10,-8,-5,1
27780443730,-1,-3,-2,4,3,-6,-12,-6
27780467112,-9,-30,-100,-31,-16,-15,-35,-15
27780467112,0,-2,-12,-12,1,18,56,18
27780467769,-5,-35,-50,-17,-7,-12,-12,-3
27780467769,-3,34,18,25,12,5,-11,-5
27780474530,1,37,87,32,0,-13,-15,-3
27780474530,2,0,-15,0,-1,-7,-12,5
27780476164,-12,-24,-52,-9,2,4,-30,-27
27780476164,7,-28,-45,-23,-7,14,81,51
27780488340,-6,-12,-22,-28,-10,-2,0,-3
27780488340,3,9,69,64,28,12,-8,-9
27780496425,-1,35,26,-11,-9,-5,16,17
27780496425,-4,-38,-59,-11,-6,-12,-31,-12
27780519575,3,18,44,10,2,5,11,1
27780519575,-2,-29,-20,-11,-11,-8,-8,-7
27780520224,1,16,-66,-28,-4,-5,-15,-6
27780520224,0,-7,16,14,7,6,-11,-7
27780542074,-7,-17,-12,26,5,-3,8,1
27780542074,-6,-15,-39,-34,-13,-8,-23,-14
27780542816,10,-10,-21,12,4,-5,-9,1
27780542816,0,3,-24,-10,-3,4,4,-4
27780548197,-7,-31,-83,-31,-6,2,16,3
27780548197,1,33,53,7,-2,16,33,8
27780573410,2,-8,12,0,-8,-9,-1,-3
27780573410,4,10,-24,-35,-8,-19,-37,-7
27780574923,-2,3,55,20,2,-1,1,6
27780574923,-8,2,62,28,4,-11,-43,-17
27780595179,-2,-4,1,-20,-8,12,66,15
27780595179,2,20,36,20,5,-14,-32,-13
27780595941,-1,-7,-1,-19,-7,6,-4,-6
27780595941,3,-3,-47,-3,-5,-12,4,1
27780597480,0,19,28,14,13,20,18,10
27780597480,-6,35,127,51,10,-5,-11,-9
27780616978,10,0,-68,-25,-7,-1,11,8
27780616978,-12,-10,35,-9,-10,-12,-24,-17
27780618553,-3,-16,-22,4,-3,-17,-33,-11
27780618553,-6,-11,9,15,13,17,21,3
27780646952,1,13,62,4,-2,-5,0,1
27780646952,11,9,-35,4,13,14,8,12
27780648543,1,15,31,5,-8,-30,-65,-29
27780648543,0,-22,-38,-15,2,39,81,44
27780670180,-2,-11,-16,4,3,1,-23,-13
27780670180,4,1,-24,-10,2,10,58,25
27780671687,9,11,-18,-3,1,-5,-22,1
27780671687,-3,-5,19,14,5,-2,0,-8
27780672481,-1,-4,-38,-1,10,11,10,0
27780672481,2,-11,-29,-25,-12,-5,-4,-2
27780677107,-7,22,15,16,4,-1,-6,0
27780677107,-3,-34,-37,-5,-12,-17,-21,-12
27780699593,-3,-17,-28,-29,-9,-2,-5,1
27780699593,-3,7,-18,-4,-6,-29,-52,-21
27780701055,-8,-13,71,27,0,17,42,6
27780701055,-5,-45,-101,-46,-16,-10,-6,6
27780722053,9,69,127,76,27,17,22,3
27780722053,0,-24,-123,-60,-26,-8,3,9
27780723527,4,19,21,6,0,-9,-12,-2
27780723527,0,13,22,4,3,-6,-25,-20
27780745022,-2,-29,-81,-24,-3,4,9,7
27780745022,-1,-11,-53,-36,-7,2,-8,-13
27780746516,1,12,97,65,16,4,10,15
27780746516,5,50,71,14,5,8,12,4
27780751942,3,-19,-85,-48,-26,-19,-26,-8
27780751942,-12,-21,41,32,13,18,27,-6
27780753526,5,-19,-99,-43,-8,1,14,10
27780753526,-1,44,96,87,18,-5,-26,-15
27780774413,2,-4,-43,-9,0,10,23,7
27780774413,-3,-19,-45,-1,-3,-9,-46,-7
27780776026,-4,24,-22,-13,-8,-2,49,6
27780776026,6,5,64,35,16,16,10,4
27780796925,-5,-1,15,10,10,18,33,5
27780796925,-4,18,42,7,-4,-6,-14,0
27780798538,-6,-28,22,-17,-13,-19,-29,-11
27780798538,2,-19,-74,-30,-6,4,0,2
27780819397,-5,4,29,4,-3,-13,-15,-9
27780819397,4,5,36,15,8,12,11,0
27780821025,-1,-33,-66,-19,-5,-7,-52,-11
27780821025,0,26,16,1,-3,3,54,20
27780834491,-4,-20,-14,-14,-10,-13,-17,0
27780834491,-3,11,-2,-17,-10,1,18,4
27780836043,4,22,72,12,5,4,-7,-6
27780836043,-6,-46,-128,-74,-26,-15,-19,-8
27780857093,0,27,108,50,15,-2,-17,-7
27780857093,8,6,34,35,19,19,11,3
27780864583,-11,10,9,-20,-16,-16,-1,-8
27780864583,-3,-7,-16,-8,-10,-12,-32,-8
27780872058,-4,-23,-79,-46,-14,-8,-1,-2
27780872058,11,61,127,67,13,-11,-31,-27
27780873576,-1,-21,-45,5,13,27,29,20
27780873576,9,13,9,-7,4,16,44,24
27780894618,-2,-15,-51,-25,-14,-10,-13,0
27780894618,1,6,36,32,20,6,2,-4
27780896026,1,-30,-98,-52,-16,-2,0,1
27780896026,-7,6,45,23,6,-7,-33,-24
27780916709,12,51,82,53,12,3,5,6
27780916709,-10,-68,-102,-60,-14,-6,-1,2
27780924578,5,16,-40,-3,6,6,14,13
27780924578,-3,-35,-49,-1,7,3,-5,-6
27780931352,-8,4,102,39,13,-1,-20,-9
27780931352,-8,-2,-13,-17,-17,-17,6,4
27780945588,-9,-21,-2,-16,-11,-5,-13,-20
27780945588,1,11,-20,-32,-20,-17,-1,4
27780954539,-2,-5,-18,-11,-6,-7,-25,-12
27780954539,-3,9,-18,2,2,17,37,7
27780956061,-2,-19,7,5,2,-4,-15,11
27780956061,9,0,-29,3,10,17,27,9
27780976947,-5,-9,-32,-39,-18,-13,-20,-16
27780976947,-4,-9,-21,11,-1,-3,9,3
27780978532,-3,-14,-40,9,6,5,0,1
27780978532,-11,-20,-26,-1,-3,-13,-31,-15
27780999487,0,-24,-102,-47,-15,-1,11,6
27780999487,-5,-19,-35,-18,-8,0,1,1
27781001491,4,-30,-61,-12,6,5,5,-2
27781001491,-6,30,125,32,0,-9,-13,-5
27781021937,-4,-15,2,4,1,6,18,5
27781021937,3,9,19,5,3,-5,-14,0
27781023519,1,7,-20,9,6,-10,-62,-24
27781023519,0,-10,-29,-18,-6,5,36,19
27781037028,2,2,-6,-8,-5,0,10,0
27781037028,-1,-3,59,33,8,0,-13,-10
27781038497,8,24,19,15,9,17,56,25
27781038497,-5,-23,-44,-25,2,19,-7,1
27781051242,-4,27,25,13,-2,-27,-37,-19
27781051242,8,21,21,14,10,17,35,18
27781065612,-11,-21,-13,1,2,10,10,6
27781065612,-4,-39,-97,-77,-26,-17,-27,-10
27781074423,5,8,6,57,32,24,29,14
27781074423,-5,4,-39,-29,-18,-19,-30,-16
27781076094,9,8,-37,-25,-15,-7,3,-5
27781076094,6,17,54,26,6,0,0,0
27781096951,-9,-51,-26,-20,-9,-11,-27,-8
27781096951,-2,32,36,-2,-5,-21,-46,-19
27781098608,-7,-3,48,-9,-6,18,62,14
27781098608,-4,18,25,8,-12,-10,22,-3
27781111330,1,-2,-18,-15,-4,4,8,15
27781111330,11,-2,-18,2,5,10,15,10
27781118174,-13,16,62,11,-5,-23,-30,-16
27781118174,-1,-14,-12,-2,-8,-24,-53,-22
27781134487,11,34,64,29,18,31,51,13
27781134487,2,23,82,14,7,2,18,8
27781136038,8,14,26,22,9,-3,-25,3
27781136038,-7,-27,-66,-4,4,1,-12,-8
27781156911,0,31,26,-22,-19,-15,-7,1
27781156911,-7,-62,-108,-21,0,6,5,1
27781158504,-3,42,101,17,-4,-8,4,-9
27781158504,-2,-4,-5,41,21,3,-36,-23
27781171339,-4,-12,-51,-38,-16,-8,34,22
27781171339,13,20,-51,-24,-2,26,46,24
27781178094,-9,0,59,43,9,-15,-27,-13
27781178094,-19,-5,-35,-30,-13,-5,-46,-50
27781202050,23,20,73,39,26,32,69,67
27781202050,-13,-19,-75,-49,-32,-25,-27,-13
27781203548,4,-2,0,35,15,-9,-44,-15
27781203548,8,26,4,-8,2,15,38,23
27781224532,-17,-34,-58,-21,-12,-14,-43,-42
27781224532,-5,6,56,17,2,5,18,8
27781226033,6,-7,-80,-35,-8,-5,-10,-3
27781226033,-1,-18,-39,-19,-10,-17,-11,-3
27781230675,3,63,92,67,17,7,-6,-12
27781230675,-2,-35,-115,-58,-12,-9,-8,6
27781247009,-9,11,87,66,18,7,-18,-23
27781247009,5,1,-14,-5,-2,-3,13,21
27781254567,-7,-46,-82,-33,-3,6,29,8
27781254567,-10,6,39,14,-6,-17,-30,-21
27781256066,-3,-23,-23,-29,-16,-9,-3,-3
27781256066,7,-14,-52,-25,-5,9,42,18
27781276910,7,6,5,21,12,9,3,19
27781276910,-2,25,64,34,8,-3,-9,-9
27781278683,3,-20,-128,-85,-28,-5,-7,-5
27781278683,-13,-28,76,50,12,6,4,-4
27781299387,-9,-15,-31,-19,-9,-17,-33,-21
27781299387,-9,-26,-36,6,6,5,8,4
27781301011,8,27,13,-12,-3,7,14,10
27781301011,6,17,8,9,4,-4,-12,0
27781329541,4,20,46,14,4,0,-13,-12
27781329541,-8,-25,-58,-29,-6,-1,-2,-2
27781331028,5,-6,-57,10,15,1,-20,-3
27781331028,-2,2,41,1,-16,-23,-38,-10
27781337076,-5,-18,-1,7,7,30,80,30
27781337076,13,11,-36,-1,1,-9,-13,-13
27781338532,-7,2,43,18,10,21,40,17
27781338532,-1,-11,-62,-34,-13,-11,-45,-9
27781350618,18,29,29,18,15,24,49,22
27781350618,-5,-14,21,18,1,-2,-2,9
27781359558,1,-15,-42,-32,-12,2,23,6
27781359558,-2,-13,28,36,11,0,-8,2
27781374613,3,44,63,-1,-3,-11,-34,-19
27781374613,8,36,71,39,12,2,-25,-13
27781376045,-1,20,1,-3,3,5,23,12
27781376045,-6,-12,-44,-29,-6,5,20,8
27781397078,-10,-14,-51,-20,-12,-19,-42,-23
27781397078,1,0,41,21,7,5,-3,-4
27781398526,-4,-16,-59,-25,-22,-23,-31,-7
27781398526,13,36,78,36,16,14,29,3
27781410642,-12,20,67,84,17,-41,-93,-45
27781410642,8,25,32,-39,-5,42,68,50
27781427077,-12,-27,-25,-7,-14,-17,-3,-2
27781427077,1,8,-20,-15,-1,4,15,8
27781434490,-5,-27,-42,-19,-12,-26,-45,-25
27781434490,-3,4,20,10,-3,-18,-16,-13
27781436107,-6,2,19,2,1,12,17,-2
27781436107,2,-44,-74,-25,-1,-1,-5,11
27781457038,5,62,59,36,7,1,-11,-10
27781457038,-3,-18,-50,-8,-2,-6,-3,-2
27781458568,5,5,57,25,8,10,13,5
27781458568,-10,-17,-32,-9,-3,-7,-11,-12
27781470665,-6,-37,-97,-64,-19,3,-4,1
27781470665,-8,-5,-15,7,6,-7,-17,-10
27781479567,7,-19,-20,-6,-1,6,30,19
27781479567,2,40,100,30,2,1,1,-1
27781509625,-4,-17,-18,-11,0,5,16,9
27781509625,3,0,11,-2,-3,-7,-15,-10
27781511064,-4,-25,-28,-10,-1,-5,-24,-15
27781511064,6,8,-22,-2,4,4,13,9
27781524389,8,5,28,5,0,6,16,11
27781524389,-6,7,55,20,2,-2,-5,-6
27781526041,-1,12,8,1,4,3,6,1
27781526041,-3,0,-22,-13,-10,-4,2,-3
27781530556,-3,-15,-18,-10,0,-3,-14,-10
27781530556,-2,-15,-23,-11,-6,-4,0,3
27781547062,6,17,19,19,5,1,-3,4
27781547062,-1,45,31,-5,-1,1,6,0
27781554478,-7,-47,-52,-14,-6,-7,-11,-7
27781554478,0,15,21,0,4,8,19,5
27781556029,5,-3,-38,-30,-11,-8,-10,-10
27781556029,3,11,37,18,6,-9,-52,-16
27781577091,-16,-52,-27,7,12,24,72,32
27781577091,27,8,-7,-3,-11,-5,12,8
27781578507,0,39,37,3,-4,-13,-28,-5
27781578507,2,8,-1,-3,2,6,15,4
27781590643,-5,-16,-20,-9,-7,-8,-21,-9
27781590643,-6,-36,-37,-12,-2,-2,-2,-4
27781599583,-12,-20,-14,-5,-1,-5,-10,-8
27781599583,-1,19,31,11,-3,-5,5,0
27781614430,1,-6,-15,-16,-3,2,0,1
27781614430,-3,6,-1,6,4,-3,-13,-6
27781616061,4,-9,2,1,0,0,2,-3
27781616061,-9,-5,7,9,3,4,9,1
27781636941,2,3,-12,-16,-10,-4,-3,-3
27781636941,0,8,10,3,1,0,-5,-9
27781638662,-9,-6,17,15,7,0,-7,-7
27781638662,0,-28,-16,-6,-1,1,12,14
27781650666,7,7,-6,-10,-5,-2,-4,5
27781650666,-2,22,23,8,1,-2,1,1
27781659534,-5,-8,4,3,-2,1,4,0
27781659534,-3,-8,-7,3,2,-3,-7,-10
27781674484,-1,-4,-14,-12,-6,-5,-9,-7
27781674484,-3,16,17,6,3,1,0,3
27781676000,3,-3,3,3,0,-1,3,-3
27781676000,-2,-2,-7,-6,-4,-3,1,-4
27781696004,2,0,0,1,2,1,-1,-2
27781696004,-7,-7,-2,-2,-2,-4,-6,-1
27781704555,-3,-13,1,2,1,4,7,2
27781704555,1,11,1,5,2,-2,-6,-6
27781719450,1,1,13,-1,-2,6,8,4
27781719450,-4,1,-5,-5,-4,0,0,-2
27781720990,3,8,6,4,0,-2,-6,0
27781720990,-7,-14,-11,-7,-3,1,1,-2
27781734508,-5,1,-6,-6,-6,-6,-8,-6
27781734508,6,-9,-4,3,3,1,-2,3
27781736043,1,30,12,1,-1,0,0,0
27781736043,-5,-11,-8,-2,-2,-1,4,0
27781756912,0,14,6,3,2,-1,-3,-3
27781756912,-4,-13,2,-2,-4,-2,0,0
27781758489,-3,-7,-4,-1,1,1,1,0
27781758489,3,15,11,2,-1,0,1,1
27781779549,-2,-3,-2,-2,-4,-4,-7,-2
27781779549,-6,-28,-25,-8,-3,0,-2,-2
27781781001,2,19,10,3,2,-1,0,-1
27781781001,1,-4,-1,-6,-3,-1,-2,-11
27781802026,-2,6,15,9,1,-1,2,9
27781802026,7,4,-9,-6,-3,-1,0,1
27781803566,4,-7,8,3,0,-2,-5,-1
27781803566,2,6,-6,-4,-2,-4,-4,3
27781824374,-3,-14,-10,-5,-1,2,-4,-15
27781824374,-15,-1,9,0,0,3,8,5
27781825982,-6,-5,-4,1,1,2,4,4
27781825982,-4,-22,-11,-3,-2,-1,-2,-2
27781839533,-1,5,-2,-3,-3,-6,-7,-4
27781839533,2,9,5,3,1,-4,-4,-2
27781841008,2,-7,-2,-1,-1,1,-1,-1
27781841008,1,-3,2,2,-2,-2,1,2
27781853732,-5,-16,-10,-1,0,0,-2,-7
27781853732,-6,-9,-7,-4,0,-1,1,3
27781860674,-2,-5,2,5,2,-1,0,0
27781860674,9,38,19,4,0,0,-2,0
27781876946,-1,-1,-4,-1,0,-1,-2,0
27781876946,-2,-15,-7,-4,-5,-3,-3,-4
27781878517,-7,-1,7,-2,1,1,0,-3
27781878517,-7,-22,-16,-5,-2,-1,0,0
27781899439,4,18,4,-7,-1,-1,0,-4
27781899439,-3,-3,-8,0,0,-1,-1,-4
27781905711,2,8,0,0,-2,-2,0,2
27781905711,-1,-9,-6,-1,-1,0,2,-3
27781914516,3,8,2,1,0,0,-3,1
27781914516,-5,6,-1,-1,-3,-3,-6,-7
27781929663,2,-13,-7,-1,-2,-2,-5,-4
27781929663,-5,6,10,4,2,4,7,11
27781936936,-1,-12,-8,-4,0,2,3,-4
27781936936,-3,3,0,2,0,0,0,3
27781938573,3,19,8,0,-1,-1,-1,-2
27781938573,-1,-2,-2,-2,-2,1,-4,-2
27781959574,-2,-17,-10,-2,-2,-2,-3,-1
27781959574,4,-8,-1,-3,-2,-2,-3,-2
27781961001,-4,20,-3,0,1,0,0,-1
27781961001,0,-18,-11,-3,-5,-2,-2,-2
27781982069,0,24,13,-7,-7,-5,-2,2
27781982069,4,2,8,11,6,7,3,0
27781983494,-4,-16,-7,-3,-3,-4,-1,1
27781983494,-7,-5,-1,0,-1,-1,0,-4
27782004538,4,0,-5,2,2,2,0,0
27782004538,1,-1,-2,-6,-3,-4,-2,1
27782006061,-4,-13,-9,-6,-3,-1,-1,-5
27782006061,5,16,10,2,0,0,1,3
27782019546,-6,-5,-2,-4,-2,-2,-1,0
27782019546,-1,-17,-1,2,0,-1,-1,1
27782021029,7,27,1,-2,-2,-2,-1,0
27782021029,-5,-7,1,-2,0,-2,0,-1
27782033152,-2,-9,-7,-3,-1,-3,-3,0
27782033152,5,6,-6,-7,-3,1,0,-2
27782042053,-5,-10,5,6,0,0,0,-1
27782042053,-5,-7,-14,-5,-1,-1,-4,-3
27782056975,-5,2,9,8,4,2,2,2
27782056975,2,12,11,0,1,-2,-2,-1
27782058496,8,-1,-8,-6,-4,-3,1,3
27782058496,-6,-13,1,1,1,-2,0,0
27782079440,4,9,-5,1,1,1,-1,1
27782079440,-4,4,0,0,-2,-4,-2,-1
27782080976,-7,-10,1,0,0,2,1,-2
27782080976,-3,-10,-6,-5,-1,-1,-2,-2
27782102494,-1,-10,-6,0,-3,-5,-4,-2
27782102494,5,28,13,7,4,4,0,4
27782103989,-15,-12,-9,-3,0,-1,-3,-9
27782103989,7,-2,0,1,-1,-1,1,3
27782116981,3,-2,-1,1,0,-2,-1,0
27782116981,-3,-3,-10,-8,-6,-2,0,-3
27782118497,-5,-14,0,2,2,-3,-4,-6
27782118497,0,5,-8,-7,-3,1,3,3
27782139675,3,7,3,-4,-4,-1,2,1
27782139675,3,-14,-2,1,1,-2,0,0
27782141034,-4,2,-4,-5,-4,-4,-3,2
27782141034,3,6,6,4,3,-3,-2,-4
27782153168,0,-3,-2,0,1,1,-2,-1
27782153168,-4,-10,-3,-1,0,-1,-2,0
27782162071,0,4,-3,-2,0,2,2,-4
27782162071,0,-6,-6,-4,-4,-3,-5,-5
27782184493,-5,7,6,0,-2,-1,-2,2
27782184493,-2,-11,-2,-2,3,3,2,-2
27782185977,3,17,-6,-5,0,1,-1,3
27782185977,5,6,20,15,4,3,0,2
27782207198,-5,-3,-9,-7,-3,-3,-3,-5
27782207198,1,-2,-5,-6,-5,-4,-3,-2
27782208504,1,-9,-7,-5,-3,1,1,2
27782208504,-4,8,4,7,3,0,-1,-3
27782213149,1,-9,-4,-3,-1,-1,-1,0
27782213149,-3,3,7,4,0,1,0,-1
27782229532,3,-7,-7,-1,-3,-5,-2,1
27782229532,2,8,-2,-5,-1,-2,0,-1
27782236974,-2,-2,3,3,2,2,3,1
27782236974,2,-8,-12,-3,-3,-2,-2,0
27782238484,-6,-3,10,4,1,0,-1,0
27782238484,-2,11,-1,-4,-4,-3,-3,-3
27782259344,2,4,1,0,0,0,-1,-1
27782259344,4,4,-1,0,-1,-1,0,2
27782260948,-1,-11,0,2,-1,-2,-3,0
27782260948,1,5,1,-4,-1,-2,-1,2
27782273018,-6,-14,-4,-4,0,0,-2,-4
27782273018,-3,15,4,0,-2,-3,-2,-5
27782282081,1,-2,1,-3,-3,-1,-2,-4
27782282081,1,-3,-4,1,-2,1,1,6
27782304496,-5,-4,1,-1,-1,0,0,-6
27782304496,-3,-4,7,5,1,0,-1,-2
27782306011,3,-5,1,-2,-2,-3,0,3
27782306011,-6,3,-5,-6,-1,1,-1,-2
27782319559,-3,0,-3,1,-1,-2,-1,-1
27782319559,-3,-7,-4,-7,-5,-3,-2,-3
27782321028,4,18,9,1,0,2,-1,1
27782321028,-2,-15,-10,-4,-1,1,0,-4
27782333650,-4,1,3,1,-1,-2,-2,-1
27782333650,3,5,1,2,1,1,1,-1
27782342007,1,-4,-3,1,-2,0,-3,1
27782342007,-3,-5,0,-3,-4,-3,-1,-2
27782357001,-1,-7,-7,-2,-1,-2,-1,-1
27782357001,-10,-10,-6,-5,-2,-2,-2,-3
27782358528,3,10,8,3,0,-1,1,1
27782358528,1,-3,-2,-1,-1,-1,-1,-1
27782379548,3,12,2,-1,-2,-1,0,2
27782379548,-3,2,2,-2,-1,-2,-2,0
27782381310,-3,-18,-13,-3,-1,0,0,-2
27782381310,0,4,2,0,-3,-3,-2,-3
27782393082,0,-15,-1,4,3,2,2,1
27782393082,-2,-8,-14,0,3,3,1,1
27782409728,2,35,24,3,0,0,1,-1
27782409728,-3,-6,2,3,2,-1,-2,-1
27782417082,-3,-1,-2,-10,-8,-3,-1,-3
27782417082,4,5,-1,-1,0,-3,-3,0
27782418480,-6,-14,-9,0,0,-1,-1,-2
27782418480,-1,-6,-8,-5,-4,-2,-1,0
27782439528,2,3,-1,-1,-2,-3,0,1
27782439528,-6,5,4,0,-2,0,-1,-4
27782440982,2,0,-4,-4,-2,-1,-2,-1
27782440982,-8,-26,-7,2,1,0,-2,-2
27782461966,-1,5,-5,-1,-1,-1,-1,-1
27782461966,0,-4,-3,0,-2,-2,0,0
27782463521,0,6,15,6,2,0,-1,0
27782463521,0,2,-1,-2,-1,0,0,-2
27782476710,-4,-6,-3,-1,-1,-2,-2,-2
27782476710,-5,-15,-11,-6,-4,-2,0,-2
27782483142,1,1,11,7,2,-2,-2,-1
27782483142,2,15,8,1,1,0,1,1
27782498589,0,-3,-2,-3,-3,-3,-2,0
27782498589,1,8,1,2,3,0,-1,-1
27782507055,-7,-21,-14,-4,-1,-3,-3,-3
27782507055,2,9,7,2,-1,0,-1,-2
27782513148,3,1,-7,-5,-4,0,1,2
27782513148,-2,0,6,1,-2,-2,-4,-2
27782522050,-6,-20,-12,-3,-1,2,1,-1
27782522050,3,28,7,-2,-3,-1,0,0
27782536374,-3,-19,-11,0,2,0,0,0
27782536374,8,25,14,0,-3,-1,-2,0
27782543188,-4,-2,-4,-3,-3,0,0,0
27782543188,-6,-23,-12,-2,0,-1,-3,-5
27782559445,0,13,3,-2,-1,-1,-3,-1
27782559445,0,4,-3,-1,0,-1,-2,-1
27782560975,0,-5,-5,-3,-2,-1,-1,0
27782560975,2,4,-1,-3,-1,1,1,1
27782573199,-2,1,5,2,0,-2,-1,-3
27782573199,-4,-15,0,0,0,0,0,0
27782582036,-1,5,-4,-3,-2,-1,-2,-2
27782582036,-1,-6,-6,-9,-5,-3,-3,0
27782596349,0,0,1,4,3,2,1,0
27782596349,1,1,7,0,-2,-2,0,1
27782603170,-5,-6,-13,-1,0,1,0,-3
27782603170,4,18,7,0,-3,-1,-2,0
27782619494,-1,-7,-2,-2,-3,-5,-3,-1
27782619494,-1,2,1,0,0,1,3,0
27782620970,0,-13,-6,-6,-3,-2,-2,-2
27782620970,-7,-7,-3,2,2,0,0,-2
27782641991,-1,7,2,0,-1,0,0,0
27782641991,0,2,-2,-5,-3,-1,-1,-4
27782643653,-2,4,1,0,-2,-1,-1,1
27782643653,-1,-10,-8,1,0,-2,0,0
27782656376,-1,-4,-5,-3,0,0,0,-2
27782656376,-3,9,0,-4,-3,-3,-1,-2
27782663185,1,-5,-1,2,-3,-5,-3,-1
27782663185,2,12,13,5,2,2,2,1
27782687151,-1,-1,2,4,2,2,0,-1
27782687151,-3,-18,-12,-5,-1,1,0,0
27782688532,-2,-1,-2,-8,-4,-1,-2,0
27782688532,2,-9,-5,7,3,2,-1,2
27782709518,-2,-7,5,1,1,2,-1,0
27782709518,1,25,4,-2,-2,-1,-1,0
27782711008,1,2,4,1,3,3,2,0
27782711008,-9,-16,-12,-6,-3,-5,-5,-7
27782716340,10,22,12,2,-2,-1,1,2
27782716340,-1,-11,-5,-1,-2,0,-1,0
27782723164,-3,0,-1,-2,-3,-3,-2,-2
27782723164,-4,-1,0,-1,0,0,-1,-3
27782739490,-3,-5,-8,-4,0,-2,-1,-3
27782739490,-3,-6,-5,0,-1,-4,-3,0
27782741020,0,-9,-2,-4,-2,0,0,0
27782741020,-2,12,9,1,0,0,2,-1
27782762053,-4,0,3,-1,-1,-2,-1,-3
27782762053,7,17,5,1,1,0,2,2
27782763496,-5,-15,-10,-3,-2,-3,0,-3
27782763496,1,4,-6,-1,-1,-2,-1,0
27782776330,-2,3,4,1,-2,0,0,-3
27782776330,0,2,9,6,4,-1,-1,-2
27782783112,-4,1,2,-1,1,1,2,0
27782783112,2,-7,-7,-6,-3,-2,-2,0
27782799533,3,1,-1,-2,-2,-1,-1,-1
27782799533,-6,-18,-9,-2,-2,1,0,-2
27782801013,-2,4,2,4,2,0,-1,0
27782801013,1,6,7,1,0,0,0,-1
27782822040,-8,-10,-8,-3,-1,-1,-1,-1
27782822040,-3,11,6,0,-3,-3,-3,-2
27782823548,4,5,-1,-3,-2,0,-1,1
27782823548,-4,-3,1,-3,-2,-2,-2,-1
27782835616,2,7,2,-1,-4,-5,-3,-2
27782835616,-4,-14,-5,-1,1,3,0,-1
27782844477,0,-3,-1,1,0,0,-1,-1
27782844477,-4,-8,1,0,1,0,1,1
27782859501,1,-6,-5,-3,-3,0,-1,1
27782859501,-3,-6,-9,-2,-3,-3,-3,-4
27782861141,2,23,9,3,1,1,2,0
27782861141,3,16,15,5,0,-1,-3,-2
27782881943,-5,-10,-4,1,1,0,2,-3
27782881943,0,-16,-9,-7,-3,-1,-1,1
27782883510,0,1,0,-1,-1,0,1,-1
27782883510,-3,-9,-9,-5,-5,-1,-3,-2
27782895676,-3,7,6,3,0,1,-2,0
27782895676,1,9,1,-3,-2,-3,-2,0
27782912062,2,-2,2,1,1,0,0,0
27782912062,7,-8,-3,0,1,-1,1,3
27782919413,-1,-1,-3,-5,-3,-2,-1,-2
27782919413,0,-8,-3,1,-1,-1,0,1
27782920983,-3,-1,-4,-2,-1,0,-2,-1
27782920983,-1,-5,-7,-3,-2,-3,-1,-2
27782942018,-4,-2,3,0,-1,-2,-2,-3
27782942018,-1,-9,-2,0,-1,2,-1,0
27782943506,4,-4,-1,0,-2,-1,-3,2
27782943506,-4,14,5,1,-1,0,1,-4
27782955570,2,-1,-2,-2,0,-2,-1,-1
27782955570,-4,-10,-9,0,-2,-1,1,-2
27782964540,-3,-14,-5,-3,-3,-4,-4,-3
27782964540,2,21,3,0,0,0,-2,-2
27782986999,-3,2,2,3,1,0,1,1
27782986999,1,5,3,-1,-1,-1,-1,0
27782988538,-2,-8,-8,-6,-3,-3,0,-3
27782988538,-6,-16,-10,-3,-2,-1,-1,-4
27783002024,2,6,1,-2,-1,-1,-2,0
27783002024,3,3,1,0,-1,-2,-1,1
27783003567,-5,-3,-4,-3,-1,-2,-3,-1
27783003567,-3,-9,-4,-3,-2,-2,-1,-1
27783015549,-1,-10,-12,-3,0,2,-1,-2
27783015549,-2,4,2,0,0,1,0,-2
27783024536,6,7,16,3,1,-1,1,1
27783024536,0,2,5,2,0,-1,-2,-1
27783039501,-9,-6,-5,-5,-4,-1,2,-1
27783039501,-1,-1,-8,-5,-3,-2,-1,-2
27783041008,3,2,5,5,0,-1,-1,0
27783041008,-8,-12,-6,-1,0,0,2,3
27783062019,3,3,2,-1,-1,-2,-3,0
27783062019,-4,-7,-2,-2,1,-2,0,-3
27783063470,-3,1,-6,-2,-3,-1,0,-3
27783063470,0,-3,-2,-1,-1,-1,-3,0
27783075655,-1,-2,-3,-1,0,-1,-2,-2
27783075655,-5,-13,-2,-4,-3,1,-2,-3
27783084563,2,14,1,-1,1,0,-2,-1
27783084563,0,-1,3,0,0,0,0,0
27783099520,-1,-5,-4,-3,-1,-1,-1,-2
27783099520,3,3,4,3,0,-1,1,5
27783101055,-2,0,-8,-5,-4,-3,-2,-5
27783101055,-2,-7,2,-4,-5,-2,-3,-2
27783122013,0,-2,-2,0,-2,0,-2,-1
27783122013,0,0,2,1,1,-2,-1,-1
27783123481,0,1,-2,-1,-1,0,0,0
27783123481,-4,-12,-13,-6,-3,-3,-1,-1
27783135587,1,4,4,0,-2,-1,0,-1
27783135587,-1,5,3,1,2,4,0,0
27783144518,-5,-24,-7,-2,1,-1,-1,0
27783144518,3,16,2,1,-1,-1,1,-1
27783159538,-3,-5,-3,-1,-1,-3,0,-1
27783159538,-1,5,2,-2,-2,-2,-4,-1
27783161067,-2,-2,-4,-2,0,-2,-1,-2
27783161067,-4,-14,-1,-2,-1,1,-2,2
27783181953,2,3,3,0,-2,0,-2,-2
27783181953,-1,3,1,-1,-2,-1,-2,-1
27783183503,-2,-2,-2,-1,-2,1,0,0
27783183503,-2,-5,-3,0,-2,-2,-1,-3
27783195716,-1,2,-5,-3,-2,-1,-1,-1
27783195716,1,-3,0,-1,-1,-2,0,-2
27783204510,-4,-2,1,2,1,3,2,1
27783204510,0,1,-2,1,-1,-1,0,1
27783219464,1,-4,-2,-1,0,-1,-1,-1
27783219464,-1,-2,-3,-2,-1,-1,-1,-1
27783220986,0,8,3,-3,-4,-5,-2,-1
27783220986,0,-7,-5,-1,-1,1,0,0
27783242015,0,13,10,2,1,0,-1,-1
27783242015,-1,-3,-2,0,-3,-1,-1,0
27783243508,0,1,0,0,1,-1,-1,0
27783243508,-2,3,-5,-1,-1,0,-1,-3
27783255624,-3,-2,-2,-4,-2,0,-3,1
27783255624,0,3,3,1,-1,-3,0,0
27783264537,-2,0,-1,-2,1,0,0,0
27783264537,0,-9,-10,-2,-3,1,1,-1
27783279532,-1,-1,3,1,-1,0,1,0
27783279532,0,-5,-4,-2,-1,-1,0,0
27783281012,0,-13,-4,-1,-2,-1,-1,-2
27783281012,5,15,1,-1,0,-2,-1,0
27783301930,-6,-1,-4,-1,-2,-3,-2,0
27783301930,0,2,2,-1,-2,-2,-1,-2
27783303502,3,12,9,2,0,-2,-1,-1
27783303502,-3,-10,-2,0,-1,-1,-2,-2
27783316171,-2,-4,-9,-2,0,0,0,0
27783316171,0,-1,-1,0,-3,0,-3,-2
27783324780,-3,-5,-5,-2,-1,-2,-1,-2
27783324780,-3,-1,2,1,0,0,-1,-1
27783339394,-1,-4,-1,-1,-1,-1,0,0
27783339394,-2,-5,-5,0,-2,-2,1,0
27783340982,1,10,2,-1,-2,-1,0,0
27783340982,-4,-10,-2,-1,-1,-1,0,0
27783361996,2,19,10,1,0,-1,-2,-2
27783361996,-1,5,3,-1,0,-1,1,3
27783363451,0,-7,-5,-1,-1,-1,-1,0
27783363451,1,8,3,-1,-3,-2,-2,-3
27783375648,3,-8,-4,-2,-1,-1,0,1
27783375648,0,-6,-5,-4,-1,-1,0,-2
27783384560,-1,13,5,1,1,0,-2,-1
27783384560,-2,-12,-4,-3,0,-1,-1,0
27783399519,-6,-10,-6,-1,-1,-1,-1,-2
27783399519,1,3,2,0,0,0,-1,1
27783401010,-2,-4,-8,-3,-3,-2,-4,-5
27783401010,-1,7,6,0,0,1,-1,-4
27783421947,0,-5,-2,-1,-2,0,-1,-1
27783421947,-2,-3,-3,-1,0,-1,-2,-3
27783423443,-2,-7,-4,-1,-3,1,-1,1
27783423443,0,1,0,-2,0,0,-1,0
27783444497,-1,1,2,1,1,0,-1,-1
27783444497,-3,-3,-3,-2,-1,0,-1,-1
27783446007,-4,-1,2,3,0,0,-1,-1
27783446007,-2,2,0,1,-1,-3,1,-1
27783459541,2,4,0,-2,-2,-2,0,-1
27783459541,-3,-9,-9,-2,-2,-3,-2,-2
27783460995,-3,-10,-2,-2,0,0,0,2
27783460995,0,13,6,3,0,2,0,0
27783481939,-7,-24,-11,-3,-2,0,0,-1
27783481939,4,25,14,5,0,2,1,1
27783483464,2,7,-1,-1,-1,-3,0,1
27783483464,-3,-8,-1,0,0,-1,-1,-1
27783496125,-2,-4,-4,0,-1,1,-1,-1
27783496125,-1,-5,-3,-3,-2,-2,0,-2
27783504551,-2,-2,-5,-2,-1,2,0,0
27783504551,-2,-10,-7,-2,-1,0,0,0
27783519628,2,4,1,1,-1,0,1,-4
27783519628,-4,-2,-2,-2,0,-1,-1,-1
27783521001,-3,3,6,3,0,0,0,-1
27783521001,1,-6,-5,-3,-1,-3,-2,-3
27783542047,0,1,0,-2,-1,-2,0,-1
27783542047,0,-1,0,-1,-1,-1,0,0
27783543470,-1,-4,-6,-4,-1,-1,-2,0
27783543470,-6,-26,-13,-2,-2,0,-1,-1
27783572123,4,29,14,5,1,1,1,0
27783572123,3,-1,-2,0,-1,-1,-1,1
27783573485,-9,2,0,-2,-2,-2,-2,-2
27783573485,-1,-6,-4,-2,-2,-2,-3,-6
27783579476,1,-11,-8,0,-1,-1,-2,0
27783579476,-7,-9,-4,-4,-1,0,-3,-2
27783580998,-1,3,1,-1,-2,-1,-1,-1
27783580998,0,-1,-4,-1,-1,0,2,1
27783601871,-1,0,2,-1,0,-1,-2,-2
27783601871,2,12,9,1,0,1,-1,0
27783603472,1,-6,-4,0,0,-1,-1,1
27783603472,-1,4,5,0,-1,0,0,-1
27783624517,1,7,-4,-2,-1,-3,0,1
27783624517,-1,-8,-5,-1,-1,0,-1,1
27783626004,-4,0,0,-1,1,-2,-1,-3
27783626004,-1,4,2,1,-2,0,0,0
27783647134,-2,-6,-5,-1,-2,-1,-2,1
27783647134,1,-4,-4,1,0,-2,1,-1
27783648504,1,2,-1,0,-1,0,2,-1
27783648504,1,5,3,0,1,-3,-2,2
