27862760476,1,-3,0,0,0,0,1,7
27862760476,-1,1,0,0,0,-2,0,1
27862761325,0,0,0,0,1,-1,1,0
27862761325,0,0,0,0,-2,-1,-1,-2
27862763315,-2,-4,-2,-1,-1,-1,0,-3
27862763315,-2,-6,-8,-3,-2,0,-3,-11
27862764907,-1,11,8,1,-1,0,0,5
27862764907,-1,-2,-2,-1,0,-1,-1,3
27862770666,-3,1,1,0,-1,-1,-2,-4
27862770666,-1,-3,-2,0,1,-1,0,0
27862778376,-1,0,-3,-2,-2,-2,-4,-5
27862778376,-1,-2,-2,-1,-2,0,-1,0
27862791810,2,2,0,-2,-2,-2,-2,-2
27862791810,-2,-2,0,-2,-1,0,0,4
27862803275,0,-6,-6,-1,-2,-1,-2,-1
27862803275,0,1,2,0,-1,-3,-1,-8
27862806837,2,-2,-2,-1,0,-1,-1,3
27862806837,-4,0,1,0,-3,-1,1,4
27862831070,5,0,-1,-2,-2,1,0,-2
27862831070,-4,1,0,-1,-1,-1,-2,6
27862831875,-3,-3,-4,-1,-3,-1,0,-3
27862831875,3,0,3,0,1,-3,-1,0
27862870171,0,6,1,0,-2,-1,-1,-3
27862870171,-2,-1,-2,-2,-1,-1,-1,-1
27862870977,-1,1,-3,-1,-2,-3,0,-1
27862870977,0,-3,-2,-2,-2,-2,-2,-1
27862871820,-1,-3,-2,1,1,1,0,-2
27862871820,-4,-1,-1,0,-1,-2,-2,-3
27862875049,0,-2,-2,0,-3,1,-2,0
27862875049,-2,1,0,0,-1,-1,0,-2
27862881746,0,0,-1,-2,-2,-2,1,-1
27862881746,0,-3,-5,-1,-2,-1,0,-3
27862889330,-5,1,5,-1,-2,-1,-1,-6
27862889330,2,-2,-1,0,0,-1,-1,-1
27862898137,-1,-4,-1,-1,0,-3,-3,1
27862898137,-2,-1,-2,-2,-2,-2,-2,-7
27862911821,1,-3,-2,-1,-1,1,3,7
27862911821,-1,0,-3,-1,0,2,-1,2
27862920692,-2,-7,0,0,2,1,1,-6
27862920692,4,9,1,1,-1,0,-1,-1
27862943138,2,-3,-3,0,-1,-1,-2,-1
27862943138,-3,2,4,-2,-1,-1,0,1
27862944622,2,1,-2,-2,0,0,-1,4
27862944622,-6,-4,0,-2,-2,-1,-1,1
27862957477,2,0,3,0,1,1,-1,-3
27862957477,-2,-4,-6,-1,-1,-1,2,0
27862964300,-1,0,1,-1,0,0,-2,0
27862964300,1,0,1,1,0,1,0,0
27862980486,1,4,2,-3,-1,-2,-2,2
27862980486,-3,-2,-2,-3,1,-1,-2,-3
27862982061,-2,0,-2,-1,-2,-2,-1,-1
27862982061,2,-2,1,1,-1,0,0,2
27863002161,-2,-3,-3,-2,0,1,-1,-4
27863002161,-1,1,0,-1,0,-1,-1,-3
27863010685,-3,0,-1,0,-1,0,-1,-1
27863010685,0,-6,-2,-3,-1,0,0,2
27863016797,0,2,-3,-1,0,-2,-1,-2
27863016797,-1,-2,3,2,-2,0,-2,-1
27863025691,1,4,2,0,-3,-1,0,-1
27863025691,-1,1,3,0,2,0,-1,-1
27863040779,-2,-5,-4,-2,-2,-1,-2,-1
27863040779,-1,-3,-5,-2,-1,1,-1,-1
27863042136,-3,-5,-10,-11,-5,-2,-1,0
27863042136,-1,4,12,8,-3,-6,-4,-2
27863063179,-2,1,3,8,5,3,0,-1
27863063179,1,1,-6,-7,-5,-2,-1,0
27863064603,0,2,1,0,-2,-4,-4,0
27863064603,-6,-7,-13,-14,-2,-3,0,-1
27863077517,-5,-5,-7,0,1,0,0,-1
27863077517,1,9,35,34,16,2,1,-1
27863084299,-2,-5,-8,-3,1,1,0,-1
27863084299,0,-8,-9,-3,0,1,0,1
27863100523,-3,0,-17,-23,-15,-10,-5,-4
27863100523,-1,-1,13,2,-4,-3,-1,-2
27863102126,-2,-7,-27,-12,-1,1,0,-2
27863102126,1,6,13,7,1,0,-2,-1
27863122997,-2,-6,2,1,1,-1,1,2
27863122997,-5,-11,-23,-21,-10,-4,-4,-7
27863124607,2,7,-7,-3,-3,-4,-1,0
27863124607,-4,-4,15,11,2,-1,-2,-4
27863137372,-1,-5,-4,0,2,2,1,3
27863137372,4,12,17,12,1,-3,-1,-1
27863144133,-10,3,25,20,6,1,0,1
27863144133,-4,-5,-18,-17,-4,0,0,0
27863160646,20,2,-5,-2,-2,-1,-1,4
27863160646,7,1,-8,-8,-4,0,-2,-3
27863162103,3,-4,27,3,-3,0,1,0
27863162103,-16,-15,-30,-10,-10,-7,-4,-3
27863183113,-13,1,18,13,4,-1,-4,-1
27863183113,-1,-10,-30,-8,8,5,1,-6
27863184582,-4,11,11,13,7,6,2,1
27863184582,15,3,25,4,-1,2,3,9
27863196751,-12,-6,0,-5,-5,-4,-2,-9
27863196751,-1,2,-15,-18,-12,-6,-6,-4
27863211779,19,5,-6,0,2,0,0,6
27863211779,-8,-17,-28,-12,-3,-2,-1,1
27863220637,11,15,1,4,0,-2,0,3
27863220637,-14,-6,-14,-9,2,-1,-2,-3
27863222146,4,10,36,25,5,-3,-5,-4
27863222146,12,16,7,1,4,0,-8,-16
27863243217,16,-9,-1,-4,-5,2,9,6
27863243217,-10,-8,29,17,3,2,4,14
27863244603,1,-14,-46,-35,-14,-9,-4,-5
27863244603,5,-8,-7,-2,0,-1,0,0
27863256754,9,20,20,14,10,0,-7,-8
27863256754,20,14,-4,-9,-4,-2,-1,6
27863265733,-38,-23,-1,13,5,5,7,-2
27863265733,-3,-4,10,-10,-9,-7,-3,-3
27863280498,7,2,-26,-26,-10,-3,-2,13
27863280498,4,-15,4,3,-3,-2,1,-13
27863282154,69,26,9,6,3,-4,-8,20
27863282154,-48,-29,-38,3,3,5,12,8
27863302973,-2,21,19,-7,-6,-5,-5,-7
27863302973,-16,-1,-37,-14,-1,-4,-13,-15
27863304624,-12,-9,6,0,1,-3,-9,-15
27863304624,7,9,30,8,2,10,21,25
27863316643,-28,-11,10,2,-2,1,1,-9
27863316643,24,20,5,9,4,0,-2,3
27863325609,-7,-23,-10,-22,-6,2,5,6
27863325609,27,-2,-29,6,2,-8,-12,-5
27863340462,13,18,30,13,4,4,4,-3
27863340462,-18,-31,8,-6,-8,-3,-2,1
27863342086,25,35,-3,-4,-1,-5,-8,0
27863342086,-22,-11,8,8,0,-1,-5,-12
27863363140,1,-19,-20,-13,2,2,5,7
27863363140,-8,11,-2,16,1,-4,-3,2
27863364580,27,26,-14,-27,-14,-3,5,12
27863364580,-3,-1,31,4,-1,-5,-16,-17
27863376724,14,5,13,26,16,10,5,15
27863376724,-38,-35,-24,1,2,-2,-2,-16
27863385742,-30,-31,-7,-4,-7,0,12,9
27863385742,11,19,-20,-20,-6,-3,2,2
27863400593,-20,-29,-79,-39,-13,-5,-6,-10
27863400593,-2,15,70,35,1,-1,-2,3
27863402112,3,27,2,14,8,5,-3,-8
27863402112,26,26,-35,-14,6,3,-1,-23
27863423049,-14,-24,8,32,13,-2,-15,-2
27863423049,29,9,-8,-10,2,9,29,15
27863424726,-31,-30,15,-8,-13,-8,-6,-15
27863424726,1,-37,-7,-1,-5,0,-3,0
27863436795,-14,16,-43,-46,-19,-10,-4,-4
27863436795,-2,7,18,15,16,7,-1,-4
27863445642,4,31,30,34,12,2,-3,-7
27863445642,-10,-90,-75,-14,-8,-10,-22,-5
27863460627,-59,54,110,17,-8,3,34,9
27863460627,27,33,-36,-19,-10,-12,-29,1
27863462171,-40,13,65,14,-6,-2,1,-17
27863462171,7,-4,-59,-30,-12,-8,0,0
27863482923,57,32,69,32,16,5,2,17
27863482923,-27,8,-8,-19,-19,-6,-1,-2
27863489393,-10,-52,14,5,7,0,-26,-7
27863489393,-6,92,55,-1,-5,-2,22,-1
27863496821,9,-44,-31,-3,-2,-1,-1,-1
27863496821,-23,-24,-74,-43,7,15,22,13
27863505636,94,62,-2,57,15,-8,-19,3
27863505636,-61,-49,-20,-29,-1,5,-4,8
27863521282,19,18,61,29,-1,-2,2,-14
27863521282,9,14,-5,-25,-9,-5,-1,18
27863526859,-30,-87,-107,-17,-4,0,6,-18
27863526859,25,90,53,33,10,-3,-7,3
27863543067,-28,-47,-10,7,-5,-16,-34,-37
27863543067,16,5,5,-15,-13,-2,13,42
27863544609,-33,30,38,7,4,2,13,-12
27863544609,24,21,-44,-41,-8,2,-11,-4
27863556690,5,-34,-31,1,-1,-4,11,11
27863556690,50,16,-4,15,1,-4,-11,-2
27863565667,-63,-39,47,0,-1,-3,-5,-18
27863565667,15,-35,-74,-33,-6,9,19,24
27863580006,8,16,13,-6,-10,-13,-24,-11
27863580006,9,33,29,24,14,0,-15,-18
27863586712,8,-33,-86,-40,-6,9,23,9
27863586712,-20,-49,67,44,5,-3,-12,-19
27863603112,1,-69,-103,-41,-12,-10,-58,-33
27863603112,-4,25,3,17,4,19,53,22
27863604668,50,107,65,28,9,2,3,17
27863604668,-14,-2,80,23,2,4,18,17
27863616719,13,13,-100,-59,-17,-11,-5,2
27863616719,-58,-120,-88,-30,-9,-13,-44,-62
27863625648,44,-12,83,50,-1,5,17,48
27863625648,-35,15,23,-23,-10,-10,-8,-32
27863640023,-1,-48,-16,28,14,10,16,-1
27863640023,-8,-32,-7,-21,-10,-17,-25,-7
27863646798,-14,-1,-13,0,7,11,16,7
27863646798,52,89,106,72,2,-13,-16,1
27863663180,-9,46,-25,-7,-3,3,11,-1
27863663180,18,-35,1,-42,-10,3,18,21
27863664600,-29,-20,-16,19,-4,-10,-29,-53
27863664600,23,-17,-35,29,14,5,20,27
27863685632,-53,-92,22,14,2,3,7,0
27863685632,-5,26,13,-2,-4,-6,-10,-17
27863687160,22,51,-128,-106,-16,6,17,31
27863687160,27,65,80,62,24,3,-13,-5
27863699857,27,-1,-55,-1,-4,-7,-23,4
27863699857,-23,-45,4,42,10,4,11,1
27863706781,-57,-90,-49,-47,-17,8,42,11
27863706781,-10,-25,-128,-104,-20,-2,-7,-9
27863723089,19,121,127,75,25,7,8,10
27863723089,18,54,58,39,12,1,-8,0
27863724620,0,27,-22,-18,-2,-16,-42,-27
27863724620,12,-101,-73,-20,-7,6,9,-4
27863745649,16,48,23,-7,-5,-13,-24,-45
27863745649,-7,-2,15,-19,-4,20,63,34
27863747205,-58,-25,27,19,-4,-11,-18,-13
27863747205,21,61,-14,-13,-1,0,0,5
27863759980,-20,-28,-39,-42,-17,-4,-14,-11
27863759980,1,20,115,119,11,-17,-7,4
27863766776,-6,-41,-95,-49,-8,10,22,-9
27863766776,-6,52,68,-8,-3,-7,-9,-3
27863783166,-20,-76,-111,-39,-10,-3,4,16
27863783166,23,19,22,17,6,-12,-32,4
27863784665,4,-1,31,10,14,19,13,9
27863784665,12,24,32,23,6,1,8,11
27863805464,29,89,88,35,19,17,23,-6
27863805464,-24,-82,-88,-18,4,-1,-14,-24
27863807074,13,-25,22,38,7,-19,-29,7
27863807074,3,-11,-78,-53,-23,3,12,-7
27863819855,38,-10,16,-44,-5,-1,20,75
27863819855,-18,-33,-91,-46,-16,3,16,-23
27863826651,16,90,89,95,47,-3,-28,12
27863826651,11,-9,20,41,14,19,35,14
27863841596,-40,-71,-38,2,7,19,29,9
27863841596,-9,46,-51,-60,-16,-15,-28,-49
27863856682,29,-6,-36,-75,-22,3,8,19
27863856682,-50,-53,-19,23,8,-10,-12,0
27863865642,-24,-102,-23,47,13,-4,-10,-25
27863865642,20,33,-56,-81,-7,9,3,14
27863867130,18,94,81,40,-15,-12,-5,-15
27863867130,-12,4,-10,-10,-2,-5,-12,7
27863895598,-20,-1,-31,-12,-12,-11,-18,-15
27863895598,18,-13,-37,-38,-20,-18,-11,-7
27863897087,-6,-23,-56,-36,3,12,0,21
27863897087,-46,-30,106,36,6,11,27,2
27863901691,29,62,10,-22,7,4,8,23
27863901691,-18,-71,-9,31,6,-20,-36,-15
27863910630,30,66,50,30,5,-9,-26,-31
27863910630,-2,-50,-27,-12,-13,13,37,36
27863925628,32,29,-73,-44,-20,-5,-2,12
27863925628,-5,66,126,47,21,16,15,10
27863927057,39,-22,4,8,-6,-10,-10,-1
27863927057,-19,-30,-21,-6,0,-19,-41,-34
27863948117,15,93,10,-48,-24,-5,12,5
27863948117,-20,-24,1,39,4,4,3,8
27863949619,-26,-88,-122,-50,-20,-15,-21,-26
27863949619,1,62,106,69,22,11,11,5
27863961793,-13,7,20,7,-2,0,-4,-8
27863961793,14,59,66,35,10,-9,-26,-8
27863970627,-21,-67,-103,-64,-18,8,37,-15
27863970627,11,-70,-105,-63,-22,-21,-40,-24
27863985599,7,35,85,45,20,28,60,50
27863985599,-33,-72,-58,-14,1,8,7,-2
27863987106,-43,-72,34,1,0,7,16,-3
27863987106,11,90,4,-43,-9,-12,-23,-6
27864015490,-12,-86,-56,-40,2,1,-10,-23
27864015490,24,34,-19,-10,4,-3,-5,11
27864017079,-6,-2,-7,-12,0,-1,5,7
27864017079,-21,-27,-14,-8,2,-5,-9,-17
27864021608,5,25,57,33,8,-3,-7,2
27864021608,4,-13,14,-16,-14,5,7,-11
27864030588,-16,-61,-24,-42,-24,-20,-16,30
27864030588,12,56,3,0,11,9,7,17
27864044244,15,-8,-14,18,-4,1,-12,-5
27864044244,-55,-68,-38,-21,-14,-1,32,-7
27864053166,4,14,5,16,-4,-4,-3,-12
27864053166,-9,-86,-94,-63,-14,-9,-14,-10
27864068126,-19,36,38,37,21,7,16,-4
27864068126,21,-61,-17,-11,-9,-3,-10,39
27864069606,-20,-36,-56,-3,5,3,2,-31
27864069606,2,-3,-67,-41,-19,5,26,52
27864090551,-8,-5,89,80,9,-15,-30,-20
27864090551,31,61,-28,-30,4,10,4,-1
27864092129,0,34,26,7,-5,-8,-4,12
27864092129,17,-45,51,85,24,5,-10,-4
27864104979,-7,-5,-85,-62,-13,-2,-1,-15
27864104979,-17,45,106,72,19,5,1,-1
27864111804,23,38,16,-40,-3,0,-12,9
27864111804,-21,-53,-40,-12,-6,-17,-28,-21
27864128113,17,-52,-39,-21,-3,14,12,4
27864128113,8,27,-2,-19,-7,-9,13,-7
27864129628,9,28,54,27,15,19,20,-16
27864129628,26,92,29,20,4,16,34,15
27864141707,-17,-21,-9,3,-9,-30,-54,-24
27864141707,37,20,16,-1,8,23,15,38
27864150633,-30,-38,-61,-12,1,-4,-8,-21
27864150633,35,116,99,3,-8,-11,-4,-15
27864164944,-26,-34,-10,23,5,-2,-8,2
27864164944,52,83,31,-12,-16,-15,-9,11
27864171747,-25,-66,-46,-41,-4,7,14,21
27864171747,-4,-18,-80,-24,-4,-6,-15,-11
27864195590,-13,-23,16,1,-9,-8,-6,-15
27864195590,-28,-37,15,47,-2,-37,-55,-27
27864197164,20,104,64,30,13,32,41,19
27864197164,-26,-70,-55,-27,-7,6,23,10
27864210625,18,66,68,6,1,-13,-36,-16
27864210625,2,-74,-14,37,21,19,43,20
27864212129,-19,40,-29,-23,-19,-6,-8,-38
27864212129,-18,-31,-45,-21,1,13,24,9
27864224927,-3,-25,15,-10,2,3,1,1
27864224927,-42,-119,-50,-6,-2,0,-16,-26
27864231724,15,72,15,33,8,-9,-14,8
27864231724,15,-52,21,3,-4,-6,-11,-8
27864248278,14,79,-20,-14,-9,0,12,13
27864248278,-35,-63,-69,-76,-24,-9,-17,-19
27864249600,7,-45,31,5,3,-8,-4,-1
27864249600,18,19,33,32,6,4,-1,-6
27864270769,-11,-95,-27,39,12,1,13,22
27864270769,14,96,20,-25,-11,17,30,14
27864272122,14,35,55,8,-5,-21,-34,-4
27864272122,-16,-8,-1,-18,-1,-10,-18,-19
27864284940,-29,-74,-83,-59,-14,-13,-9,-26
27864284940,20,37,-34,24,16,12,-22,-10
27864291779,9,-32,-52,-14,9,29,73,43
27864291779,-5,68,64,14,5,-1,-16,-14
27864307989,33,12,-69,-40,-10,-4,-5,-3
27864307989,-10,3,-15,-36,-12,-1,10,-17
27864309589,5,-88,-82,-20,-5,-18,-42,-22
27864309589,-19,50,97,70,11,13,18,5
27864330449,34,104,91,57,16,6,6,18
27864330449,1,30,1,-14,-10,-13,-15,-1
27864332051,-17,-45,39,31,5,-1,-6,-3
27864332051,-5,-54,-84,-20,3,-9,-28,-4
27864344817,-9,-26,59,12,8,28,64,13
27864344817,20,91,59,19,0,-5,-20,6
27864352271,-8,26,25,18,3,0,12,-2
27864352271,21,-20,-59,-34,-9,6,10,6
27864367341,16,28,4,0,2,-12,-31,20
27864367341,-4,-122,-63,12,12,44,77,14
27864368083,39,98,95,15,-1,-14,-20,46
27864368083,-42,-44,43,26,9,15,18,-21
27864389970,-15,21,-67,9,2,-10,-21,-29
27864389970,-45,-68,-11,-38,-23,-7,11,-6
27864390582,11,78,36,48,5,4,7,8
27864390582,11,1,-52,-38,-2,20,30,19
27864404203,-29,9,35,10,5,11,15,-1
27864404203,4,-14,8,7,-5,-19,-20,-7
27864412443,-17,-18,68,36,7,-3,-12,-14
27864412443,20,4,29,-12,-10,-12,-17,2
27864427421,-11,-62,-88,-70,-20,-2,8,-9
27864427421,14,55,95,84,20,-2,-17,0
27864428060,-11,-40,-83,-48,-16,-16,-23,-31
27864428060,3,8,-40,-21,0,-13,-32,7
27864449973,-14,-67,40,38,10,3,19,5
27864449973,12,43,-44,-31,6,25,14,-5
27864450586,28,-50,-34,-22,-10,20,53,51
27864450586,11,36,56,48,13,-27,-52,-30
27864464863,-5,-14,-79,-69,-30,-2,13,6
27864464863,13,77,23,-10,1,-15,-33,2
27864465594,-23,-39,-41,34,14,10,3,-15
27864465594,6,-21,-12,38,2,-10,-5,-5
27864487540,15,-5,-14,-17,-6,-6,-15,-3
27864487540,-21,5,51,27,20,8,11,1
27864488071,-6,4,26,28,-4,-18,-21,-17
27864488071,-22,-19,13,8,2,2,8,-4
27864509888,-6,5,-63,-43,-17,3,7,-1
27864509888,-30,-35,-53,-40,-16,-19,-20,-22
27864510582,5,-1,60,53,9,-20,-47,-6
27864510582,-8,15,22,13,-7,-4,11,-19
27864524951,10,36,30,0,-9,17,38,22
27864524951,46,-11,4,-23,-6,8,31,30
27864525591,-12,-33,-35,-16,-2,-6,-25,-28
27864525591,8,-29,-6,13,-1,5,46,37
27864547298,4,41,-2,2,2,-1,-2,4
27864547298,8,-9,-57,-8,-14,-17,-4,6
27864548103,-16,12,24,-15,1,13,4,-12
27864548103,-34,8,1,6,-10,-16,-22,-20
27864570045,12,-31,-58,-31,-6,0,-7,8
27864570045,4,45,104,112,34,5,-7,-1
27864570547,10,41,21,-17,-3,-2,0,1
27864570547,2,-35,-89,-93,-17,6,0,1
27864584957,-5,5,65,60,21,-8,-21,-10
27864584957,-7,12,3,-21,-3,-7,-20,-20
27864585574,-13,-63,-51,-26,-6,15,38,13
27864585574,34,-1,-26,-17,-2,9,9,12
27864607310,-27,9,-3,32,-1,-37,-90,-61
27864607310,9,-85,23,45,18,29,94,33
27864608090,-8,-36,-15,26,-5,-8,-11,-10
27864608090,6,75,-9,-21,-12,2,21,23
27864629990,-10,20,34,-7,-5,12,36,15
27864629990,-16,-38,-17,1,-16,-27,-54,-24
27864630622,4,26,-11,-18,4,-2,-10,-4
27864630622,30,28,74,56,8,-6,-13,-3
27864644887,-7,-30,12,11,-1,-1,-8,-7
27864644887,-20,-44,-128,-115,-27,-5,-6,-6
27864645590,-30,26,79,56,15,7,8,-7
27864645590,1,-12,-15,-8,1,-8,-20,-9
27864667342,21,41,123,78,28,13,11,0
27864667342,8,41,-5,-6,-2,-2,-11,5
27864668068,11,-23,-83,-71,-15,3,4,-1
27864668068,-16,-30,31,46,12,-21,-46,-19
27864689970,-21,12,46,16,-1,15,18,9
27864689970,29,-7,-42,-35,1,35,56,7
27864690609,23,-7,-15,-1,-7,-3,8,44
27864690609,-20,6,-4,18,8,14,29,1
27864704876,9,14,-40,-42,-12,-20,-27,-7
27864704876,-40,48,107,93,21,-10,-35,-39
27864705577,14,33,-39,-63,-13,3,13,5
27864705577,39,30,58,18,-3,-4,-12,-5
27864727425,10,-14,-29,-28,-6,-9,-7,2
27864727425,-18,14,27,-14,-6,-5,-2,12
27864728123,-1,-21,-68,-18,4,6,0,-8
27864728123,-19,-55,-35,11,3,-2,-10,-4
27864750050,-5,-6,-6,-1,1,-6,-10,-8
27864750050,39,41,35,43,14,9,12,16
27864750627,3,-18,44,-4,-6,2,7,-3
27864750627,-34,-25,-43,-36,-7,-2,-15,-24
27864764269,-6,-67,-119,-53,-15,-12,10,4
27864764269,-1,16,-41,-42,-14,-2,-5,15
27864772417,-3,-21,37,41,5,0,7,-3
27864772417,-16,-6,42,29,6,-4,-22,-12
27864787426,-12,-28,-54,-51,-20,-13,22,-4
27864787426,-34,-48,-3,7,-7,-7,-16,-10
27864788132,15,-38,-21,-11,-8,-8,-34,12
27864788132,6,53,41,22,3,-4,19,12
27864809826,-26,55,69,-2,-2,13,5,-18
27864809826,19,-13,-48,-33,-8,-9,-7,2
27864810580,-4,2,-44,-31,-5,-7,-13,-14
27864810580,9,-28,-61,-28,-1,4,11,5
27864824140,3,61,108,98,28,4,-15,3
27864824140,-9,-55,-38,-14,-4,-4,-5,-5
27864832278,-12,-20,-61,-51,-21,-27,-35,-37
27864832278,-22,-27,-17,-22,-4,16,29,22
27864847349,37,92,59,45,11,6,15,17
27864847349,-5,-9,36,78,18,-11,-31,-19
27864848099,-15,26,34,37,10,-8,-36,-46
27864848099,-6,-58,-63,-36,-7,19,59,30
27864869539,56,18,5,7,7,8,15,35
27864869539,-16,-23,-52,-47,-9,-4,-9,-7
27864877453,-1,7,-18,5,2,4,5,0
27864877453,-9,-82,-54,-1,-3,0,-6,-5
27864884248,14,22,56,31,11,4,1,2
27864884248,-9,-36,-51,-46,-12,-13,-14,-10
27864892429,0,29,-46,-36,-8,-2,15,17
27864892429,-4,30,-3,28,16,6,-5,-5
27864907305,-2,-66,38,-35,-19,5,11,10
27864907305,11,28,54,45,16,3,-5,4
27864908076,-20,-35,9,19,7,-10,-30,-10
27864908076,14,57,31,-37,-12,2,15,-10
27864929910,-37,-95,-61,-6,1,-11,-17,-2
27864929910,-7,13,-5,-26,-10,12,27,8
27864930593,16,-37,-15,-7,-5,-18,-9,5
27864930593,35,50,99,60,22,37,41,12
27864944243,-9,-13,-126,-43,-14,-11,-17,-19
27864944243,7,-6,-51,-58,-14,4,11,4
27864953703,3,27,80,104,34,8,12,34
27864953703,-11,-49,-95,-83,-19,-23,-37,-9
27864967430,5,54,15,44,18,6,1,-3
27864967430,6,-19,-9,22,7,5,-14,-12
27864968101,-6,9,-54,-76,-17,14,43,20
27864968101,24,-7,-9,10,10,2,-6,12
27864989996,-9,1,32,32,13,15,15,8
27864989996,15,38,32,25,8,-2,-12,3
27864990566,9,14,-8,-17,0,23,50,5
27864990566,-39,-19,6,-14,-16,-26,-39,-28
27865005602,-23,-42,-96,-64,-13,-3,8,-23
27865005602,9,-42,32,20,1,7,30,28
27865012417,16,14,61,14,-7,-14,-18,-25
27865012417,-2,-40,-87,-43,-10,-4,0,23
27865035571,-1,12,99,47,16,-6,-33,-8
27865035571,-4,28,-13,-18,-8,-8,-17,-9
27865036248,15,3,52,37,0,15,37,22
27865036248,1,113,71,51,4,-20,-31,-20
27865049951,-15,-45,-128,-106,-33,-10,-6,4
27865049951,8,31,73,59,13,-3,-4,-2
27865050586,-20,-21,12,8,5,1,-13,-10
27865050586,2,83,78,21,0,-4,-4,-13
27865064249,37,18,-4,16,9,5,-5,3
27865064249,4,-3,-25,-37,-13,-2,-10,10
27865072395,-30,-55,-89,-24,-11,-8,11,-13
27865072395,20,33,73,29,9,5,14,-14
27865087282,-89,-92,-94,-67,-24,-12,-23,-18
27865087282,9,61,61,8,1,2,20,39
27865088099,28,26,19,34,25,13,-3,-22
27865088099,-11,-99,-65,-8,0,14,-3,-1
27865118094,2,-9,50,-9,1,5,23,-1
27865118094,-14,-30,-21,8,-5,-11,-6,-27
27865118788,-1,46,26,4,-2,-1,-4,17
27865118788,-14,-11,47,1,-7,-12,-11,1
27865133042,20,42,16,36,2,-9,-22,-18
27865133042,-20,-43,-59,-51,-15,-5,4,-9
27865133771,11,55,123,71,9,-7,-3,11
27865133771,-2,-30,-72,-22,6,-6,-10,-7
27865147457,22,-20,-32,-37,-16,10,8,13
27865147457,-12,5,73,4,1,2,11,4
27865148091,23,-48,-103,-24,-3,-1,-11,6
27865148091,-35,-17,22,9,0,-26,-58,-23
27865169913,31,17,49,-7,9,31,66,14
27865169913,-1,-20,-18,36,15,13,31,32
27865170590,15,64,14,-38,-20,-10,-8,-12
27865170590,-40,-74,-72,-41,-8,-10,-32,-18
27865193093,4,43,42,48,10,-10,-19,3
27865193093,-20,19,39,-1,-4,-5,-26,-42
27865193839,-21,-105,-124,-44,-8,4,23,39
27865193839,18,61,25,-9,-14,-1,13,13
27865207295,8,41,-75,-34,-11,-10,-17,5
27865207295,1,-43,-36,-27,2,-2,-6,-6
27865208045,1,78,84,104,28,0,-15,-10
27865208045,3,-29,-48,-27,-8,9,22,0
27865230523,-43,-71,-75,-43,-5,2,-5,-9
27865230523,33,-16,-13,9,-5,-8,-1,3
27865231197,-28,-21,-26,-53,-11,-2,-19,-23
27865231197,-12,-6,46,25,-6,-2,14,3
27865253077,7,-22,-9,31,8,-9,-15,-12
27865253077,-7,8,-122,-54,-8,13,35,37
27865253754,-23,-7,44,0,-1,-1,-22,-39
27865253754,24,83,79,41,16,14,43,30
27865267427,-2,-38,-3,9,1,-3,-6,-3
27865267427,-16,6,-44,-61,-15,-13,-22,-24
27865268097,0,-55,61,58,20,8,4,7
27865268097,11,43,-25,-27,-5,1,3,13
27865289933,13,38,70,31,6,-1,-5,1
27865289933,13,-9,-51,-46,-15,-3,-12,-6
27865290582,-8,3,-16,-23,-12,-3,24,20
27865290582,9,-10,-9,-21,-6,7,7,-3
27865312982,-14,-33,34,27,2,-4,-1,1
27865312982,-14,15,-5,16,3,-10,-11,-30
27865313804,-10,5,-7,2,-1,-9,-12,18
27865313804,28,47,83,22,5,5,17,13
27865327264,32,14,-20,-23,-11,-3,13,27
27865327264,-15,7,10,8,4,10,15,-12
27865328048,18,28,15,-27,-10,-3,7,10
27865328048,-2,-15,-23,25,4,-8,-13,-11
27865358181,-14,33,21,-7,-3,-2,-8,-12
27865358181,-5,-20,-28,-22,-11,-13,-22,-9
27865358746,-5,20,-10,-16,1,1,-4,-9
27865358746,-18,-78,-52,6,1,-1,-6,-6
27865373022,11,33,60,18,9,9,12,7
27865373022,18,18,-28,-8,-4,-4,-6,2
27865373742,-40,-1,27,17,5,-4,-11,-15
27865373742,25,-23,-48,-45,-17,0,27,26
27865387398,-16,-44,-68,-23,-6,-6,-7,-16
27865387398,0,45,29,20,9,0,-10,-3
27865388099,25,-37,-79,-20,-2,11,15,9
27865388099,20,41,36,17,10,0,-15,-5
27865410549,-21,-48,-26,-14,-10,5,15,18
27865410549,-11,3,47,17,-1,-2,9,2
27865411308,19,22,-1,-18,-8,-11,-20,-7
27865411308,-27,-21,14,29,4,4,14,-8
27865433733,-2,-78,-73,-29,-9,-8,-12,-12
27865433733,13,43,77,57,16,6,-1,5
27865434422,-1,-45,-30,2,0,-5,-2,2
27865434422,8,70,-6,-38,-16,0,-2,2
27865447444,-7,-21,-15,7,2,-1,1,0
27865447444,-21,-35,15,16,-1,-6,-9,-15
27865448096,-11,-26,1,-11,0,4,2,-1
27865448096,12,29,-61,-51,-8,-9,-15,-8
27865470577,10,70,96,53,15,9,10,3
27865470577,-6,-62,-47,-16,-4,-6,-3,-4
27865471249,31,62,9,-4,-4,-3,11,31
27865471249,-24,-50,-11,-3,-3,-6,-7,-26
27865493043,8,18,5,8,8,3,1,2
27865493043,-8,-2,35,12,1,4,22,1
27865493768,-20,18,-33,-26,-8,3,4,-4
27865493768,-6,-87,30,48,10,-5,-11,-2
27865507422,2,49,40,4,-1,0,-2,-1
27865507422,-6,-50,-66,-15,0,-2,-12,-2
27865508098,-9,-5,-4,-9,-5,-4,-4,-12
27865508098,2,-8,-35,-14,-2,-3,0,7
27865530615,-4,16,28,16,1,-8,-18,-17
27865530615,4,-35,-21,14,0,3,4,11
27865531265,2,27,35,11,-2,-3,-3,-9
27865531265,-7,16,24,22,8,2,-5,1
27865560637,10,32,20,-8,-3,-1,7,8
27865560637,10,28,-3,-16,-7,-4,-4,-1
27865561271,3,-6,4,9,3,1,4,0
27865561271,-10,-23,8,12,3,-5,-7,-4
27865567408,-5,-9,-18,-6,-5,-4,-3,-16
27865567408,0,19,26,11,2,-1,-1,3
27865568068,6,-5,1,0,2,-1,-3,1
27865568068,-3,0,1,-3,-1,4,6,3
27865590536,-3,20,-7,-9,-5,-6,-8,-7
27865590536,12,17,26,8,2,3,5,7
27865591280,-2,-16,-14,-2,-1,-1,0,-2
27865591280,1,0,-27,-16,-5,0,-1,-3
27865613016,-6,-11,21,20,4,-3,-4,4
27865613016,-5,3,-2,-8,-6,-3,-5,-7
27865613743,-7,-11,-5,-2,1,-1,-2,-4
27865613743,5,-1,-8,-13,-6,-2,-3,0
27865627139,1,18,-3,-7,-7,-5,-3,-3
27865627139,10,39,7,-1,0,-3,-1,4
27865635032,-5,-24,-6,2,6,6,2,-5
27865635032,0,18,30,15,3,0,-3,-4
27865649893,-9,-44,-25,-6,1,2,4,2
27865649893,8,9,6,4,0,-3,-3,0
27865650561,0,10,-3,-14,-10,-5,-1,0
27865650561,-3,-3,3,3,-1,-1,-2,2
27865672979,0,-9,-8,0,-2,-4,-4,-2
27865672979,3,-1,0,-2,1,5,4,1
27865673783,-6,-7,-3,-2,0,3,-2,-2
27865673783,3,13,7,3,1,3,4,4
27865687391,0,-21,-15,-5,-2,-2,1,0
27865687391,0,0,2,-2,-2,-5,-6,-1
27865688092,-1,-9,-15,-5,-6,-2,-3,-3
27865688092,0,15,20,9,3,0,-1,1
27865709935,3,-10,-11,-2,-4,-2,0,2
27865709935,2,-3,8,11,6,5,0,0
27865710588,-5,-9,-3,-3,-3,-2,1,-1
27865710588,0,-7,-8,-8,-4,-3,-2,1
27865733104,3,12,-2,-1,2,1,1,0
27865733104,-2,-16,3,-3,-5,-4,-1,-2
27865733747,-2,-6,-7,-5,0,-2,-2,-3
27865733747,4,12,-4,-4,-6,-5,-3,-1
27865746635,0,0,8,13,14,11,4,2
27865746635,0,0,5,14,11,6,1,0
27865754992,0,8,1,-7,-5,-5,-2,0
27865754992,-5,-22,-16,-11,-11,-6,-4,-3
27865770042,-2,13,8,-9,-7,-2,-2,-2
27865770042,1,5,13,13,11,4,0,1
27865770554,5,7,0,-1,-1,-3,-3,-1
27865770554,6,15,16,12,8,5,2,1
27865793150,-13,-23,-20,-16,-12,-8,-5,-7
27865793150,-11,-24,-21,-13,-9,-4,-3,-3
27865793764,0,-10,4,7,3,3,1,1
27865793764,-6,-13,-9,-5,-2,-2,-3,-4
27865806655,7,16,0,2,4,2,2,2
27865806655,1,25,9,-7,-14,-9,-4,-5
27865814791,-4,-10,-4,13,14,8,3,-1
27865814791,1,-6,0,2,5,2,2,2
27865829954,0,-7,4,3,1,-1,0,1
27865829954,-1,0,-4,-3,-1,-3,-1,0
27865830622,0,1,-2,-10,-11,-6,-4,-2
27865830622,-1,1,8,0,1,0,1,-2
27865853098,0,10,0,2,1,0,0,-1
27865853098,3,-4,-7,-9,-6,-4,-2,-1
27865853752,-3,1,5,0,-4,-3,-3,-1
27865853752,-2,0,-11,-2,-1,-2,-2,-2
27865866765,-1,-14,0,-1,-2,-1,0,1
27865866765,-1,-11,-6,-1,0,1,0,-2
27865874965,0,11,-5,-8,-5,-4,-2,-4
27865874965,-7,-22,-10,-7,-7,-5,-4,-1
27865889830,1,-2,-5,12,10,5,2,1
27865889830,7,30,26,15,10,5,0,2
27865890539,4,5,2,1,1,0,0,1
27865890539,-2,-6,-7,-5,-3,-4,-3,-3
27865913115,-3,-12,-14,-15,-8,-6,-2,-2
27865913115,-4,-11,-5,-3,-2,0,0,0
27865913776,-1,5,5,3,2,0,0,0
27865913776,-1,6,1,-2,-6,-3,-1,-2
27865926754,1,-12,3,1,0,1,1,-1
27865926754,1,17,0,2,4,-1,-1,0
27865935613,-4,-4,-2,-9,-8,-3,-2,-2
27865935613,2,-4,1,13,13,7,3,0
27865957917,1,4,0,-2,-3,-4,-3,-2
27865957917,-4,-12,-8,-3,-1,-1,-1,-1
27865959575,-14,-39,-22,-5,0,-1,-2,-6
27865959575,9,66,33,-2,-5,-4,-2,1
27865973009,4,0,5,9,7,5,2,2
27865973009,-4,-5,-4,-9,-6,-6,-4,-4
27865974875,0,-4,4,4,-2,-3,-1,-1
27865974875,-3,-16,-6,0,3,3,1,-1
27865987198,9,44,8,-7,-11,-6,-2,0
27865987198,-4,-13,-4,1,1,2,-1,-2
27865995639,5,12,4,-1,2,0,1,0
27865995639,-7,-18,-10,-4,-2,-2,-1,-1
27866009189,-6,-20,-12,-7,-4,-4,-2,-2
27866009189,-1,-11,-6,-8,-6,-1,-2,-1
27866018105,-1,9,8,0,-3,-1,-2,-2
27866018105,-2,-14,-11,3,4,2,-2,0
27866033072,-2,0,-1,1,-3,-2,-2,-2
27866033072,-4,-1,0,-3,-3,-2,-1,0
27866034576,3,7,3,2,0,-3,-3,1
27866034576,1,1,0,-1,-2,0,1,0
27866046750,-3,-12,-5,0,0,-1,-2,-4
27866046750,-5,-15,-3,-3,-4,-1,0,-3
27866055611,6,49,12,-8,-10,-4,-2,0
27866055611,0,-18,-4,15,11,4,2,2
27866069924,-1,4,-1,-1,2,2,1,1
27866069924,4,3,4,3,0,-1,-1,0
27866076745,-5,-25,-2,0,5,0,0,0
27866076745,-7,6,5,-7,-5,-5,-3,-5
27866093553,-8,-23,-13,-9,-5,-4,-3,-3
27866093553,-1,3,-3,4,3,1,1,1
27866095086,1,9,-10,-7,-5,-2,-1,-1
27866095086,0,-1,4,-4,-5,-3,-3,-3
27866115569,1,23,10,8,7,4,3,2
27866115569,-1,-6,-8,-5,-2,-3,-2,-2
27866117094,-2,-16,-6,0,2,1,0,-2
27866117094,3,12,-3,-8,-6,-5,-2,-1
27866130325,-3,2,6,4,1,1,0,-1
27866130325,7,22,11,10,7,3,2,2
27866138097,-6,-11,-7,-6,-4,-2,-1,-1
27866138097,0,-3,-5,1,3,3,0,0
27866153076,3,8,4,-1,-3,-3,-1,-2
27866153076,-4,-2,-7,-10,-7,-7,-4,-3
27866154565,2,0,5,13,12,5,0,-1
27866154565,-9,-10,-6,-4,-3,-1,0,-4
27866175567,-5,-16,-6,-4,-1,-1,0,1
27866175567,1,-1,-3,-3,-2,0,-1,0
27866177090,1,4,5,3,2,-1,-1,0
27866177090,0,11,-4,-5,-6,-2,-1,-2
27866189828,-4,-12,1,-1,-2,-1,-3,-3
27866189828,5,21,2,-6,-5,-7,-6,-4
27866196695,-3,-16,2,8,3,4,5,4
27866196695,1,-4,-1,1,1,2,1,3
27866213016,1,8,6,-3,-6,-5,-3,-1
27866213016,-7,-10,-2,1,1,1,1,0
27866214553,3,12,0,-7,-6,-6,-6,-5
27866214553,-4,-13,-3,-2,-2,-2,1,0
27866235317,2,3,-13,-7,-2,-1,-1,-1
27866235317,7,12,6,10,7,5,2,1
27866243112,-2,-6,-2,1,0,3,0,2
27866243112,2,-3,5,3,1,-1,-2,0
27866249966,-5,-18,-9,-5,-3,-2,-1,-2
27866249966,-2,9,0,-4,-2,-3,-1,-3
27866264195,-2,-2,-3,-2,-1,-1,0,-2
27866264195,-3,-6,-5,-1,-2,-3,-1,-2
27866273005,-1,4,-2,-2,-2,-1,-2,-3
27866273005,-4,-24,-14,-5,-1,0,0,-1
27866274581,0,18,13,0,-5,-3,-2,-2
27866274581,3,19,11,3,3,3,0,1
27866295596,-9,-12,-2,-1,-1,-3,-2,-2
27866295596,0,-4,-1,2,-1,-1,0,1
27866297049,-1,-7,-6,-5,-3,-3,-2,-2
27866297049,-1,-5,-1,1,-1,0,-1,-2
27866309128,1,-1,-3,-1,-1,-1,0,0
27866309128,-4,-5,3,0,0,1,1,-1
27866318086,3,1,-2,-3,-1,-2,-2,1
27866318086,5,4,5,3,0,-1,-1,0
27866333053,6,8,-4,0,1,2,0,-1
27866333053,-3,-9,-9,-4,-2,1,-3,-1
27866334543,-2,-3,1,-1,-1,-1,-1,-2
27866334543,-7,-15,-10,0,0,0,1,-1
27866356903,6,7,5,3,-4,-1,-2,1
27866356903,-3,1,2,4,-1,-1,-1,-2
27866358526,5,-3,-6,-3,-3,-2,-2,-1
27866358526,-3,3,-5,-5,-2,-2,-3,-2
27866369142,0,3,5,-2,1,-2,-2,0
27866369142,-3,1,-1,-3,1,1,1,1
27866378060,-3,0,0,1,0,-2,-1,-1
27866378060,3,6,3,-1,-3,-4,-3,-3
27866393044,2,0,-2,-1,1,1,0,2
27866393044,1,3,4,3,-2,-3,-2,0
27866394561,-5,-14,-7,1,2,0,1,0
27866394561,2,4,1,-2,-3,-2,0,0
27866415667,-1,-1,-3,-5,-3,-2,-2,-4
27866415667,-2,-10,-4,-2,-3,-3,-3,-1
27866417083,-3,-7,-8,-4,-5,-2,-2,-4
27866417083,-4,-9,-5,-8,-7,-5,-2,-1
27866429240,-3,24,6,0,-1,1,0,-1
27866429240,8,6,8,2,0,-1,0,1
27866438093,6,4,-1,-2,-2,-2,-1,1
27866438093,-3,3,4,0,0,2,2,-1
27866453072,-6,-10,-6,1,3,1,-1,-3
27866453072,-11,-4,-3,-2,-1,-5,-9,-6
27866454576,0,16,12,-1,-5,-10,-11,-4
27866454576,-2,-13,-5,-5,-5,-4,-8,-3
27866475588,7,-7,1,6,8,30,39,13
27866475588,1,2,-4,0,-2,1,4,0
27866477038,-6,-8,-6,-1,-1,2,2,-2
27866477038,-2,-6,-8,0,-2,-8,-7,-3
27866489166,-2,14,13,-1,-5,-12,-15,-5
27866489166,1,-3,-12,-8,-3,-3,-2,-2
27866498108,-2,1,10,5,0,-1,-2,-1
27866498108,4,3,4,4,5,3,1,2
27866513096,-8,-17,-6,1,-1,-6,-6,-4
27866513096,-3,-4,-2,-4,-3,-3,1,0
27866514617,4,1,-7,-3,-1,-3,-2,-1
27866514617,-2,-1,-2,4,3,4,5,0
27866535668,-1,-4,-4,0,-1,-3,-4,-3
27866535668,-2,1,4,1,1,-1,-1,-3
27866537059,-2,-11,-7,-5,-4,1,1,1
27866537059,-1,5,-1,-4,-3,-2,0,-2
27866549218,-1,-9,-5,-1,-1,-5,-6,-2
27866549218,5,3,2,0,0,1,1,1
27866558084,0,3,1,-1,-1,0,0,-1
27866558084,-2,-20,-6,-2,1,0,0,0
27866573040,0,0,-6,-6,-8,-6,-8,-3
27866573040,0,2,2,0,-1,1,1,1
27866574596,-2,1,-1,-2,0,2,2,-1
27866574596,-5,-4,-1,3,1,0,-1,-1
27866595570,-2,-9,-6,-1,-2,-5,-2,-2
27866595570,-1,-7,-6,-5,-5,-2,0,-1
27866597052,0,-5,-5,-2,1,-1,0,2
27866597052,3,11,5,0,-1,-1,-1,-1
27866609257,1,-2,-2,-3,-2,-1,1,1
27866609257,-4,-7,-4,-1,-1,-3,-2,-3
27866618079,-5,-2,3,-1,0,-2,-1,-2
27866618079,-3,1,0,-2,-1,1,2,1
27866633044,-2,-8,2,0,0,-1,-1,-3
27866633044,-1,10,6,0,1,0,-1,-1
27866634553,-3,-7,-5,-1,-2,2,0,0
27866634553,0,-1,-5,-2,-1,-2,0,-3
27866655578,0,1,3,1,-1,-2,-2,0
27866655578,-2,-5,-3,-1,-3,-2,-2,-3
27866657098,-3,-3,-2,2,3,3,2,0
27866657098,-4,-2,-3,-5,-1,-1,0,-1
27866669250,1,-1,-6,-3,0,0,-1,0
27866669250,-3,7,8,2,2,0,-1,-4
27866678100,6,2,0,0,-1,2,2,2
27866678100,-7,5,5,2,1,-2,0,-3
27866693131,-7,-1,-5,-7,-3,-4,-3,-5
27866693131,0,-9,-8,-2,-2,-2,-3,2
27866694553,-4,-12,-7,-3,-3,-3,-3,-3
27866694553,5,11,4,3,-1,0,-1,0
27866715578,4,-3,-2,-2,-1,-1,-1,1
27866715578,-1,2,0,-1,1,-1,1,2
27866717092,1,-4,-3,-2,-1,-1,0,-1
27866717092,-5,-6,-6,-4,-4,-2,-2,-4
27866729193,1,7,1,2,0,-1,-1,-1
27866729193,0,-9,-3,1,0,2,0,-2
27866738103,-4,8,5,1,-1,-1,1,1
27866738103,2,-4,-1,-3,-1,-2,0,-1
27866753104,-5,3,2,1,2,-1,0,-1
27866753104,2,-3,-6,-3,-1,0,-2,0
27866754583,0,-3,-5,-4,-4,-3,-2,-4
27866754583,0,-5,0,0,-2,-2,-1,0
27866775572,-1,9,2,0,0,-1,0,0
27866775572,-1,4,1,1,-1,-3,-3,-4
27866777038,-4,-4,-7,-1,-1,-2,-1,-1
27866777038,-5,-13,-5,0,0,2,0,-2
27866789259,0,-4,0,3,-1,-1,-1,-2
27866789259,0,-2,-3,-3,-1,-2,1,-1
27866798111,5,6,4,0,1,0,0,0
27866798111,0,0,-3,0,-2,-2,-2,0
27866812211,-2,-3,-1,0,0,0,-3,0
27866812211,-4,0,-1,-1,-3,-1,-1,-2
27866820608,-1,-1,-2,0,0,-3,-2,-3
27866820608,4,6,2,-1,0,0,1,1
27866835531,-1,-4,-5,-2,-1,0,-1,0
27866835531,-2,-4,-2,1,0,-2,0,1
27866837143,-2,1,3,2,2,1,-1,-1
27866837143,0,1,1,-1,-2,-3,-3,-1
27866849212,-4,-8,-4,-1,-1,-2,-3,-1
27866849212,7,-1,-4,-1,-2,0,-1,0
27866858080,-12,5,4,-1,-1,-1,0,-5
27866858080,-3,-6,-7,-5,-2,-2,-3,-2
27866872279,-1,-1,-3,-2,-2,-1,-2,-4
27866872279,5,4,3,-1,1,1,3,11
27866879067,2,2,-1,-2,-2,-2,-1,-2
27866879067,2,5,3,-1,-1,0,-1,-2
27866895621,-1,-9,-3,-3,-1,-1,-3,-4
27866895621,0,9,0,-1,0,-2,-1,-2
27866897031,0,2,1,0,-1,1,-2,0
27866897031,1,0,-2,-2,-2,-2,0,-2
27866909238,-1,-3,-2,-4,-1,-2,0,-1
27866909238,-4,-13,-5,-2,-1,0,-2,-2
27866918129,0,4,3,0,0,1,0,1
27866918129,2,3,-1,-1,-1,-1,-1,1
27866932353,-2,-4,-1,-1,-1,0,1,2
27866932353,-3,-4,-1,0,-2,-1,0,0
27866939347,0,-5,-6,-3,-1,0,-2,-2
27866939347,-1,2,2,-1,-2,-1,-1,2
27866955589,1,4,3,1,0,0,0,1
27866955589,-3,-6,-3,-4,-1,-1,-2,-1
27866957080,-3,5,1,1,1,0,1,0
27866957080,0,-3,0,0,-1,0,0,0
27866969172,-2,0,-1,1,0,1,0,0
27866969172,3,6,1,-1,-2,-2,-2,0
27866978085,-2,-11,-6,-1,-1,0,-1,1
27866978085,1,3,0,-2,-1,-2,0,0
27866992444,-1,2,-1,-2,-3,-1,2,2
27866992444,4,1,-3,-2,1,0,-1,-2
27866999121,-1,4,-1,-1,-1,0,-1,-3
27866999121,0,-4,-4,0,2,0,1,-3
