30369222622,1,-3,1,2,6,0,1,3
30369222622,0,1,2,3,10,3,-2,-1
30369223232,1,6,5,10,11,6,2,0
30369223232,4,7,5,10,12,6,5,7
30369224106,-2,6,-2,10,12,7,-1,2
30369224106,3,8,3,10,14,10,7,2
30369224897,4,5,1,7,3,3,3,0
30369224897,0,10,7,17,18,12,-2,7
30369235605,2,6,5,8,11,11,5,5
30369235605,3,-3,-4,8,11,3,7,8
30369244274,-2,3,2,8,10,8,3,1
30369244274,2,1,6,7,2,6,-1,1
30369252031,2,4,3,11,10,7,1,3
30369252031,2,-1,-2,-3,1,-2,-2,-3
30369265609,-5,0,3,4,3,0,2,1
30369265609,-7,-2,-5,-1,5,0,-1,0
30369277067,-2,-4,-4,-3,1,-1,-4,2
30369277067,2,3,4,3,-1,2,2,-1
30369280568,0,-1,-2,-1,3,4,-3,3
30369280568,0,0,-2,-2,6,-2,1,0
30369295652,3,3,1,1,0,-3,2,-1
30369295652,-2,3,-6,1,6,-6,2,2
30369304194,6,0,0,-5,0,-2,-3,-4
30369304194,-1,-2,-2,-3,-2,0,-2,-5
30369343774,-2,-2,-3,2,1,3,-1,3
30369343774,-4,-4,-3,-1,-1,-5,1,3
30369344570,4,-1,1,-2,-2,-3,-2,-2
30369344570,2,3,2,2,-1,-1,5,-2
30369345369,-1,-6,-1,-5,-2,-2,0,2
30369345369,-2,2,-1,-4,-6,-3,-4,-1
30369348533,-2,-1,0,-2,-2,-3,-5,-8
30369348533,0,-1,2,-3,-5,0,-9,-2
30369355529,-2,2,1,-1,-4,-7,-4,-8
30369355529,-3,-7,-4,-8,-8,-8,-8,-11
30369362970,-5,-6,-4,-2,-7,-4,1,-2
30369362970,-2,-9,-8,-9,-9,-4,-3,-4
30369371824,-5,-7,-6,-3,-5,-2,-3,-3
30369371824,-5,-3,0,-2,-11,-4,-4,1
30369385444,-4,-5,-1,-1,-4,-1,0,1
30369385444,-5,-10,-5,-3,-3,-2,-4,0
30369394326,-7,-3,2,-6,-3,2,1,3
30369394326,7,-1,-3,-3,2,2,1,-1
30369400473,-4,-5,3,0,0,-1,0,-1
30369400473,-4,1,-1,-3,3,2,0,3
30369415345,2,-1,3,2,-7,-1,2,4
30369415345,-2,-1,2,3,7,4,3,4
30369422927,-3,1,1,2,3,8,-1,6
30369422927,-1,5,1,4,1,2,5,0
30369431815,4,0,4,1,4,8,3,0
30369431815,-1,1,7,11,8,12,3,2
30369445507,1,6,-2,6,11,4,6,6
30369445507,0,-1,3,8,14,5,1,0
30369454321,5,10,2,10,12,9,4,2
30369454321,1,6,3,9,15,5,4,6
30369460415,6,3,3,10,9,7,1,8
30369460415,-3,3,4,13,15,8,-1,8
30369475458,2,7,4,9,11,7,4,1
30369475458,3,5,5,13,14,5,-3,4
30369482964,-5,5,6,5,12,2,-1,-3
30369482964,3,6,1,15,16,10,2,7
30369491918,-2,2,-2,6,11,9,1,6
30369491918,4,5,1,7,9,6,5,5
30369505421,3,8,4,8,8,8,2,0
30369505421,4,5,2,9,10,0,1,3
30369514342,3,2,5,10,6,-1,-3,-4
30369514342,0,6,3,9,7,1,6,5
30369520447,2,-3,-3,9,13,1,1,3
30369520447,3,2,0,6,5,6,5,-3
30369535461,0,5,0,4,2,1,3,2
30369535461,-3,4,-2,6,1,-1,4,0
30369542941,0,2,1,2,0,0,0,6
30369542941,-1,0,3,1,4,4,2,4
30369551792,1,2,-1,1,5,1,1,0
30369551792,-3,3,0,1,0,9,4,-2
30369565419,4,2,-1,1,2,1,1,1
30369565419,1,0,4,-4,-5,-6,2,-3
30369574336,-3,-2,1,-1,-3,-7,3,2
30369574336,5,0,1,-3,-4,-3,-6,-4
30369580367,-4,1,-7,1,2,1,0,2
30369580367,2,-2,-1,-1,0,3,1,-4
30369595454,1,-1,0,2,3,3,-1,3
30369595454,0,-1,4,-4,-3,0,0,-4
30369602940,-3,-1,-1,-5,-5,0,-2,-2
30369602940,2,4,-3,-1,-5,-5,-3,1
30369611765,1,4,1,0,1,-5,1,2
30369611765,0,2,-5,-2,-1,4,-2,-2
30369625464,-1,-1,0,-7,1,-4,1,-2
30369625464,0,3,-3,-3,-4,1,-1,-4
30369634288,0,1,-1,-1,-3,-2,0,0
30369634288,-3,-4,-1,-3,-6,-4,-6,1
30369648681,-3,-2,-1,-2,-4,4,-3,2
30369648681,-3,-1,-1,0,0,1,1,-3
30369655448,0,-7,-3,-5,-4,-2,3,-3
30369655448,3,1,0,-4,-3,-4,-2,1
30369662867,6,-1,-1,-3,-4,-2,-6,0
30369662867,-3,-3,1,-1,-6,-2,-1,6
30369671802,0,-2,0,-3,-5,4,-5,-2
30369671802,-1,-5,-1,1,0,-4,0,0
30369685426,-1,-1,3,-3,-6,-4,0,-4
30369685426,-1,0,-4,-2,0,2,-3,-1
30369694372,-1,-4,1,-3,1,0,0,-6
30369694372,-5,-2,-3,0,3,-2,3,0
30369708671,3,-1,-4,5,-2,3,-1,-6
30369708671,-1,-6,-6,-2,-2,-4,2,2
30369715453,-6,-2,-1,-2,-4,-1,-1,-2
30369715453,2,-4,-1,-8,-2,-3,1,5
30369722888,1,-2,-5,-2,-6,5,2,-3
30369722888,-3,1,3,1,-1,-3,-1,1
30369731969,1,-3,-1,-1,0,2,-4,2
30369731969,-5,-1,1,0,-6,0,1,-2
30369745411,-3,0,0,-4,3,-4,1,-1
30369745411,3,-2,-2,-2,-5,0,4,-4
30369754326,1,1,0,4,5,-2,-7,2
30369754326,5,-1,0,-3,-3,3,-1,-5
30369768624,-5,-1,3,0,-6,-4,-2,6
30369768624,1,-2,4,-2,-6,2,-1,-1
30369775459,-3,-2,-4,-5,-8,-1,-3,-4
30369775459,-2,-5,-4,-3,0,0,-3,-4
30369782924,0,0,-5,2,2,-3,3,-4
30369782924,-2,-2,-3,-1,1,3,2,1
30369791917,-1,-2,-1,-1,-3,-1,0,0
30369791917,0,-5,2,-1,5,0,-2,0
30369805432,3,-6,0,-2,5,2,-1,-1
30369805432,-2,-3,1,-5,0,-2,-1,-4
30369814489,4,-1,-1,4,-1,2,-4,4
30369814489,-2,1,-2,-1,-4,1,0,3
30369828617,-3,1,1,-7,-10,-5,-2,-2
30369828617,-5,-5,-7,-7,0,0,-3,-1
30369835374,1,2,0,-1,0,3,-1,2
30369835374,-5,-1,-2,-4,-2,-3,1,-2
30369842923,-5,-4,1,-2,-4,7,-1,3
30369842923,-2,1,0,1,-2,0,-6,1
30369851821,-2,-2,2,-5,-1,-6,2,-4
30369851821,-1,1,-2,3,5,2,0,4
30369865401,-3,2,-2,3,4,-1,-1,1
30369865401,-1,5,1,4,5,4,-3,-1
30369874318,-3,-6,-6,-3,0,-6,-2,-4
30369874318,0,-3,0,0,-4,0,-1,-3
30369888625,0,-2,1,6,5,-1,1,0
30369888625,3,-2,0,1,-2,0,-1,0
30369903650,-2,3,0,-1,0,1,-1,-4
30369903650,-1,0,-1,-2,-6,-1,-2,-4
30369904319,-2,-3,-4,-3,1,-4,-3,-1
30369904319,-1,-2,4,-2,-3,3,3,4
30369911798,-3,-1,-3,-1,1,-4,-3,-5
30369911798,0,1,-6,-6,-3,-2,0,-2
30369925457,-3,0,3,-1,-2,-2,0,3
30369925457,-1,3,-1,-1,5,-2,1,-5
30369934282,0,0,-1,2,3,5,1,3
30369934282,-4,-4,-1,-3,-4,-2,-2,-1
30369948552,-3,2,-3,0,3,3,4,2
30369948552,-4,-4,-2,-3,1,-1,-4,3
30369955475,-3,1,0,-2,-3,2,-1,-3
30369955475,-7,-5,-2,0,2,2,2,-1
30369962868,-5,-3,-4,1,-4,-1,0,1
30369962868,1,-4,-2,0,-4,-3,1,-1
30369977833,-6,-3,-8,-2,1,-3,4,2
30369977833,0,0,2,0,-5,-2,-3,-4
30369985416,1,1,0,-4,-5,-2,-2,0
30369985416,0,3,3,-1,-3,-5,2,1
30369994315,2,1,-4,-5,-5,-3,-1,-1
30369994315,-1,-1,-1,-4,-3,-6,-4,-3
30370008614,2,0,-4,-5,-1,-3,-1,-6
30370008614,-3,0,-1,-3,-5,-1,-1,1
30370015367,-1,4,2,3,-7,0,3,-1
30370015367,-1,2,-1,2,-7,2,1,5
30370022959,-1,-2,-3,-1,-1,2,3,2
30370022959,-7,-1,-2,-1,1,0,2,-3
30370037813,4,-8,1,0,3,1,1,6
30370037813,2,-2,0,5,12,1,2,3
30370045495,-3,-6,-6,-2,-1,0,2,-2
30370045495,0,-2,-6,-3,0,-4,1,-7
30370054314,-3,-2,3,-3,-1,-2,-3,-4
30370054314,4,4,3,-4,-3,-1,-3,-3
30370068577,1,3,6,-4,-4,-3,-7,-6
30370068577,1,-4,1,1,-8,-2,-1,-7
30370075325,3,-5,2,1,1,1,-3,-1
30370075325,-3,1,-1,2,-2,-3,-4,3
30370082944,-2,-2,0,-3,-6,-1,-4,-2
30370082944,-1,1,-2,-1,-5,-3,-1,0
30370097852,-3,2,1,0,4,-4,-1,1
30370097852,4,1,-2,-2,-5,-1,-4,0
30370105441,1,-2,1,0,0,-3,4,3
30370105441,1,2,1,-5,-7,-3,-5,-3
30370114303,-3,1,-6,-2,-4,-2,-3,-4
30370114303,1,0,-4,-2,-5,-7,0,-2
30370128585,-3,-3,-1,-2,-2,3,-5,-2
30370128585,0,1,2,-1,7,5,-3,2
30370135422,-5,0,-4,-3,1,1,0,2
30370135422,-3,-1,0,0,4,4,0,1
30370142937,0,-3,-1,-1,-5,-2,1,-7
30370142937,-7,-1,0,-2,-4,2,0,-3
30370157929,-3,-2,-1,-1,-2,0,4,2
30370157929,1,0,1,3,5,9,5,-1
30370165313,3,1,-3,-4,-2,-3,-6,-4
30370165313,3,-1,-3,-4,-3,3,-3,4
30370181813,-2,1,-1,2,6,6,6,1
30370181813,-1,0,0,-5,-1,-3,-6,-5
30370188714,-2,2,3,4,-1,-1,1,0
30370188714,2,0,-1,1,3,-1,-3,3
30370195422,6,-1,-1,4,2,4,-2,0
30370195422,0,-2,0,-2,-3,-1,0,-2
30370202809,-3,-5,-1,1,-2,5,-2,-1
30370202809,3,-3,-2,-4,-3,-6,-6,-6
30370217930,1,4,-6,-8,-8,-7,-4,1
30370217930,-6,-3,-2,1,-3,-1,-3,1
30370226070,2,1,-3,2,3,-2,-6,3
30370226070,0,-1,-1,-2,0,1,0,0
30370232953,0,3,4,0,-4,0,-2,0
30370232953,0,-7,-2,-4,-6,1,-2,-5
30370248631,-2,3,1,0,-2,-4,-4,-3
30370248631,-3,3,-1,2,-5,-2,-1,5
30370255449,5,-2,2,-4,-4,1,-5,-4
30370255449,-4,-1,0,0,0,6,-1,2
30370262870,6,2,2,-6,-3,1,0,-4
30370262870,1,-2,3,-2,4,-2,-2,-1
30370277976,-1,1,-2,-6,-5,-1,-4,4
30370277976,1,-3,-3,-3,2,-1,1,-1
30370286127,-4,7,-4,-1,1,0,-4,-2
30370286127,-7,-1,-1,0,2,-1,-1,3
30370292942,-6,-3,-1,4,3,-1,2,0
30370292942,-2,-1,-3,-6,-1,-3,-3,-2
30370308596,-3,-2,4,-4,-1,1,0,3
30370308596,-3,-5,-8,-2,-2,-2,-2,0
30370315372,-1,-1,3,1,6,-1,-1,-1
30370315372,1,1,-1,-2,0,-1,0,3
30370330973,0,-6,-2,0,2,-3,-1,2
30370330973,-3,1,1,-1,-7,0,-1,0
30370337917,2,1,-2,-3,3,-3,-2,-11
30370337917,3,-4,-4,-2,2,-2,-6,0
30370354223,0,1,-3,-2,-5,3,1,-2
30370354223,3,-1,-4,-1,3,-1,-1,-4
30370355789,-1,-6,-5,0,-3,3,0,1
30370355789,-6,4,3,0,7,-4,1,1
30370368627,-1,-2,-3,-3,-3,-1,-4,-5
30370368627,0,-3,3,2,-1,0,0,3
30370375528,0,-2,2,-7,-1,0,-4,3
30370375528,-1,0,-4,-3,-5,0,-2,-5
30370391117,0,-4,2,1,-2,1,0,-4
30370391117,-4,-1,-5,-3,-3,-2,3,-1
30370397808,1,-4,0,2,-5,2,-1,0
30370397808,0,-3,0,-2,0,0,-6,3
30370414190,-2,-3,1,4,3,-2,-3,0
30370414190,3,-5,-5,0,-2,0,0,1
30370415767,2,2,-2,2,4,2,3,-3
30370415767,-1,3,1,1,2,-3,0,-3
30370428634,-1,-7,-2,0,2,-2,5,4
30370428634,-2,-1,-1,-2,-6,0,-1,-2
30370435400,-1,-1,2,-3,-3,-4,-1,-4
30370435400,-1,-2,3,0,-4,0,2,-6
30370451110,-1,0,-2,0,1,-4,-2,0
30370451110,0,1,4,-1,-1,2,2,0
30370457980,4,-2,-2,-4,-6,-4,-3,-1
30370457980,4,1,-3,-2,-4,5,3,-4
30370474117,-2,2,-3,1,3,-3,-2,-4
30370474117,-1,4,2,3,4,-1,-2,1
30370475718,-3,-4,-3,-2,-1,-2,1,2
30370475718,0,-3,-3,-2,-2,1,1,5
30370488514,2,-5,-5,-8,-2,0,1,3
30370488514,5,-3,-1,1,-1,-3,-2,-1
30370495438,-6,-1,-1,-4,-5,0,-1,2
30370495438,-3,-5,-4,-7,-4,-2,-3,1
30370511123,-2,-1,-3,-1,-2,4,2,2
30370511123,-4,0,-1,-5,-1,-3,-2,4
30370517893,-6,-1,0,0,2,4,-2,-2
30370517893,7,-6,-3,2,0,-4,-1,-2
30370534197,5,0,2,-4,-5,-2,0,-5
30370534197,3,-3,0,-3,-2,-3,-3,-3
30370535773,-2,-3,-2,1,-5,-3,-2,4
30370535773,-3,4,1,2,0,3,2,6
30370548552,0,0,1,2,0,6,0,-2
30370548552,2,3,-3,2,-4,-2,-1,0
30370555433,-4,2,-1,-2,0,-6,0,-6
30370555433,-3,-3,2,-1,-3,0,0,-2
30370571098,-8,-2,-3,-4,2,0,0,1
30370571098,1,-4,0,-7,-1,1,3,-5
30370577983,5,-2,-1,-2,-1,0,-3,-2
30370577983,-2,-1,-1,-4,-4,0,3,0
30370594264,2,4,-5,-1,-8,-7,-3,-4
30370594264,2,-4,3,3,3,2,-6,-6
30370595700,-2,-2,0,0,1,-3,-1,7
30370595700,-2,2,-5,-2,-3,4,-1,-6
30370608622,-3,-2,-2,-5,-4,-2,0,1
30370608622,-6,-1,-3,1,3,1,-1,3
30370615361,-2,1,-4,4,3,-2,0,-1
30370615361,-5,0,-4,-2,1,-1,2,-2
30370631045,0,-2,-1,-1,2,2,5,2
30370631045,-3,-2,-5,-2,5,-5,-1,3
30370637871,1,-1,-2,-4,0,-2,-1,-6
30370637871,-2,-1,-2,2,-1,-3,-3,-5
30370654679,0,3,1,-5,-8,-8,-4,2
30370654679,0,-3,2,-3,-4,8,2,-5
30370660447,-2,-3,3,0,1,0,1,0
30370660447,-1,-5,-1,6,3,-1,0,3
30370667911,0,-3,0,-4,-3,-1,-2,-1
30370667911,1,-3,-3,-1,-1,0,0,0
30370676826,-2,-2,0,0,1,-3,2,-3
30370676826,-2,-4,3,-3,0,2,-4,1
30370691099,-5,-2,-4,-1,0,-2,-6,-5
30370691099,-7,0,-7,-4,5,-2,-4,-2
30370697859,4,-6,-3,2,1,2,1,0
30370697859,-1,1,-4,-5,-3,-5,-6,-4
30370714175,0,-4,0,0,-4,2,-4,-2
30370714175,-3,1,-5,-8,-2,-4,-5,-3
30370715771,1,-3,-2,-2,-1,-3,-4,-3
30370715771,-3,4,0,-4,-2,-7,-3,3
30370727948,0,3,1,4,0,1,3,5
30370727948,1,-7,1,-1,-7,-6,-2,3
30370736790,-5,2,2,-1,0,-3,1,1
30370736790,-3,-3,-2,0,2,2,2,-1
30370751099,1,0,-4,2,1,1,3,-4
30370751099,-2,-2,-1,-1,1,-4,5,-1
30370757941,-1,-10,-3,-8,-12,-2,-5,3
30370757941,3,-2,1,-3,-2,-7,-2,3
30370774243,-5,-1,0,2,2,5,2,-2
30370774243,1,6,-3,1,-2,-1,0,1
30370775729,2,-2,-4,-1,-2,1,1,2
30370775729,-3,-6,-10,-3,0,-6,-2,0
30370787897,-1,-5,0,-5,6,-3,0,3
30370787897,1,-6,-1,1,-3,-2,0,3
30370796822,1,0,-3,-2,8,2,6,-4
30370796822,-1,-3,4,-3,-7,-1,-1,-3
30370811131,4,0,0,-3,-1,-3,-2,-2
30370811131,-1,1,-2,-4,-5,2,-4,-3
30370817977,-1,2,-1,-1,0,2,0,0
30370817977,4,1,1,2,7,0,2,-3
30370834173,1,0,-4,-1,-6,-5,-6,0
30370834173,-2,0,-1,1,4,0,2,-3
30370835751,1,-3,2,-3,-7,-8,-11,-2
30370835751,-1,-4,-3,-1,-2,2,-3,2
30370847857,-1,-6,-1,-6,0,-3,-1,-3
30370847857,-2,1,0,-5,-2,-4,0,7
30370856800,-1,6,0,-1,-7,1,3,-3
30370856800,4,-2,1,0,-5,-4,-1,-3
30370871011,-2,-3,-2,-4,-2,-2,1,0
30370871011,-3,1,-1,-5,-5,-5,-1,-7
30370877998,-3,-1,-3,-1,-2,1,4,-1
30370877998,-3,0,0,-1,-3,4,-1,2
30370894243,0,1,3,3,3,1,0,4
30370894243,-1,-2,1,-4,-3,-3,-5,-1
30370895742,1,2,-2,2,4,-2,0,-5
30370895742,1,-1,-6,-3,-6,-1,-1,-3
30370907923,-1,-7,-4,-4,-3,3,-3,-6
30370907923,-4,-1,-7,3,-2,8,2,0
30370916816,-3,-7,-2,-4,5,-3,0,-1
30370916816,-3,-5,-1,-3,-3,-5,-4,-3
30370931009,2,4,5,7,3,2,3,1
30370931009,1,-4,-1,1,0,-3,0,-4
30370937866,-2,-3,-4,-4,-7,-1,-4,1
30370937866,1,-1,1,-1,-4,-2,-1,-2
30370953641,-3,-1,-2,-2,2,1,-2,1
30370953641,0,-1,2,2,2,3,-2,-2
30370960429,-3,5,4,0,1,-1,1,-5
30370960429,-1,-3,1,1,8,-1,0,-1
30370967762,0,-4,0,-2,1,6,3,0
30370967762,-1,3,-3,5,2,1,1,-2
30370976796,0,0,-3,-4,-5,1,-3,-4
30370976796,-4,4,-4,-4,-4,2,1,-3
30370991108,-2,4,-2,-2,-1,-4,0,-2
30370991108,-1,-2,3,-2,3,2,-3,1
30370997784,-3,-3,-1,2,-3,4,-2,-2
30370997784,-3,1,2,2,0,1,0,2
30371013627,-2,-1,-6,-2,-3,-3,2,-2
30371013627,1,3,-2,-3,-9,-2,-6,-1
30371020465,-5,0,1,-2,-3,-1,-2,-3
30371020465,1,-1,-1,-3,-2,4,-3,-2
30371027920,-4,-5,1,-2,-3,0,1,-4
30371027920,2,1,1,-3,5,-6,-1,3
30371036766,0,-2,-6,-2,-4,-4,1,-5
30371036766,-2,2,-3,-5,-4,-1,1,1
30371051756,-5,2,0,-5,-9,-2,-8,0
30371051756,-5,-7,2,-2,-3,1,0,-3
30371057912,2,0,2,-4,3,-2,-1,-2
30371057912,-3,-4,-2,0,-1,-4,0,-1
30371072845,-1,-1,-5,-4,0,2,-1,0
30371072845,0,-6,-2,1,-3,0,-2,2
30371080386,-1,-2,0,-2,-4,-3,-3,2
30371080386,-3,-4,-5,6,9,6,0,-1
30371096059,2,-2,2,0,4,-1,3,0
30371096059,-1,-1,-2,-6,-4,-2,0,3
30371096715,-1,-4,0,-1,5,-1,-4,0
30371096715,-2,-3,-3,2,-3,4,1,6
30371111775,-3,-2,-4,-1,-6,-5,-4,5
30371111775,-4,1,-4,1,-2,-2,0,1
30371117872,1,0,-5,-5,-7,-1,-2,0
30371117872,-4,4,2,-9,-7,-5,-4,-6
30371132795,-1,-4,-2,-6,-6,0,-6,-4
30371132795,2,-5,2,2,-5,1,-4,-3
30371140439,-3,-8,-2,1,-3,3,-3,-1
30371140439,0,-3,-2,-5,-5,-1,-3,-1
30371156081,2,-1,1,-1,-5,-6,0,0
30371156081,-1,-1,-2,-5,-1,2,-2,-3
30371156785,4,-3,-9,-8,-5,3,-5,-1
30371156785,2,-6,-3,-2,-2,-2,-2,1
30371171816,-3,0,-1,0,-4,5,3,-4
30371171816,3,1,-2,-4,0,1,-2,-2
30371177992,-1,-2,-1,1,-5,-2,-1,2
30371177992,3,-3,-3,1,1,-2,-4,-4
30371192904,-2,1,-5,-3,0,-1,-3,-4
30371192904,-1,-5,-2,-2,-6,-2,-3,-1
30371200367,-2,-3,-1,1,-2,-3,5,-3
30371200367,-3,-2,4,-2,3,-2,-2,0
30371215969,2,-2,1,4,8,0,-2,-8
30371215969,1,4,2,1,-4,-1,-5,-7
30371216738,-3,2,-2,4,3,0,-1,3
30371216738,4,4,-1,-3,-3,-1,1,1
30371231809,1,1,-1,3,-3,-3,-1,-4
30371231809,1,-2,-2,0,1,-1,-1,-2
30371237889,-3,1,0,2,3,0,-1,2
30371237889,0,-5,-2,4,-3,0,3,-2
30371252923,3,0,1,2,0,-3,0,1
30371252923,-3,-8,-5,-1,1,-4,4,-3
30371260472,2,-4,1,-6,-11,-8,-3,-2
30371260472,-3,0,-1,-2,-2,0,-4,-3
30371276073,4,1,-1,0,0,-1,-2,2
30371276073,2,1,-2,1,-6,0,1,2
30371276775,-4,-3,-2,1,1,1,-4,0
30371276775,-3,-5,-1,-2,1,-4,-1,-3
30371291825,-2,-7,-1,2,-5,-6,-2,2
30371291825,-1,5,1,-4,-2,1,1,-4
30371297847,-3,-3,-6,-1,2,1,1,3
30371297847,1,4,2,-3,-6,0,-2,-2
30371312913,-2,3,2,-3,-2,-2,-1,-1
30371312913,-2,2,-1,-2,-4,-4,-6,-2
30371320397,2,1,4,0,-6,-7,-2,-4
30371320397,4,1,-2,0,-1,1,0,4
30371336062,-2,-2,-4,-2,1,-2,1,-4
30371336062,-2,-5,1,-3,3,0,1,1
30371336729,0,1,1,-1,2,2,-1,1
30371336729,2,1,4,2,1,-3,-2,2
30371351761,-3,-4,-4,-4,-3,-2,-5,2
30371351761,4,-2,-2,-2,1,-2,-2,-7
30371357927,3,0,-1,-3,-1,1,-3,0
30371357927,-4,-3,-1,-7,-5,-2,-5,-1
30371372901,-2,-2,-1,-4,-4,-4,-3,0
30371372901,1,0,2,-1,-2,-4,2,2
30371380411,-1,0,3,-1,-3,1,1,-3
30371380411,-3,0,-6,1,-1,-5,-3,-7
30371396095,5,-3,1,-3,-3,-1,-3,-1
30371396095,-1,0,-2,-4,2,-1,-1,2
30371396727,3,2,4,2,3,1,-3,-3
30371396727,-7,0,0,1,-2,2,1,-3
30371411773,-2,-3,1,-1,0,0,-2,1
30371411773,-1,-1,5,2,1,-1,-4,-3
30371417909,0,-1,-5,-8,-1,-5,1,-7
30371417909,1,-4,-3,2,4,-2,1,-3
30371432900,0,-2,-1,1,2,-2,-7,2
30371432900,-2,2,-9,-2,0,2,4,2
30371440335,0,-2,4,-1,-5,-2,-1,2
30371440335,2,5,2,-6,-11,-7,-3,-4
30371456002,-4,-1,4,-2,0,-3,2,0
30371456002,1,3,1,1,-1,1,-3,3
30371456777,-7,1,0,0,-1,-1,-3,-5
30371456777,-3,-2,0,-1,1,2,4,0
30371471782,4,3,-2,0,1,2,4,5
30371471782,-4,-4,-2,-4,-10,-4,0,-3
30371477768,-1,-2,-4,-1,-4,-1,-1,2
30371477768,0,-2,-3,0,0,-3,0,1
30371492836,0,-1,-5,2,4,1,-1,-4
30371492836,-3,-2,-3,1,3,-2,-1,-5
30371500393,3,0,5,1,1,-2,-5,-1
30371500393,0,-1,-2,-4,-2,-2,1,1
30371515951,-1,3,1,0,-7,1,-1,1
30371515951,3,0,-1,1,-7,-2,-5,1
30371516726,-3,2,-5,-2,-2,2,3,2
30371516726,-7,1,-1,-2,-2,-2,-1,5
30371531821,3,-2,0,2,1,0,3,-3
30371531821,0,-1,0,-2,-3,0,-1,5
30371538051,0,-2,-6,0,0,-2,1,-1
30371538051,2,-6,-5,-2,-1,-1,-3,-3
30371552934,0,-2,-4,-5,-3,-3,3,4
30371552934,-1,-1,-2,1,-4,-1,-2,-9
30371560402,-1,-3,-3,0,-2,0,-1,1
30371560402,1,-1,-5,1,3,1,1,-2
30371576083,-3,0,-1,-5,-7,-3,-1,-1
30371576083,-3,-7,0,-6,2,-2,0,0
30371576772,3,-4,-2,0,-4,-3,1,-1
30371576772,-3,-3,3,-2,-1,-4,-1,-1
30371591819,1,0,0,-1,-5,1,-4,-4
30371591819,-4,-3,0,0,0,2,3,3
30371597799,0,0,-2,-2,5,2,-2,1
30371597799,0,0,2,1,2,1,-1,1
30371612903,-1,1,3,-2,1,-1,-3,0
30371612903,-1,-5,-1,-4,-8,-4,-2,1
30371620395,1,4,-1,-3,-5,0,-3,3
30371620395,2,4,3,0,-2,1,-5,-4
30371636047,-4,-4,-1,0,-3,-1,1,-5
30371636047,-2,0,-1,-2,1,0,1,-3
30371636717,-5,0,-1,0,-5,-5,-5,3
30371636717,2,2,-2,-3,4,-2,-3,-1
30371658619,4,3,8,1,-2,-1,-1,-3
30371658619,-1,-1,-1,2,4,3,-3,2
30371659279,-2,-1,0,-4,3,-1,-1,-1
30371659279,-1,3,2,-10,-8,-4,2,-4
30371672879,-2,-2,2,-2,-2,-2,-3,-6
30371672879,-5,3,2,3,4,-5,-2,-3
30371680286,0,-1,2,0,-2,4,-2,-1
30371680286,0,-4,3,2,0,-2,-4,3
30371695997,-2,2,-1,-1,4,2,0,0
30371695997,5,1,-3,-1,-6,1,1,4
30371696714,-6,-2,-4,-3,-4,0,3,-2
30371696714,-2,4,0,0,-3,1,-3,-2
30371711769,-3,-6,-5,-2,-3,-3,-4,2
30371711769,-1,-1,-4,-3,5,-4,-1,-4
30371717873,-1,-8,-3,-4,0,-4,-1,0
30371717873,0,-5,-6,2,5,6,1,2
30371732887,-3,-4,-5,3,2,3,0,5
30371732887,-5,0,-2,-1,-3,0,-1,1
30371740329,7,5,4,-1,-1,0,-6,-2
30371740329,-1,-4,-3,-4,-4,-3,5,-2
30371756026,1,0,-2,-3,-9,-4,0,-2
30371756026,-8,3,3,3,2,-2,2,-3
30371756777,3,0,-1,-4,-3,-2,-3,1
30371756777,-3,-4,2,-1,-1,-1,-5,0
30371771797,1,-2,-3,-1,-4,-2,-4,-5
30371771797,5,1,2,-1,0,0,-1,-3
30371777867,-1,1,-3,1,4,-4,3,-2
30371777867,-3,2,-3,2,1,4,-3,-4
30371792916,2,0,-6,-2,-1,-1,0,2
30371792916,-2,0,0,-2,7,-1,1,4
30371800429,-3,-3,-1,-5,0,0,-1,-3
30371800429,2,0,-2,-4,-10,-3,-4,-1
30371816026,0,-4,5,-5,-7,-3,2,-5
30371816026,1,-7,-9,-8,-6,-3,-1,-4
30371816744,-4,0,-5,-1,-7,2,0,3
30371816744,-1,-2,-3,-5,-4,-5,0,0
30371831793,-4,-4,-3,-5,0,-1,0,1
30371831793,4,1,3,0,2,-1,-2,0
30371837847,0,-1,-1,0,-2,1,-4,-4
30371837847,3,-2,-2,-1,2,3,0,-2
30371852932,-4,1,-3,-2,-5,1,-4,-1
30371852932,0,-2,2,-6,-8,-2,0,-4
30371860409,2,3,-1,-1,-2,-3,-3,1
30371860409,1,-1,-3,0,-1,-1,-2,1
30371875430,-1,-2,-2,-4,-2,-1,-3,0
30371875430,-6,1,-5,-6,-7,-1,-4,1
30371882931,-1,-9,0,-3,3,-3,0,0
30371882931,0,2,-1,-3,-1,0,2,3
30371891808,0,-4,-2,0,2,-4,0,0
30371891808,-3,2,-2,-5,-6,-1,-3,-4
30371897782,1,-1,-4,0,2,-1,0,-5
30371897782,-3,-1,-2,-4,-8,-1,-2,-5
30371912993,0,2,-1,7,2,2,-2,3
30371912993,1,-1,0,6,-4,-1,2,-2
30371920367,-1,0,3,2,5,1,7,-5
30371920367,0,-3,0,0,2,-1,1,0
30371935400,-5,-3,-1,-4,-6,1,-2,6
30371935400,-2,-3,1,3,3,-3,0,4
30371943007,-4,-1,0,0,-3,2,-2,-4
30371943007,-3,-5,-4,-1,0,-2,-3,-5
30371951790,4,1,-5,-2,4,-2,4,-1
30371951790,0,0,-2,2,3,2,-2,0
30371957863,-4,-2,-3,-4,-1,-4,-3,-2
30371957863,3,0,0,-1,0,3,2,3
30371972933,0,0,2,4,-5,-3,-3,-4
30371972933,3,-3,-2,0,-5,-4,-1,-1
30371980271,0,4,-2,-2,5,-2,-6,4
30371980271,0,1,0,-2,0,-5,-4,-4
30371995279,-4,0,-4,-6,-1,-4,1,-1
30371995279,-2,-2,2,5,1,3,-2,4
30372002784,-1,-4,-1,-2,-5,-3,-1,4
30372002784,0,-1,0,3,2,-3,-3,-2
30372018535,0,3,1,-2,0,0,-1,-5
30372018535,-7,-4,-1,-1,0,3,0,-1
30372019221,-2,3,-2,2,1,-2,2,3
30372019221,-1,-2,2,-1,-3,0,1,-1
30372032780,0,1,-3,2,2,-2,1,-1
30372032780,1,-2,-5,-4,1,1,-4,-4
30372040329,2,-2,-2,-2,4,0,-2,-2
30372040329,0,2,-2,-1,-9,-5,0,0
30372055358,-1,-6,-3,-4,-1,-4,-1,2
30372055358,-8,-1,1,-5,-4,-3,-2,-1
30372063535,-1,-8,0,-6,-4,-8,-2,-6
30372063535,0,-1,3,-4,-1,-2,-3,4
30372078545,-1,-2,-1,-2,3,0,-3,0
30372078545,1,-4,-2,-6,-3,-6,-4,-1
30372079222,-6,-1,-2,-4,-7,0,0,1
30372079222,-2,-7,-4,-6,-4,4,-4,-1
30372092881,-5,-2,1,-2,-11,0,2,-1
30372092881,-2,0,-2,1,3,-2,1,5
30372100374,-3,1,3,1,-2,0,-3,-3
30372100374,-3,1,-11,0,2,-2,1,-2
30372115296,-2,-2,0,0,2,0,3,-1
30372115296,2,0,0,-2,0,-4,-2,-3
30372123571,5,-1,1,0,-6,2,3,3
30372123571,-2,6,-2,-7,-5,-3,1,0
30372138557,-2,-4,0,-1,5,3,-4,-1
30372138557,0,0,-1,2,-1,-2,6,-1
30372139241,3,2,0,-2,-4,-4,4,-9
30372139241,-3,-3,4,2,4,-4,1,-2
30372152892,3,2,4,-1,-5,-3,-4,-3
30372152892,0,0,-2,2,5,2,-1,-3
30372160445,-1,-4,-1,-5,2,-2,-1,-2
30372160445,3,1,2,6,2,-2,1,-8
30372175415,-5,-4,4,-2,-5,0,-5,0
30372175415,1,-2,-2,-1,-3,-3,-5,-1
30372183464,-2,2,2,-6,-4,-2,-3,5
30372183464,-5,-3,-3,1,4,2,2,1
30372198472,1,-4,-4,1,-1,1,0,-2
30372198472,-2,-4,2,0,-1,-1,-1,-4
30372199251,-2,-3,-3,-5,-8,1,-6,0
30372199251,-1,-3,-7,-2,-8,-3,-4,4
30372212919,2,-1,-2,1,5,-2,-2,0
30372212919,1,-5,0,-5,-5,0,-1,0
30372220459,2,-2,2,-2,4,-4,0,2
30372220459,-3,-9,-1,-1,2,3,-5,4
30372235300,-2,-2,-6,2,2,-3,1,4
30372235300,0,1,-1,-3,-2,0,-2,-2
30372243574,-5,-1,-4,0,1,1,-1,-2
30372243574,4,3,1,0,-4,-1,-1,-1
30372258519,0,-3,-6,-6,-1,-5,3,0
30372258519,0,0,-1,-4,-7,-5,1,-2
30372259194,1,0,-6,1,-8,-1,0,-1
30372259194,-3,-6,-2,-7,-5,0,-1,-1
30372272922,0,2,-1,-10,-5,3,0,-2
30372272922,-5,-1,-2,1,-4,1,-1,1
30372280295,1,-6,-3,-2,-8,-1,-2,0
30372280295,1,2,3,-1,-2,1,3,-1
30372295390,-5,-5,-2,1,-2,2,-4,-2
30372295390,6,-4,-2,0,2,1,0,2
30372303606,-7,-4,-3,-2,-1,0,1,-8
30372303606,-1,1,0,0,1,-2,-2,-1
30372318555,3,2,0,-5,-5,-1,-3,-7
30372318555,0,-4,1,-5,-5,-7,-3,1
30372319224,2,-6,-1,2,-2,3,2,2
30372319224,-3,1,-2,-6,-2,-1,0,-2
30372332770,-1,4,3,-2,-5,-6,-1,-5
30372332770,-7,0,-1,-5,-4,-1,2,-2
30372340400,-2,5,1,2,4,-5,-1,0
30372340400,-4,-1,-7,1,-5,-2,-4,1
30372355410,-2,-3,-5,2,5,4,5,6
30372355410,0,-2,-2,-1,2,-2,-2,2
30372363561,2,0,3,0,1,1,2,3
30372363561,1,1,-1,0,-2,-3,2,3
30372378549,-1,0,0,0,0,0,-1,2
30372378549,5,0,-5,-3,-6,-1,3,-3
30372379271,-2,-3,-2,1,1,-6,-3,-4
30372379271,-1,-3,3,2,5,2,-4,-4
30372392898,-3,-2,-3,-6,-4,-4,3,-1
30372392898,-3,-4,-1,-5,0,-3,-2,0
30372400393,-1,-2,1,2,4,0,-1,4
30372400393,1,2,2,0,4,-1,4,3
30372415327,-5,-2,5,0,0,-2,-1,1
30372415327,-8,-3,-5,-3,-9,-2,6,-6
30372423573,-3,2,-3,-1,3,3,-2,1
30372423573,1,-4,-5,0,1,0,-2,1
30372438517,-5,-7,0,-4,1,-4,-4,-4
30372438517,2,4,-1,1,2,-3,-2,2
30372439269,3,-4,-2,-3,2,3,2,-2
30372439269,-2,-2,1,-3,-8,-5,-3,-2
30372452893,1,-4,-2,1,-3,0,1,-2
30372452893,-2,-5,1,3,2,2,-3,1
30372460416,0,1,-2,-3,-5,-1,-4,-5
30372460416,-5,-8,-2,-3,-3,3,4,2
30372475336,3,3,-1,-4,3,-2,2,-6
30372475336,-4,4,0,-2,-4,0,-2,-2
30372483461,0,-1,0,-5,-6,-5,-5,1
30372483461,2,0,-2,-3,2,-3,-4,2
30372498446,-4,-4,0,-1,-2,-5,-2,4
30372498446,2,-2,-3,-1,7,5,-3,5
30372499240,-1,-1,-1,0,3,-1,1,0
30372499240,-5,-3,-5,-6,-4,-3,-5,-2
30372512888,3,0,-1,2,-1,-4,1,-1
30372512888,2,3,5,-2,4,-1,1,4
30372520420,4,0,-1,-3,-8,-1,-2,0
30372520420,-2,-3,1,-3,-2,1,1,4
30372535372,2,2,-4,1,-1,1,-2,-1
30372535372,2,-5,0,-2,-7,-2,2,3
30372543605,0,2,-3,-6,-7,-6,-1,-2
30372543605,-4,-1,-3,1,2,0,4,-4
30372558492,1,0,-5,-7,-8,2,-4,-3
30372558492,2,2,-3,1,2,-6,-2,-6
30372559194,-1,-2,2,-4,-1,-2,0,-3
30372559194,0,-1,-3,-4,-3,-1,-4,-3
30372572908,-3,-3,-1,-4,-3,-3,-1,1
30372572908,-5,-6,-3,-4,-6,0,-6,0
30372580498,-7,0,-1,-3,-2,-3,-3,2
30372580498,4,-2,-2,-2,0,1,2,-5
30372595474,2,-1,0,1,-4,0,-5,1
30372595474,5,0,2,-1,5,1,-1,-2
30372603650,-1,2,0,-3,0,0,0,-5
30372603650,-4,0,1,-4,-4,-3,-4,-7
30372618555,-5,-1,2,-1,-3,-1,-4,1
30372618555,1,-1,-4,-1,-2,1,1,1
30372619211,-3,-3,-2,-1,-1,-1,-3,-4
30372619211,-1,3,1,0,-4,0,2,1
30372632770,0,5,1,-2,5,1,4,1
30372632770,-3,-1,-2,-8,-3,-4,-3,-2
30372640372,-6,1,-1,3,0,6,1,1
30372640372,2,2,-3,0,1,-1,-1,0
30372655433,-2,-3,0,0,-3,-6,-5,-3
30372655433,-4,-2,-1,-5,-6,-3,0,-3
30372663540,-1,-6,-4,-4,-2,-3,2,5
30372663540,-2,3,0,0,-3,-4,0,-1
30372678518,1,-2,-3,-5,-3,-1,-6,-3
30372678518,3,3,0,0,-4,-3,0,-2
30372679216,4,-3,1,-2,-7,-3,1,0
30372679216,-2,-4,0,1,-2,0,-1,-2
30372692932,-1,2,-1,0,-4,-1,-3,4
30372692932,-1,-2,0,3,-2,0,-2,-1
30372700435,-1,-2,-1,-2,0,-4,-1,-5
30372700435,-1,4,-3,4,5,-3,2,5
30372715301,-3,-4,-3,2,-1,2,1,0
30372715301,-1,-3,0,3,1,0,-1,1
30372723549,3,1,-1,1,3,-3,-3,1
30372723549,-1,-2,3,-4,2,-3,-1,-4
30372738549,1,-3,-3,0,0,0,3,2
30372738549,-7,1,-3,-2,-2,-2,-6,-1
30372739243,-1,1,-2,-3,3,-1,-2,-4
30372739243,-4,-1,-2,-2,1,-2,3,-4
30372752873,5,-2,-1,3,2,1,5,-7
30372752873,-5,3,-1,-3,-9,-4,3,-5
30372760451,-1,1,-4,-4,-3,0,-2,-3
30372760451,-2,-5,-2,1,2,2,0,0
30372775337,3,-1,3,-3,-4,-3,0,-4
30372775337,-1,-4,-3,2,3,-3,-4,-5
30372783507,-1,-4,-8,0,-3,2,6,3
30372783507,5,-1,1,-1,-5,-4,0,-5
