28420692877,-0.0750732421875,0.247375488281,-0.921203613281,0.290710449219
28420722992,-0.0750732421875,0.247436523438,-0.921203613281,0.290710449219
28420729822,-0.0751342773438,0.247436523438,-0.921203613281,0.290710449219
28420752522,-0.0763549804688,0.247802734375,-0.921020507812,0.290649414062
28420776072,-0.0762939453125,0.248046875,-0.920959472656,0.290649414062
28420791144,-0.0765380859375,0.248046875,-0.920959472656,0.290588378906
28420812445,-0.0779418945312,0.247009277344,-0.921264648438,0.290222167969
28420836187,-0.0787963867188,0.246215820312,-0.921447753906,0.289978027344
28420851803,-0.0777587890625,0.246887207031,-0.921264648438,0.290283203125
28420872563,-0.0724487304688,0.251220703125,-0.920104980469,0.291687011719
28420928760,-0.0730590820312,0.250915527344,-0.920166015625,0.29150390625
28420930909,-0.0745849609375,0.249694824219,-0.920532226562,0.291137695312
28420931632,-0.0745849609375,0.24951171875,-0.920593261719,0.291137695312
28420952056,-0.0750122070312,0.250244140625,-0.92041015625,0.290893554688
28420966434,-0.0756225585938,0.249816894531,-0.92041015625,0.291015625
28420985017,-0.0756225585938,0.249816894531,-0.92041015625,0.291015625
28421007841,-0.0756225585938,0.249816894531,-0.92041015625,0.291015625
28421038005,-0.07568359375,0.249816894531,-0.920471191406,0.291015625
28421047509,-0.0731811523438,0.250366210938,-0.920532226562,0.290954589844
28421061141,-0.0675048828125,0.254821777344,-0.919311523438,0.292236328125
28421082335,-0.0617065429688,0.2587890625,-0.918151855469,0.293701171875
28421104755,-0.0573120117188,0.26220703125,-0.917114257812,0.294799804688
28421127176,-0.060302734375,0.260131835938,-0.917785644531,0.2939453125
28421142307,-0.0618896484375,0.2587890625,-0.918151855469,0.293579101562
28421164826,-0.06103515625,0.258178710938,-0.918395996094,0.293701171875
28421182703,-0.054931640625,0.262268066406,-0.917114257812,0.295227050781
28421205123,-0.054931640625,0.262817382812,-0.9169921875,0.295104980469
28421224772,-0.0614624023438,0.257507324219,-0.918640136719,0.293334960938
28421242586,-0.0582885742188,0.256958007812,-0.9189453125,0.29345703125
28421262190,-0.057373046875,0.255981445312,-0.919372558594,0.293273925781
28421284812,-0.056884765625,0.254272460938,-0.919799804688,0.293395996094
28421302613,-0.0556640625,0.253662109375,-0.919982910156,0.293579101562
28421322291,-0.0532836914062,0.25390625,-0.919921875,0.294006347656
28421352321,-0.0492553710938,0.253479003906,-0.919982910156,0.294982910156
28421367324,-0.0440063476562,0.253112792969,-0.919738769531,0.296875
28421382207,-0.0385131835938,0.253295898438,-0.919128417969,0.29931640625
28421408098,-0.0328369140625,0.253845214844,-0.918334960938,0.301879882812
28421430142,-0.0260620117188,0.252563476562,-0.918090820312,0.304443359375
28421442268,-0.0178833007812,0.250610351562,-0.918029785156,0.306762695312
28421464766,-0.00909423828125,0.247619628906,-0.918151855469,0.309265136719
28421487316,0.00042724609375,0.244689941406,-0.918090820312,0.311828613281
28421502147,0.0101928710938,0.243713378906,-0.917358398438,0.314575195312
28421532164,0.0204467773438,0.243835449219,-0.916320800781,0.317016601562
28421542584,0.03173828125,0.243469238281,-0.915405273438,0.319030761719
28421562330,0.0435791015625,0.243103027344,-0.914489746094,0.320556640625
28421584841,0.0560913085938,0.243225097656,-0.913269042969,0.321899414062
28421602701,0.0685424804688,0.243591308594,-0.911865234375,0.323181152344
28421629759,0.0803833007812,0.244262695312,-0.910461425781,0.324035644531
28421644844,0.092529296875,0.243957519531,-0.909057617188,0.324829101562
28421663081,0.104370117188,0.242431640625,-0.908020019531,0.325439453125
28421685652,0.114990234375,0.24072265625,-0.907165527344,0.325317382812
28421704940,0.124938964844,0.239013671875,-0.906555175781,0.324768066406
28421730122,0.134399414062,0.236572265625,-0.905700683594,0.325012207031
28421743648,0.142395019531,0.234008789062,-0.905029296875,0.325439453125
28421764725,0.147888183594,0.231567382812,-0.904541015625,0.326049804688
28421782616,0.151062011719,0.229309082031,-0.904663085938,0.325805664062
28421809677,0.152648925781,0.227478027344,-0.905029296875,0.325317382812
28421824782,0.153198242188,0.223876953125,-0.90576171875,0.325622558594
28421842635,0.1513671875,0.218688964844,-0.907958984375,0.323791503906
28421863628,0.149169921875,0.212219238281,-0.910278320312,0.322631835938
28421884743,0.146423339844,0.20654296875,-0.912231445312,0.322143554688
28421910093,0.143371582031,0.201477050781,-0.9140625,0.321472167969
28421931113,0.14013671875,0.195922851562,-0.915832519531,0.321228027344
28421944641,0.13671875,0.189208984375,-0.917663574219,0.321594238281
28421963063,0.133911132812,0.180908203125,-0.919494628906,0.322204589844
28421985142,0.13232421875,0.171997070312,-0.921203613281,0.323059082031
28422004665,0.131164550781,0.163879394531,-0.922302246094,0.324523925781
28422027817,0.130187988281,0.156433105469,-0.923034667969,0.326599121094
28422044241,0.129638671875,0.150512695312,-0.923278808594,0.328796386719
28422066764,0.130981445312,0.146545410156,-0.9228515625,0.331298828125
28422089725,0.132385253906,0.14501953125,-0.921997070312,0.333740234375
28422111751,0.132629394531,0.145629882812,-0.921020507812,0.336059570312
28422134278,0.133666992188,0.145629882812,-0.919921875,0.338623046875
28422155504,0.136962890625,0.143005371094,-0.919128417969,0.340637207031
28422164270,0.140869140625,0.139770507812,-0.918273925781,0.342712402344
28422186792,0.145324707031,0.135314941406,-0.917297363281,0.34521484375
28422207899,0.151611328125,0.130065917969,-0.916320800781,0.347045898438
28422239321,0.158020019531,0.1259765625,-0.915283203125,0.348510742188
28422246818,0.16455078125,0.122802734375,-0.913879394531,0.350219726562
28422267915,0.171020507812,0.121276855469,-0.912170410156,0.35205078125
28422292233,0.178283691406,0.121215820312,-0.910217285156,0.353576660156
28422314302,0.186157226562,0.121765136719,-0.908142089844,0.354614257812
28422327981,0.194030761719,0.123901367188,-0.905700683594,0.35595703125
28422344287,0.202392578125,0.125854492188,-0.903137207031,0.357055664062
28422366785,0.211181640625,0.128845214844,-0.900390625,0.35791015625
28422389285,0.219665527344,0.132263183594,-0.897277832031,0.359375
28422411776,0.228576660156,0.134155273438,-0.894165039062,0.36083984375
28422434257,0.2373046875,0.136108398438,-0.891052246094,0.362121582031
28422447960,0.246765136719,0.137878417969,-0.887573242188,0.363647460938
28422463647,0.255859375,0.140380859375,-0.883911132812,0.365356445312
28422486842,0.265319824219,0.143249511719,-0.880004882812,0.367065429688
28422507789,0.275329589844,0.146423339844,-0.875671386719,0.36865234375
28422523558,0.285217285156,0.149963378906,-0.871398925781,0.369873046875
28422546828,0.29541015625,0.15283203125,-0.867309570312,0.370361328125
28422569297,0.306396484375,0.1552734375,-0.863220214844,0.369873046875
28422591742,0.318054199219,0.15869140625,-0.858703613281,0.369201660156
28422614256,0.32958984375,0.164245605469,-0.853698730469,0.368225097656
28422629266,0.340576171875,0.17236328125,-0.8486328125,0.366271972656
28422643604,0.352600097656,0.181091308594,-0.842712402344,0.364318847656
28422666795,0.364929199219,0.187744140625,-0.836486816406,0.363159179688
28422689288,0.377136230469,0.190185546875,-0.831359863281,0.361145019531
28422719293,0.388305664062,0.19091796875,-0.826965332031,0.359008789062
28422726721,0.397827148438,0.192016601562,-0.822570800781,0.358032226562
28422749252,0.406005859375,0.193725585938,-0.818542480469,0.357299804688
28422772222,0.413818359375,0.195007324219,-0.814514160156,0.356689453125
28422803212,0.421020507812,0.195922851562,-0.810974121094,0.355895996094
28422816922,0.42822265625,0.196166992188,-0.807678222656,0.354675292969
28422830397,0.435180664062,0.196411132812,-0.804443359375,0.353393554688
28422846791,0.442321777344,0.19677734375,-0.800903320312,0.352355957031
28422869281,0.449096679688,0.197387695312,-0.797607421875,0.350891113281
28422891770,0.455505371094,0.197998046875,-0.794494628906,0.349426269531
28422906771,0.461242675781,0.199157714844,-0.791381835938,0.348266601562
28422929298,0.466552734375,0.200866699219,-0.788452148438,0.346862792969
28422950323,0.471923828125,0.203491210938,-0.785400390625,0.344909667969
28422966776,0.477722167969,0.20654296875,-0.782104492188,0.342712402344
28422989323,0.483154296875,0.209106445312,-0.778747558594,0.341125488281
28423010310,0.488342285156,0.210998535156,-0.775329589844,0.340270996094
28423026731,0.493225097656,0.21240234375,-0.77197265625,0.340148925781
28423049342,0.4970703125,0.214111328125,-0.768737792969,0.340759277344
28423070358,0.499633789062,0.215637207031,-0.765991210938,0.342224121094
28423094291,0.501220703125,0.216918945312,-0.763916015625,0.343627929688
28423123548,0.502319335938,0.217651367188,-0.762451171875,0.344787597656
28423130307,0.502990722656,0.218566894531,-0.761169433594,0.346069335938
28423146795,0.503479003906,0.2197265625,-0.759948730469,0.347412109375
28423169756,0.503784179688,0.220947265625,-0.759033203125,0.348205566406
28423191961,0.503845214844,0.221923828125,-0.758422851562,0.348876953125
28423206770,0.503967285156,0.222595214844,-0.757873535156,0.349487304688
28423229258,0.504028320312,0.223388671875,-0.757385253906,0.349975585938
28423250316,0.504150390625,0.223876953125,-0.756896972656,0.350463867188
28423274702,0.50390625,0.224304199219,-0.756530761719,0.351257324219
28423296795,0.50341796875,0.224609375,-0.756591796875,0.351745605469
28423317961,0.502563476562,0.224853515625,-0.7568359375,0.352111816406
28423326815,0.502136230469,0.224731445312,-0.757019042969,0.352478027344
28423349276,0.501586914062,0.224853515625,-0.757202148438,0.352783203125
28423370430,0.501220703125,0.225036621094,-0.757446289062,0.352722167969
28423386715,0.500793457031,0.225341796875,-0.757751464844,0.352478027344
28423423609,0.499938964844,0.225952148438,-0.758239746094,0.352111816406
28423430829,0.499267578125,0.226318359375,-0.758850097656,0.351623535156
28423448194,0.498657226562,0.226318359375,-0.759399414062,0.351318359375
28423469302,0.497863769531,0.226501464844,-0.760070800781,0.350891113281
28423491768,0.496826171875,0.226745605469,-0.7607421875,0.350708007812
28423507301,0.495849609375,0.2265625,-0.761596679688,0.350280761719
28423529385,0.494873046875,0.226257324219,-0.762573242188,0.349853515625
28423551720,0.493591308594,0.225219726562,-0.763732910156,0.349792480469
28423574208,0.492004394531,0.224304199219,-0.764831542969,0.350219726562
28423604206,0.490356445312,0.223571777344,-0.765808105469,0.350830078125
28423613221,0.488891601562,0.222351074219,-0.767211914062,0.350524902344
28423626616,0.487487792969,0.221313476562,-0.768737792969,0.349853515625
28423649508,0.485412597656,0.220947265625,-0.770385742188,0.349365234375
28423679288,0.482421875,0.221069335938,-0.772399902344,0.348999023438
28423692874,0.478942871094,0.221008300781,-0.77490234375,0.348327636719
28423709259,0.47509765625,0.220397949219,-0.777954101562,0.34716796875
28423731731,0.471008300781,0.219360351562,-0.781372070312,0.345764160156
28423754745,0.466674804688,0.218383789062,-0.784851074219,0.344360351562
28423776707,0.461975097656,0.217895507812,-0.788208007812,0.34326171875
28423791773,0.456665039062,0.218139648438,-0.79150390625,0.342590332031
28423812926,0.450805664062,0.218811035156,-0.794982910156,0.341918945312
28423829720,0.444580078125,0.219543457031,-0.798583984375,0.341125488281
28423859368,0.4384765625,0.219909667969,-0.802124023438,0.340515136719
28423881732,0.432006835938,0.219848632812,-0.805786132812,0.340270996094
28423895849,0.425048828125,0.220031738281,-0.809387207031,0.340209960938
28423911756,0.418090820312,0.220031738281,-0.813049316406,0.340148925781
28423932896,0.410949707031,0.220092773438,-0.816711425781,0.340087890625
28423949972,0.403259277344,0.220458984375,-0.820495605469,0.339904785156
28423979241,0.394836425781,0.220947265625,-0.824645996094,0.339416503906
28424000762,0.386169433594,0.221008300781,-0.829040527344,0.338623046875
28424010713,0.377563476562,0.220397949219,-0.833679199219,0.337463378906
28424032211,0.368530273438,0.219909667969,-0.838317871094,0.336242675781
28424052771,0.358581542969,0.219909667969,-0.843078613281,0.335083007812
28424076719,0.34814453125,0.219909667969,-0.847900390625,0.333801269531
28424107449,0.338012695312,0.219055175781,-0.852783203125,0.332458496094
28424112811,0.328247070312,0.217163085938,-0.857604980469,0.330993652344
28424129239,0.317810058594,0.215209960938,-0.862487792969,0.329833984375
28424159205,0.306030273438,0.214172363281,-0.867431640625,0.328674316406
28424180577,0.293395996094,0.213195800781,-0.87255859375,0.327331542969
28424202881,0.281066894531,0.2109375,-0.877746582031,0.325744628906
28424211729,0.268615722656,0.207885742188,-0.882995605469,0.323913574219
28424232937,0.255798339844,0.204467773438,-0.888305664062,0.322021484375
28424256761,0.242797851562,0.200622558594,-0.893493652344,0.320190429688
28424279268,0.230163574219,0.195190429688,-0.898681640625,0.318359375
28424292827,0.217590332031,0.189086914062,-0.903747558594,0.316467285156
28424309278,0.205322265625,0.182983398438,-0.908508300781,0.314697265625
28424331750,0.193115234375,0.176696777344,-0.912902832031,0.313171386719
28424354265,0.181335449219,0.17041015625,-0.916931152344,0.31201171875
28424368584,0.169616699219,0.164855957031,-0.920532226562,0.310913085938
28424391755,0.157836914062,0.159790039062,-0.923950195312,0.309753417969
28424412910,0.146484375,0.155212402344,-0.927001953125,0.308471679688
28424428566,0.135986328125,0.150939941406,-0.929626464844,0.307373046875
28424459275,0.125915527344,0.14697265625,-0.932006835938,0.306396484375
28424481736,0.115661621094,0.143737792969,-0.934387207031,0.304870605469
28424488562,0.105346679688,0.141052246094,-0.936645507812,0.302978515625
28424511717,0.094482421875,0.139465332031,-0.938720703125,0.300842285156
28424534249,0.0827026367188,0.139587402344,-0.940490722656,0.298522949219
28424556732,0.0707397460938,0.141479492188,-0.941833496094,0.296630859375
28424571750,0.0599365234375,0.14306640625,-0.942810058594,0.295043945312
28424594244,0.0512084960938,0.143188476562,-0.94384765625,0.293395996094
28424608573,0.0441284179688,0.142395019531,-0.94482421875,0.291809082031
28424631752,0.0380249023438,0.141174316406,-0.945678710938,0.290405273438
28424662188,0.0325927734375,0.139404296875,-0.946533203125,0.2890625
28424682917,0.027587890625,0.1376953125,-0.947387695312,0.287658691406
28424691733,0.0228271484375,0.13623046875,-0.948181152344,0.286193847656
28424714245,0.018310546875,0.13525390625,-0.948852539062,0.284729003906
28424736725,0.013916015625,0.134887695312,-0.949462890625,0.283020019531
28424759246,0.0093994140625,0.134887695312,-0.9501953125,0.280944824219
28424781564,0.00506591796875,0.135009765625,-0.950927734375,0.278442382812
28424795392,0.00115966796875,0.135131835938,-0.951721191406,0.275634765625
28424811725,-0.00250244140625,0.134948730469,-0.95263671875,0.272644042969
28424834239,-0.00616455078125,0.134521484375,-0.953552246094,0.26953125
28424863650,-0.00982666015625,0.134948730469,-0.954345703125,0.266357421875
28424865106,-0.0133666992188,0.135986328125,-0.955017089844,0.263305664062
28424884762,-0.016845703125,0.13720703125,-0.95556640625,0.260498046875
28424907275,-0.0206298828125,0.138366699219,-0.9560546875,0.257690429688
28424922245,-0.0245971679688,0.139892578125,-0.956481933594,0.2548828125
28424937130,-0.0285034179688,0.141784667969,-0.956787109375,0.252319335938
28424962566,-0.0321044921875,0.143188476562,-0.95703125,0.250122070312
28424985039,-0.0354614257812,0.143676757812,-0.957336425781,0.248229980469
28424997223,-0.0388793945312,0.14404296875,-0.957641601562,0.246398925781
28425019636,-0.0418090820312,0.143798828125,-0.957946777344,0.244934082031
28425042356,-0.0439453125,0.143615722656,-0.958129882812,0.243896484375
28425058571,-0.045654296875,0.143676757812,-0.958190917969,0.243225097656
28425087982,-0.0470581054688,0.143737792969,-0.958190917969,0.242919921875
28425096107,-0.04833984375,0.143676757812,-0.958129882812,0.243041992188
28425117298,-0.0491943359375,0.143920898438,-0.9580078125,0.243103027344
28425139749,-0.0488891601562,0.144226074219,-0.957824707031,0.24365234375
28425163591,-0.0463256835938,0.142517089844,-0.958190917969,0.243835449219
28425184736,-0.044921875,0.143371582031,-0.958190917969,0.24365234375
28425199721,-0.043701171875,0.147338867188,-0.95751953125,0.243957519531
28425217552,-0.0429077148438,0.150939941406,-0.95703125,0.243896484375
28425240070,-0.0419921875,0.153503417969,-0.956726074219,0.243713378906
28425267187,-0.041259765625,0.15625,-0.956359863281,0.243530273438
28425277531,-0.0411376953125,0.158752441406,-0.955993652344,0.243347167969
28425297226,-0.0409545898438,0.160827636719,-0.955627441406,0.243469238281
28425319701,-0.040771484375,0.162170410156,-0.955322265625,0.243835449219
28425345061,-0.0401611328125,0.161926269531,-0.955139160156,0.244689941406
28425364664,-0.0399780273438,0.161743164062,-0.955017089844,0.245483398438
28425387222,-0.040283203125,0.162353515625,-0.954650878906,0.246276855469
28425397546,-0.040771484375,0.163818359375,-0.954162597656,0.247131347656
28425417232,-0.0409545898438,0.165100097656,-0.953674316406,0.248168945312
28425442591,-0.0411376953125,0.165832519531,-0.953308105469,0.249084472656
28425465057,-0.0420532226562,0.1669921875,-0.953063964844,0.249206542969
28425477219,-0.0432739257812,0.169067382812,-0.952575683594,0.249389648438
28425499733,-0.0444946289062,0.171325683594,-0.951904296875,0.250122070312
28425517497,-0.0452270507812,0.173156738281,-0.951232910156,0.251342773438
28425537096,-0.045654296875,0.174682617188,-0.950622558594,0.252502441406
28425570024,-0.0458984375,0.176513671875,-0.949951171875,0.253662109375
28425577542,-0.0460815429688,0.179016113281,-0.94921875,0.254699707031
28425597221,-0.0463256835938,0.181884765625,-0.948425292969,0.255493164062
28425621050,-0.0465698242188,0.185241699219,-0.947570800781,0.256286621094
28425637508,-0.0469360351562,0.188781738281,-0.946594238281,0.257263183594
28425664643,-0.0476684570312,0.192138671875,-0.945495605469,0.258605957031
28425679726,-0.048583984375,0.1953125,-0.944396972656,0.260131835938
28425697581,-0.049560546875,0.199096679688,-0.943115234375,0.261657714844
28425720015,-0.0507202148438,0.203491210938,-0.941711425781,0.263061523438
28425742538,-0.05224609375,0.208679199219,-0.940185546875,0.264282226562
28425757531,-0.05419921875,0.214172363281,-0.938537597656,0.265258789062
28425777111,-0.056396484375,0.219299316406,-0.93701171875,0.26611328125
28425799756,-0.0584716796875,0.223571777344,-0.935668945312,0.266845703125
28425817552,-0.0602416992188,0.226928710938,-0.934509277344,0.267517089844
28425844713,-0.0618286132812,0.229919433594,-0.933532714844,0.268127441406
28425867194,-0.0633544921875,0.232727050781,-0.932556152344,0.268676757812
28425877499,-0.0648193359375,0.235168457031,-0.931701660156,0.269165039062
28425900038,-0.066162109375,0.236938476562,-0.931030273438,0.269592285156
28425922550,-0.0671997070312,0.238464355469,-0.930480957031,0.269958496094
28425945040,-0.068115234375,0.240173339844,-0.929870605469,0.270263671875
28425957255,-0.0689697265625,0.242858886719,-0.929016113281,0.270629882812
28425979844,-0.0699462890625,0.245910644531,-0.928039550781,0.270812988281
28425997542,-0.0709838867188,0.248901367188,-0.927185058594,0.27099609375
28426018569,-0.0719604492188,0.251342773438,-0.926391601562,0.271118164062
28426039571,-0.072998046875,0.253234863281,-0.92578125,0.271118164062
28426057480,-0.0740356445312,0.254821777344,-0.92529296875,0.271057128906
28426078528,-0.0750122070312,0.256042480469,-0.924865722656,0.271057128906
28426099754,-0.0758056640625,0.2568359375,-0.924621582031,0.27099609375
28426117538,-0.0763549804688,0.257202148438,-0.924438476562,0.27099609375
28426146046,-0.0767211914062,0.257568359375,-0.924255371094,0.271118164062
28426159620,-0.0770263671875,0.257751464844,-0.924133300781,0.271301269531
28426177541,-0.0770263671875,0.257751464844,-0.924133300781,0.271301269531
28426200048,-0.0770874023438,0.257751464844,-0.924133300781,0.271301269531
28426222524,-0.0770263671875,0.257873535156,-0.924072265625,0.271484375
28426237483,-0.076904296875,0.258361816406,-0.923889160156,0.271667480469
28426258557,-0.0770874023438,0.259094238281,-0.923645019531,0.271850585938
28426279757,-0.0771484375,0.259521484375,-0.923461914062,0.271911621094
28426298044,-0.0771484375,0.259826660156,-0.92333984375,0.272033691406
28426326105,-0.0771484375,0.259887695312,-0.92333984375,0.272033691406
28426335000,-0.0772094726562,0.259887695312,-0.92333984375,0.27197265625
28426357562,-0.0772094726562,0.259826660156,-0.923278808594,0.272216796875
28426380026,-0.0771484375,0.259887695312,-0.923217773438,0.2724609375
28426402536,-0.0772094726562,0.259948730469,-0.923095703125,0.272644042969
28426425022,-0.0772094726562,0.259948730469,-0.923095703125,0.272644042969
28426452759,-0.0772094726562,0.259948730469,-0.923095703125,0.272644042969
28426460431,-0.0772705078125,0.259948730469,-0.923095703125,0.272644042969
28426477169,-0.0772705078125,0.259948730469,-0.923095703125,0.272644042969
28426499423,-0.0772705078125,0.259948730469,-0.923095703125,0.272644042969
28426520090,-0.0772705078125,0.259948730469,-0.923095703125,0.272644042969
28426536682,-0.0772705078125,0.259948730469,-0.923095703125,0.272644042969
28426559156,-0.0772705078125,0.260009765625,-0.923095703125,0.272644042969
28426573639,-0.0773315429688,0.260009765625,-0.923095703125,0.272644042969
28426596771,-0.0773315429688,0.260009765625,-0.923095703125,0.272644042969
28426619257,-0.077392578125,0.259826660156,-0.923095703125,0.272705078125
28426633559,-0.077392578125,0.259826660156,-0.923095703125,0.272705078125
28426657217,-0.077392578125,0.259826660156,-0.923095703125,0.272705078125
28426679228,-0.0774536132812,0.260070800781,-0.923034667969,0.272827148438
28426693552,-0.0775146484375,0.260070800781,-0.923034667969,0.272766113281
28426716693,-0.0775146484375,0.260131835938,-0.923034667969,0.272766113281
28426739214,-0.0775146484375,0.260131835938,-0.923034667969,0.272766113281
28426753982,-0.0775146484375,0.260131835938,-0.923034667969,0.272766113281
28426776649,-0.0775146484375,0.260131835938,-0.923034667969,0.272766113281
28426805407,-0.0775146484375,0.260131835938,-0.922973632812,0.272766113281
28426813575,-0.0775756835938,0.260009765625,-0.923034667969,0.272766113281
28426836753,-0.0775756835938,0.260009765625,-0.923034667969,0.272766113281
28426859255,-0.0775756835938,0.259826660156,-0.923095703125,0.272827148438
28426880393,-0.0775756835938,0.259826660156,-0.923095703125,0.272827148438
28426904259,-0.0775756835938,0.259887695312,-0.923034667969,0.272827148438
28426919214,-0.0775756835938,0.259887695312,-0.923034667969,0.272827148438
28426940396,-0.0775756835938,0.259887695312,-0.923034667969,0.272827148438
28426956696,-0.0775756835938,0.259887695312,-0.923034667969,0.272827148438
28426979221,-0.0775756835938,0.259887695312,-0.923034667969,0.272827148438
28427000304,-0.0775756835938,0.259948730469,-0.923034667969,0.272827148438
28427016715,-0.0775756835938,0.259765625,-0.923095703125,0.272827148438
28427039254,-0.0775756835938,0.259765625,-0.923095703125,0.272827148438
28427060409,-0.0775756835938,0.259765625,-0.923095703125,0.272827148438
28427084195,-0.0775756835938,0.259765625,-0.923095703125,0.272827148438
28427106769,-0.0775756835938,0.259765625,-0.923095703125,0.272827148438
28427120321,-0.07763671875,0.259765625,-0.923095703125,0.272827148438
28427136718,-0.07763671875,0.259826660156,-0.923095703125,0.272827148438
