28121253762,-0.0810546875,0.277160644531,-0.919006347656,0.268432617188
28121268680,-0.0811157226562,0.277160644531,-0.919006347656,0.268432617188
28121290070,-0.0762329101562,0.278991699219,-0.918579101562,0.269409179688
28121313598,-0.0777587890625,0.277893066406,-0.918884277344,0.268981933594
28121328658,-0.0790405273438,0.27685546875,-0.919250488281,0.268615722656
28121350075,-0.0785522460938,0.277038574219,-0.919189453125,0.268737792969
28121373639,-0.0723266601562,0.281799316406,-0.917663574219,0.270629882812
28121388809,-0.072509765625,0.281921386719,-0.917663574219,0.270568847656
28121442750,-0.0790405273438,0.277221679688,-0.919128417969,0.268615722656
28121443427,-0.0790405273438,0.276977539062,-0.919189453125,0.268615722656
28121453027,-0.0726928710938,0.281555175781,-0.917785644531,0.270446777344
28121470079,-0.072509765625,0.281921386719,-0.917663574219,0.2705078125
28121493212,-0.0708618164062,0.281066894531,-0.918029785156,0.2705078125
28121519698,-0.0711669921875,0.281311035156,-0.918029785156,0.270263671875
28121569397,-0.0712280273438,0.281311035156,-0.918029785156,0.270263671875
28121570122,-0.0713500976562,0.281127929688,-0.918090820312,0.270202636719
28121590603,-0.0714111328125,0.281066894531,-0.918090820312,0.270141601562
28121591292,-0.0723266601562,0.280700683594,-0.918151855469,0.270263671875
28121613050,-0.0777587890625,0.276428222656,-0.91943359375,0.268798828125
28121628751,-0.0791015625,0.275329589844,-0.919738769531,0.268371582031
28121649910,-0.0781860351562,0.274780273438,-0.919921875,0.2685546875
28121672520,-0.07177734375,0.279235839844,-0.918579101562,0.270446777344
28121688747,-0.0715942382812,0.279602050781,-0.91845703125,0.2705078125
28121709761,-0.0732421875,0.278503417969,-0.918823242188,0.27001953125
28121732226,-0.0735473632812,0.278015136719,-0.9189453125,0.269958496094
28121750170,-0.0674438476562,0.282104492188,-0.917663574219,0.271606445312
28121769792,-0.0662841796875,0.283813476562,-0.917175292969,0.271911621094
28121792490,-0.0672607421875,0.284301757812,-0.9169921875,0.271667480469
28121810232,-0.0675659179688,0.284240722656,-0.9169921875,0.271545410156
28121829903,-0.0676879882812,0.283874511719,-0.917236328125,0.271240234375
28121847691,-0.0678100585938,0.283386230469,-0.91748046875,0.270874023438
28121870172,-0.0678100585938,0.282775878906,-0.917724609375,0.2705078125
28121889890,-0.0677490234375,0.282348632812,-0.918029785156,0.270141601562
28121907726,-0.067626953125,0.28173828125,-0.918395996094,0.269592285156
28121930203,-0.0672607421875,0.281005859375,-0.918823242188,0.268859863281
28121949963,-0.0665283203125,0.280212402344,-0.919311523438,0.268249511719
28121967751,-0.065673828125,0.279235839844,-0.919799804688,0.267700195312
28121990175,-0.0647583007812,0.279052734375,-0.920166015625,0.266845703125
28122009914,-0.0634765625,0.278625488281,-0.920654296875,0.265930175781
28122027606,-0.0617065429688,0.278198242188,-0.921142578125,0.26513671875
28122050225,-0.0596313476562,0.277526855469,-0.921691894531,0.264343261719
28122069875,-0.0571899414062,0.276550292969,-0.92236328125,0.263732910156
28122087707,-0.0543212890625,0.275695800781,-0.922912597656,0.263305664062
28122110243,-0.0508422851562,0.273742675781,-0.923828125,0.262756347656
28122129905,-0.046875,0.270812988281,-0.925048828125,0.262329101562
28122152485,-0.04248046875,0.26806640625,-0.926086425781,0.262145996094
28122170183,-0.0379028320312,0.266784667969,-0.926696777344,0.261962890625
28122189892,-0.0330200195312,0.265197753906,-0.927368164062,0.261901855469
28122212270,-0.0276489257812,0.263427734375,-0.928100585938,0.261657714844
28122230207,-0.02197265625,0.261596679688,-0.928833007812,0.261413574219
28122249892,-0.0160522460938,0.259704589844,-0.929504394531,0.261474609375
28122272492,-0.0093994140625,0.257507324219,-0.930114746094,0.261779785156
28122290162,-0.00244140625,0.255981445312,-0.930541992188,0.261901855469
28122317487,0.00457763671875,0.255615234375,-0.930541992188,0.262268066406
28122332305,0.0117797851562,0.255737304688,-0.930236816406,0.263000488281
28122350158,0.0195922851562,0.25634765625,-0.929809570312,0.263427734375
28122371247,0.0277709960938,0.258178710938,-0.928771972656,0.264587402344
28122393732,0.0367431640625,0.260681152344,-0.927185058594,0.2666015625
28122410191,0.0460815429688,0.26318359375,-0.925354003906,0.268981933594
28122431243,0.0556640625,0.266723632812,-0.923095703125,0.271484375
28122447625,0.065673828125,0.270935058594,-0.920349121094,0.274291992188
28122470623,0.0764770507812,0.274719238281,-0.91748046875,0.277282714844
28122491202,0.087890625,0.27783203125,-0.914611816406,0.280395507812
28122513020,0.1005859375,0.280883789062,-0.911437988281,0.283386230469
28122536922,0.112854003906,0.284118652344,-0.907897949219,0.286926269531
28122551968,0.123596191406,0.287719726562,-0.904174804688,0.290649414062
28122574368,0.134216308594,0.291381835938,-0.900512695312,0.293640136719
28122595649,0.145629882812,0.293884277344,-0.896911621094,0.296630859375
28122612322,0.157470703125,0.295166015625,-0.893310546875,0.30029296875
28122641916,0.169067382812,0.296447753906,-0.889282226562,0.304504394531
28122655539,0.1806640625,0.2978515625,-0.884887695312,0.309265136719
28122671922,0.19384765625,0.299011230469,-0.879821777344,0.314636230469
28122694412,0.206481933594,0.301940917969,-0.874145507812,0.319458007812
28122715494,0.218444824219,0.30517578125,-0.867980957031,0.325134277344
28122731913,0.230895996094,0.306091308594,-0.862365722656,0.330627441406
28122754399,0.245666503906,0.303344726562,-0.857604980469,0.334838867188
28122775479,0.261413574219,0.299133300781,-0.85302734375,0.33837890625
28122791898,0.276123046875,0.2958984375,-0.847778320312,0.3427734375
28122814348,0.28955078125,0.2939453125,-0.841979980469,0.347595214844
28122835584,0.302551269531,0.292236328125,-0.835998535156,0.352355957031
28122851924,0.31591796875,0.290283203125,-0.830139160156,0.356079101562
28122874362,0.329772949219,0.287170410156,-0.824584960938,0.358947753906
28122895495,0.343994140625,0.282165527344,-0.819152832031,0.362060546875
28122919384,0.357360839844,0.27685546875,-0.813598632812,0.365600585938
28122934370,0.369567871094,0.272644042969,-0.80810546875,0.368896484375
28122955619,0.380249023438,0.270812988281,-0.801879882812,0.372863769531
28122971916,0.389526367188,0.269470214844,-0.795471191406,0.377990722656
28122994398,0.398071289062,0.268310546875,-0.788940429688,0.383483886719
28123015879,0.405456542969,0.267517089844,-0.783020019531,0.388488769531
28123037996,0.412353515625,0.2666015625,-0.777282714844,0.393310546875
28123054341,0.419616699219,0.264831542969,-0.771850585938,0.397521972656
28123076899,0.427185058594,0.262756347656,-0.766723632812,0.400817871094
28123091651,0.435180664062,0.258850097656,-0.762268066406,0.403198242188
28123114386,0.443481445312,0.254028320312,-0.75830078125,0.404663085938
28123136960,0.452270507812,0.24853515625,-0.754089355469,0.406188964844
28123151207,0.459838867188,0.243835449219,-0.749694824219,0.40869140625
28123174413,0.466064453125,0.240051269531,-0.745483398438,0.411560058594
28123195637,0.472534179688,0.236694335938,-0.741149902344,0.413940429688
28123220012,0.478820800781,0.233764648438,-0.736755371094,0.416198730469
28123234337,0.484497070312,0.230285644531,-0.732666015625,0.418823242188
28123256931,0.489562988281,0.226196289062,-0.728820800781,0.421813964844
28123271241,0.494262695312,0.222717285156,-0.724670410156,0.425415039062
28123294321,0.498352050781,0.22021484375,-0.720458984375,0.429077148438
28123316937,0.502075195312,0.217895507812,-0.716430664062,0.432556152344
28123331900,0.505249023438,0.215148925781,-0.712829589844,0.436218261719
28123354321,0.509338378906,0.211181640625,-0.709167480469,0.439331054688
28123376921,0.512756347656,0.207763671875,-0.705200195312,0.443420410156
28123391179,0.515380859375,0.205871582031,-0.701477050781,0.447082519531
28123414389,0.518920898438,0.204162597656,-0.698059082031,0.449157714844
28123437590,0.522277832031,0.201904296875,-0.694885253906,0.451171875
28123451202,0.525573730469,0.199157714844,-0.691528320312,0.453735351562
28123474369,0.528259277344,0.197875976562,-0.687744140625,0.456848144531
28123496591,0.530334472656,0.197326660156,-0.6845703125,0.459533691406
28123518053,0.53173828125,0.196716308594,-0.682189941406,0.461669921875
28123534335,0.534057617188,0.194458007812,-0.680236816406,0.462829589844
28123557004,0.535888671875,0.192565917969,-0.678649902344,0.4638671875
28123578087,0.537170410156,0.191284179688,-0.677612304688,0.46435546875
28123594365,0.538208007812,0.189880371094,-0.67724609375,0.464294433594
28123616878,0.538818359375,0.188659667969,-0.677307128906,0.464050292969
28123631247,0.539184570312,0.186950683594,-0.678100585938,0.463134765625
28123661920,0.53955078125,0.185119628906,-0.679443359375,0.461486816406
28123676923,0.540283203125,0.1826171875,-0.68115234375,0.459045410156
28123697957,0.539733886719,0.181579589844,-0.682861328125,0.457580566406
28123714994,0.538513183594,0.181091308594,-0.684814453125,0.456298828125
28123736890,0.537780761719,0.180480957031,-0.686340332031,0.455139160156
28123758046,0.536743164062,0.180053710938,-0.687194824219,0.455261230469
28123774124,0.535095214844,0.180725097656,-0.68798828125,0.455688476562
28123796895,0.533935546875,0.181030273438,-0.689208984375,0.455139160156
28123817988,0.533386230469,0.180603027344,-0.689819335938,0.455017089844
28123834347,0.533264160156,0.180358886719,-0.689636230469,0.455444335938
28123857469,0.532958984375,0.180786132812,-0.689086914062,0.456481933594
28123878056,0.532104492188,0.181762695312,-0.688659667969,0.457702636719
28123895047,0.531799316406,0.182556152344,-0.6884765625,0.458068847656
28123916942,0.532531738281,0.182006835938,-0.688049316406,0.458068847656
28123938098,0.5322265625,0.182189941406,-0.687561035156,0.459106445312
28123954371,0.53076171875,0.183288574219,-0.687561035156,0.460388183594
28123976831,0.530151367188,0.183837890625,-0.687805175781,0.460510253906
28123998065,0.530212402344,0.183532714844,-0.687866210938,0.46044921875
28124014357,0.52880859375,0.184387207031,-0.688171386719,0.461303710938
28124037349,0.527282714844,0.185241699219,-0.688720703125,0.461791992188
28124059391,0.527038574219,0.185424804688,-0.689025878906,0.461608886719
28124074345,0.526611328125,0.185546875,-0.689270019531,0.461669921875
28124096914,0.525268554688,0.186462402344,-0.689636230469,0.462280273438
28124117972,0.525024414062,0.185974121094,-0.690002441406,0.462219238281
28124134370,0.524597167969,0.186340332031,-0.689819335938,0.462768554688
28124156950,0.523498535156,0.187133789062,-0.690124511719,0.463317871094
28124178017,0.522766113281,0.187622070312,-0.690490722656,0.463439941406
28124201899,0.522766113281,0.187561035156,-0.690490722656,0.463439941406
28124216930,0.522521972656,0.187744140625,-0.690307617188,0.4638671875
28124239340,0.520874023438,0.1884765625,-0.690856933594,0.464599609375
28124254327,0.520690917969,0.188659667969,-0.691101074219,0.46435546875
28124276958,0.520751953125,0.188415527344,-0.690979003906,0.464599609375
28124299287,0.519775390625,0.189025878906,-0.691101074219,0.465209960938
28124320815,0.518737792969,0.189697265625,-0.69140625,0.465698242188
28124338314,0.518371582031,0.189758300781,-0.691650390625,0.465698242188
28124359343,0.517822265625,0.190612792969,-0.691467285156,0.466247558594
28124375173,0.516174316406,0.19140625,-0.69189453125,0.467041015625
28124396824,0.515380859375,0.191833496094,-0.692321777344,0.467163085938
28124425560,0.515747070312,0.191772460938,-0.6923828125,0.466735839844
28124433695,0.515197753906,0.192321777344,-0.692260742188,0.467224121094
28124456921,0.513732910156,0.193115234375,-0.692749023438,0.467834472656
28124479325,0.513916015625,0.192932128906,-0.692932128906,0.467468261719
28124494262,0.514038085938,0.193115234375,-0.692687988281,0.467590332031
28124516916,0.513122558594,0.193969726562,-0.692749023438,0.468078613281
28124539344,0.512268066406,0.1943359375,-0.693176269531,0.46826171875
28124553649,0.512390136719,0.194213867188,-0.693420410156,0.467895507812
28124576829,0.511779785156,0.194458007812,-0.693420410156,0.468322753906
28124599353,0.510498046875,0.195251464844,-0.693786621094,0.468872070312
28124614150,0.50927734375,0.19580078125,-0.694641113281,0.468811035156
28124636821,0.508483886719,0.196044921875,-0.695373535156,0.468444824219
28124659371,0.507934570312,0.196472167969,-0.695739746094,0.468322753906
28124673650,0.507141113281,0.196716308594,-0.695983886719,0.468627929688
28124696964,0.506286621094,0.197082519531,-0.696533203125,0.468688964844
28124719371,0.50537109375,0.197509765625,-0.697387695312,0.46826171875
28124740523,0.5048828125,0.198181152344,-0.6982421875,0.467163085938
28124756920,0.504272460938,0.19873046875,-0.699523925781,0.465576171875
28124779328,0.503662109375,0.198120117188,-0.700988769531,0.464416503906
28124801913,0.502197265625,0.197265625,-0.702575683594,0.463989257812
28124818305,0.500244140625,0.19677734375,-0.704223632812,0.463806152344
28124839991,0.498291015625,0.197021484375,-0.705993652344,0.463073730469
28124860479,0.496704101562,0.197814941406,-0.707702636719,0.461791992188
28124876815,0.495971679688,0.19775390625,-0.70947265625,0.459899902344
28124899325,0.496032714844,0.197082519531,-0.711059570312,0.457702636719
28124927886,0.495910644531,0.19677734375,-0.712463378906,0.455749511719
28124936840,0.495727539062,0.197326660156,-0.713623046875,0.453918457031
28124959348,0.494934082031,0.198303222656,-0.714965820312,0.452209472656
28124980498,0.493408203125,0.199584960938,-0.716613769531,0.450744628906
28125005066,0.492126464844,0.199157714844,-0.718566894531,0.44921875
28125006611,0.491943359375,0.196838378906,-0.720458984375,0.447387695312
28125024895,0.491394042969,0.195129394531,-0.72216796875,0.445983886719
28125047365,0.489440917969,0.1953125,-0.723876953125,0.4453125
28125062315,0.486206054688,0.1962890625,-0.725952148438,0.445068359375
28125084840,0.481750488281,0.198120117188,-0.728637695312,0.444702148438
28125107374,0.477478027344,0.198852539062,-0.731994628906,0.443420410156
28125122328,0.47314453125,0.199096679688,-0.73583984375,0.441589355469
28125155141,0.468444824219,0.199890136719,-0.740051269531,0.439270019531
28125167254,0.462829589844,0.20166015625,-0.744750976562,0.436462402344
28125182298,0.456420898438,0.202758789062,-0.749938964844,0.433654785156
28125204861,0.44873046875,0.203918457031,-0.755493164062,0.431518554688
28125227415,0.439819335938,0.205627441406,-0.761535644531,0.429321289062
28125242338,0.430053710938,0.207946777344,-0.767944335938,0.426696777344
28125264795,0.420471191406,0.209594726562,-0.774536132812,0.423461914062
28125296041,0.410583496094,0.210876464844,-0.781188964844,0.420227050781
28125302272,0.400390625,0.211791992188,-0.788024902344,0.416931152344
28125324774,0.389953613281,0.212524414062,-0.794982910156,0.413269042969
28125347518,0.37939453125,0.212646484375,-0.802001953125,0.409362792969
28125362302,0.368713378906,0.21337890625,-0.808837890625,0.405334472656
28125384852,0.358337402344,0.213317871094,-0.815612792969,0.401062011719
28125407404,0.348571777344,0.212646484375,-0.822021484375,0.396911621094
28125422458,0.338012695312,0.212280273438,-0.828186035156,0.393371582031
28125444851,0.325927734375,0.212341308594,-0.834594726562,0.389953613281
28125467369,0.3125,0.212707519531,-0.841125488281,0.386840820312
28125482320,0.298828125,0.212707519531,-0.847534179688,0.383544921875
28125504846,0.28515625,0.212097167969,-0.85400390625,0.379943847656
28125527319,0.271606445312,0.210693359375,-0.860473632812,0.376037597656
28125542318,0.25830078125,0.208557128906,-0.867004394531,0.37158203125
28125564858,0.245361328125,0.20556640625,-0.873413085938,0.366882324219
28125587344,0.23193359375,0.202514648438,-0.879760742188,0.362243652344
28125603659,0.217712402344,0.19970703125,-0.885986328125,0.357421875
28125624926,0.203796386719,0.1962890625,-0.892150878906,0.352172851562
28125647446,0.190551757812,0.192260742188,-0.898010253906,0.346862792969
28125665144,0.177185058594,0.1884765625,-0.903564453125,0.341552734375
28125684813,0.163696289062,0.185302734375,-0.908813476562,0.336059570312
28125707350,0.150817871094,0.182067871094,-0.913635253906,0.330749511719
28125723703,0.138916015625,0.178527832031,-0.91796875,0.325805664062
28125744870,0.127136230469,0.175476074219,-0.922119140625,0.320617675781
28125767333,0.115173339844,0.174194335938,-0.925964355469,0.314697265625
28125789818,0.103393554688,0.174011230469,-0.929382324219,0.308715820312
28125804717,0.0919799804688,0.17333984375,-0.932312011719,0.303833007812
28125827209,0.080322265625,0.17236328125,-0.934936523438,0.299682617188
28125843643,0.0692138671875,0.171203613281,-0.937377929688,0.29541015625
28125864852,0.0592041015625,0.168518066406,-0.939880371094,0.291076660156
28125887322,0.0498657226562,0.165161132812,-0.942504882812,0.286193847656
28125903688,0.040771484375,0.161804199219,-0.945007324219,0.28125
28125924839,0.03173828125,0.158752441406,-0.947265625,0.276672363281
28125947227,0.0238037109375,0.155700683594,-0.949340820312,0.271911621094
28125965140,0.0170288085938,0.15185546875,-0.951477050781,0.267272949219
28125984836,0.0106811523438,0.1484375,-0.953247070312,0.26318359375
28126002634,0.004150390625,0.146667480469,-0.95458984375,0.259460449219
28126023664,-0.00225830078125,0.146240234375,-0.955627441406,0.255859375
28126044675,-0.00799560546875,0.146484375,-0.956420898438,0.252624511719
28126062653,-0.0130615234375,0.146301269531,-0.957092285156,0.249877929688
28126085088,-0.0170288085938,0.145690917969,-0.957641601562,0.247924804688
28126104814,-0.0202026367188,0.145202636719,-0.957946777344,0.246704101562
28126122556,-0.0230712890625,0.145385742188,-0.958068847656,0.245849609375
28126145128,-0.0259399414062,0.146179199219,-0.958129882812,0.244812011719
28126164691,-0.0283203125,0.147094726562,-0.958190917969,0.243896484375
28126182611,-0.0303955078125,0.148132324219,-0.958129882812,0.243347167969
28126205125,-0.031982421875,0.149169921875,-0.9580078125,0.242797851562
28126224876,-0.03369140625,0.149963378906,-0.9580078125,0.242248535156
28126242668,-0.0328979492188,0.149841308594,-0.958312988281,0.241027832031
28126278637,-0.0333251953125,0.150817871094,-0.958435058594,0.239929199219
28126284851,-0.03369140625,0.152587890625,-0.958251953125,0.239379882812
28126302599,-0.034423828125,0.154907226562,-0.957885742188,0.239318847656
28126325055,-0.0350952148438,0.157348632812,-0.957397460938,0.239562988281
28126344932,-0.035400390625,0.158996582031,-0.957092285156,0.23974609375
28126362626,-0.0355834960938,0.160827636719,-0.956726074219,0.239868164062
28126385172,-0.035888671875,0.163452148438,-0.956359863281,0.239624023438
28126404770,-0.0359497070312,0.164794921875,-0.956115722656,0.239501953125
