29547909024,0.0546875,-0.5419921875,0.79638671875
29547925510,0.05859375,-0.54541015625,0.79833984375
29547946792,-0.00048828125,-0.57470703125,0.8994140625
29547970534,0.65771484375,-0.5654296875,1.20751953125
29547985554,0.380859375,-0.15869140625,0.560546875
29548006861,0.73828125,-0.21044921875,1.16064453125
29548030589,0.4169921875,-0.66552734375,1.46533203125
29548045600,-0.46337890625,-0.9658203125,0.73779296875
29548066957,-0.5068359375,-0.60107421875,0.099609375
29548122581,0.3857421875,-0.14794921875,0.63525390625
29548124673,0.70263671875,-0.39501953125,1.46630859375
29548128917,-0.1025390625,-0.9091796875,1.14794921875
29548142549,-0.2421875,-0.86181640625,0.98583984375
29548166263,-0.0546875,-0.5615234375,0.7646484375
29548187001,0.05908203125,-0.533203125,0.77099609375
29548224753,0.04833984375,-0.5517578125,0.80078125
29548225528,0.05615234375,-0.54833984375,0.798828125
29548247336,0.06787109375,-0.5546875,0.78955078125
29548262316,0.46142578125,-0.5986328125,1.05419921875
29548284930,-0.77783203125,-0.68994140625,0.47509765625
29548307456,-0.62109375,-0.68603515625,0.2119140625
29548323688,0.00341796875,-0.259765625,0.3095703125
29548346196,0.7236328125,-0.18505859375,1.16552734375
29548367357,0.38818359375,-0.673828125,1.46630859375
29548383685,-0.4921875,-0.9658203125,0.673828125
29548406218,-0.47021484375,-0.572265625,0.07373046875
29548428676,0.43115234375,-0.138671875,0.708984375
29548443673,0.6865234375,-0.3955078125,1.44189453125
29548466142,0.09130859375,-0.6650390625,0.9736328125
29548488665,0.0166015625,-0.5009765625,0.78515625
29548503688,0.05908203125,-0.55126953125,0.810546875
29548526192,0.05615234375,-0.5498046875,0.806640625
29548548672,0.05615234375,-0.55859375,0.7978515625
29548562995,0.056640625,-0.55859375,0.80078125
29548586168,0.04833984375,-0.55126953125,0.79443359375
29548608667,0.05615234375,-0.56396484375,0.80419921875
29548623086,0.05810546875,-0.5615234375,0.80322265625
29548646177,0.0576171875,-0.5439453125,0.8017578125
29548668692,0.056640625,-0.5693359375,0.81640625
29548683030,0.07421875,-0.59130859375,0.802734375
29548706171,0.04150390625,-0.58251953125,0.7958984375
29548728642,0.03662109375,-0.59814453125,0.78955078125
29548743061,0.04248046875,-0.59912109375,0.78662109375
29548766194,0.04296875,-0.61474609375,0.79296875
29548796195,0.04638671875,-0.6142578125,0.798828125
29548802998,0.0380859375,-0.599609375,0.80126953125
29548826113,0.02880859375,-0.6025390625,0.79833984375
29548848697,0.029296875,-0.61474609375,0.81103515625
29548869823,0.0244140625,-0.61181640625,0.81103515625
29548886202,-0.00732421875,-0.6181640625,0.82373046875
29548908672,-0.00244140625,-0.59033203125,0.81591796875
29548929856,-0.01953125,-0.59619140625,0.79931640625
29548946170,-0.02587890625,-0.60546875,0.79638671875
29548968709,-0.03369140625,-0.626953125,0.78173828125
29548989864,-0.0419921875,-0.64306640625,0.78662109375
29549006193,-0.0517578125,-0.67529296875,0.7763671875
29549028653,-0.07861328125,-0.681640625,0.7744140625
29549049967,-0.095703125,-0.6650390625,0.76025390625
29549066192,-0.10986328125,-0.6689453125,0.75048828125
29549088651,-0.1240234375,-0.67626953125,0.7490234375
29549109793,-0.1455078125,-0.681640625,0.7412109375
29549126150,-0.1787109375,-0.69482421875,0.74072265625
29549148691,-0.19287109375,-0.7060546875,0.74755859375
29549169939,-0.21533203125,-0.6708984375,0.72216796875
29549185530,-0.2431640625,-0.68505859375,0.70361328125
29549214816,-0.2685546875,-0.6982421875,0.68017578125
29549231144,-0.28369140625,-0.7021484375,0.6591796875
29549253688,-0.302734375,-0.7197265625,0.61572265625
29549274791,-0.328125,-0.755859375,0.5966796875
29549291144,-0.33203125,-0.77099609375,0.5810546875
29549313696,-0.322265625,-0.759765625,0.583984375
29549334700,-0.33251953125,-0.74072265625,0.57763671875
29549351143,-0.373046875,-0.7109375,0.533203125
29549373705,-0.40673828125,-0.6826171875,0.52001953125
29549394827,-0.42919921875,-0.6474609375,0.46728515625
29549411196,-0.45947265625,-0.658203125,0.470703125
29549433653,-0.47607421875,-0.7099609375,0.4638671875
29549454841,-0.49462890625,-0.70849609375,0.49609375
29549471824,-0.49951171875,-0.689453125,0.44970703125
29549493636,-0.53466796875,-0.69873046875,0.4013671875
29549514847,-0.5546875,-0.701171875,0.37890625
29549531117,-0.56396484375,-0.6708984375,0.376953125
29549553652,-0.59326171875,-0.64306640625,0.38037109375
29549574793,-0.6142578125,-0.6591796875,0.3525390625
29549591145,-0.6279296875,-0.630859375,0.38427734375
29549613694,-0.60791015625,-0.591796875,0.4345703125
29549634821,-0.61767578125,-0.609375,0.43408203125
29549651150,-0.65234375,-0.60595703125,0.37158203125
29549673617,-0.64599609375,-0.58056640625,0.365234375
29549694824,-0.65380859375,-0.65234375,0.4013671875
29549711170,-0.66650390625,-0.60498046875,0.39697265625
29549733646,-0.6728515625,-0.55078125,0.36865234375
29549754767,-0.69189453125,-0.56298828125,0.33935546875
29549770509,-0.71240234375,-0.59814453125,0.35595703125
29549793669,-0.70947265625,-0.5791015625,0.37451171875
29549814825,-0.7236328125,-0.5576171875,0.34375
29549830474,-0.71875,-0.55859375,0.32763671875
29549855119,-0.71484375,-0.58447265625,0.376953125
29549876171,-0.71484375,-0.54833984375,0.3564453125
29549890490,-0.71533203125,-0.56494140625,0.36865234375
29549913638,-0.74365234375,-0.55029296875,0.32470703125
29549936122,-0.74853515625,-0.55859375,0.34521484375
29549950524,-0.73583984375,-0.53662109375,0.3525390625
29549973668,-0.734375,-0.53955078125,0.34716796875
29549996147,-0.7314453125,-0.55029296875,0.34521484375
29550010457,-0.74609375,-0.5625,0.3271484375
29550033615,-0.74951171875,-0.56494140625,0.33935546875
29550056147,-0.74853515625,-0.56787109375,0.32666015625
29550070490,-0.7451171875,-0.5673828125,0.32373046875
29550093630,-0.74462890625,-0.58935546875,0.3291015625
29550116176,-0.744140625,-0.54541015625,0.3330078125
29550130553,-0.75537109375,-0.5517578125,0.2919921875
29550153654,-0.77197265625,-0.56201171875,0.2763671875
29550176121,-0.771484375,-0.58251953125,0.279296875
29550190550,-0.76806640625,-0.64697265625,0.28662109375
29550213647,-0.7705078125,-0.5986328125,0.294921875
29550236185,-0.7734375,-0.56103515625,0.26806640625
29550250443,-0.763671875,-0.59228515625,0.25830078125
29550273675,-0.77001953125,-0.607421875,0.2841796875
29550296139,-0.7724609375,-0.60009765625,0.306640625
29550310491,-0.79296875,-0.548828125,0.27392578125
29550333622,-0.7958984375,-0.58447265625,0.24169921875
29550356130,-0.80126953125,-0.61279296875,0.265625
29550377301,-0.79541015625,-0.60986328125,0.28369140625
29550393740,-0.7939453125,-0.58837890625,0.27001953125
29550416166,-0.7958984375,-0.583984375,0.2685546875
29550437340,-0.7861328125,-0.5751953125,0.291015625
29550453645,-0.78662109375,-0.56689453125,0.27978515625
29550476140,-0.77001953125,-0.56884765625,0.2841796875
29550497318,-0.7841796875,-0.5947265625,0.26220703125
29550513694,-0.76611328125,-0.56005859375,0.29541015625
29550519229,-0.76416015625,-0.55029296875,0.296875
29550541598,-0.771484375,-0.609375,0.2919921875
29550564186,-0.783203125,-0.60498046875,0.25830078125
29550579178,-0.7822265625,-0.59765625,0.267578125
29550601676,-0.77490234375,-0.57470703125,0.287109375
29550624156,-0.787109375,-0.61962890625,0.2734375
29550639167,-0.7841796875,-0.58349609375,0.2607421875
29550661675,-0.78369140625,-0.607421875,0.27783203125
29550679460,-0.779296875,-0.6162109375,0.25390625
29550699202,-0.76904296875,-0.62744140625,0.28125
29550721656,-0.76318359375,-0.6015625,0.2861328125
29550739420,-0.765625,-0.5537109375,0.27490234375
29550759239,-0.77294921875,-0.60595703125,0.25048828125
29550781630,-0.7509765625,-0.61962890625,0.27099609375
29550799433,-0.76123046875,-0.6064453125,0.28369140625
29550819126,-0.76513671875,-0.5771484375,0.2705078125
29550841720,-0.77099609375,-0.59765625,0.2314453125
29550859394,-0.7724609375,-0.61376953125,0.2509765625
29550879139,-0.7646484375,-0.56494140625,0.2998046875
29550901543,-0.76953125,-0.58349609375,0.27294921875
29550919447,-0.77685546875,-0.646484375,0.2353515625
29550939160,-0.7841796875,-0.65576171875,0.259765625
29550961624,-0.7744140625,-0.55615234375,0.29931640625
29550979404,-0.76318359375,-0.57958984375,0.28369140625
29550999077,-0.76123046875,-0.6552734375,0.267578125
29551021585,-0.77392578125,-0.64306640625,0.2587890625
29551039494,-0.7685546875,-0.6044921875,0.2939453125
29551059104,-0.7529296875,-0.63916015625,0.28076171875
29551081728,-0.7666015625,-0.6220703125,0.224609375
29551099424,-0.76318359375,-0.57958984375,0.22216796875
29551119102,-0.77490234375,-0.59423828125,0.2353515625
29551141744,-0.767578125,-0.63525390625,0.25341796875
29551159466,-0.77197265625,-0.63623046875,0.234375
29551179227,-0.765625,-0.61572265625,0.2578125
29551209032,-0.7890625,-0.58544921875,0.2353515625
29551219444,-0.7666015625,-0.6103515625,0.2548828125
29551240473,-0.7763671875,-0.6103515625,0.2666015625
29551261546,-0.771484375,-0.62841796875,0.25830078125
29551279421,-0.77392578125,-0.60693359375,0.24853515625
29551299124,-0.7646484375,-0.59130859375,0.24609375
29551321628,-0.75732421875,-0.62939453125,0.25244140625
29551339422,-0.7587890625,-0.62890625,0.26953125
29551359093,-0.75,-0.59326171875,0.25341796875
29551381715,-0.7685546875,-0.59814453125,0.224609375
29551399418,-0.80029296875,-0.64013671875,0.21630859375
29551420500,-0.7861328125,-0.65087890625,0.2265625
29551441766,-0.78662109375,-0.64306640625,0.2734375
29551459442,-0.7978515625,-0.56298828125,0.30322265625
29551482067,-0.81103515625,-0.5009765625,0.28369140625
29551501712,-0.810546875,-0.486328125,0.26318359375
29551519435,-0.79248046875,-0.51318359375,0.2958984375
29551540445,-0.7685546875,-0.5185546875,0.3330078125
29551569126,-0.77294921875,-0.51953125,0.353515625
29551579428,-0.79736328125,-0.56982421875,0.36083984375
29551600476,-0.7373046875,-0.57763671875,0.361328125
29551621529,-0.74951171875,-0.50927734375,0.375
29551639574,-0.73388671875,-0.46728515625,0.3857421875
29551661943,-0.703125,-0.50341796875,0.3837890625
29551681718,-0.70654296875,-0.6064453125,0.37255859375
29551699437,-0.71728515625,-0.611328125,0.37158203125
29551720439,-0.697265625,-0.60546875,0.38916015625
29551741762,-0.67724609375,-0.61767578125,0.42041015625
29551759384,-0.669921875,-0.58251953125,0.43310546875
29551781956,-0.65771484375,-0.51513671875,0.44482421875
29551801625,-0.640625,-0.5166015625,0.45556640625
29551819444,-0.61279296875,-0.5712890625,0.48974609375
29551841945,-0.58935546875,-0.58935546875,0.4765625
29551861746,-0.57568359375,-0.599609375,0.5087890625
29551879410,-0.5595703125,-0.578125,0.54150390625
29551901915,-0.52490234375,-0.53173828125,0.5712890625
29551921713,-0.5126953125,-0.51708984375,0.576171875
29551939421,-0.50390625,-0.52880859375,0.5771484375
29551961903,-0.4560546875,-0.5107421875,0.6259765625
29551981532,-0.40087890625,-0.55224609375,0.65966796875
29551999431,-0.39697265625,-0.578125,0.68310546875
29552021127,-0.38720703125,-0.546875,0.68798828125
29552041471,-0.34619140625,-0.5126953125,0.6982421875
29552059417,-0.30712890625,-0.5419921875,0.74365234375
29552081976,-0.29052734375,-0.53369140625,0.74365234375
29552101726,-0.3115234375,-0.49658203125,0.73388671875
29552124148,-0.28857421875,-0.51611328125,0.75048828125
29552141098,-0.21142578125,-0.5771484375,0.80810546875
29552162435,-0.1884765625,-0.56298828125,0.81201171875
29552178570,-0.20703125,-0.56201171875,0.80908203125
29552201096,-0.169921875,-0.541015625,0.81884765625
29552222265,-0.13134765625,-0.53271484375,0.81494140625
29552238597,-0.1298828125,-0.52294921875,0.8408203125
29552261124,-0.11376953125,-0.5322265625,0.85693359375
29552282299,-0.0625,-0.5419921875,0.8408203125
29552298621,-0.02197265625,-0.5205078125,0.85986328125
29552321166,-0.01171875,-0.5107421875,0.87841796875
29552342193,-0.0029296875,-0.50048828125,0.89501953125
29552358614,0.001953125,-0.474609375,0.86767578125
29552381104,0.009765625,-0.44873046875,0.8505859375
29552402175,0.0078125,-0.43896484375,0.8623046875
29552418646,-0.0009765625,-0.447265625,0.88037109375
29552441081,0.02978515625,-0.47705078125,0.8984375
29552462237,0.0439453125,-0.46826171875,0.8798828125
29552478596,0.0361328125,-0.45068359375,0.8759765625
29552501105,0.029296875,-0.46630859375,0.82421875
29552522302,0.06591796875,-0.46826171875,0.9326171875
29552538596,0.06591796875,-0.44580078125,0.93115234375
29552561110,0.08984375,-0.46240234375,0.89990234375
29552582322,0.046875,-0.48193359375,0.8916015625
29552598597,0.044921875,-0.45263671875,0.8544921875
29552621078,0.04736328125,-0.44482421875,0.83203125
29552642317,0.04443359375,-0.46484375,0.85595703125
29552658623,0.05908203125,-0.4560546875,0.84765625
29552681125,0.0615234375,-0.423828125,0.849609375
29552702147,0.05322265625,-0.40869140625,0.861328125
29552718623,0.0703125,-0.4228515625,0.8505859375
29552741090,0.07958984375,-0.435546875,0.8603515625
29552763576,0.0849609375,-0.4169921875,0.8740234375
29552777978,0.09619140625,-0.41552734375,0.87109375
29552801117,0.095703125,-0.43310546875,0.876953125
29552823637,0.0986328125,-0.4345703125,0.87939453125
29552838564,0.09521484375,-0.40771484375,0.873046875
29552861097,0.0869140625,-0.40478515625,0.86962890625
29552883546,0.1083984375,-0.4443359375,0.869140625
29552897919,0.11962890625,-0.45458984375,0.87109375
29552921117,0.11572265625,-0.44921875,0.86376953125
29552943592,0.11181640625,-0.4208984375,0.8486328125
29552957923,0.10107421875,-0.41259765625,0.857421875
29552981069,0.11962890625,-0.41552734375,0.88037109375
