28329539091,-0.078369140625,0.25732421875,-0.929565429688,0.252136230469
28329562776,-0.0783081054688,0.25732421875,-0.929565429688,0.252136230469
28329585263,-0.0816650390625,0.256530761719,-0.9296875,0.251586914062
28329600253,-0.0775146484375,0.259094238281,-0.928955078125,0.252746582031
28329621573,-0.0746459960938,0.260559082031,-0.928588867188,0.253479003906
28329652744,-0.0731201171875,0.261657714844,-0.928283691406,0.25390625
28329659160,-0.0714111328125,0.263610839844,-0.927734375,0.254455566406
28329683298,-0.0772705078125,0.259460449219,-0.928894042969,0.252807617188
28329705261,-0.0805053710938,0.255859375,-0.929870605469,0.251770019531
28329759668,-0.0750732421875,0.258544921875,-0.92919921875,0.253173828125
28329761881,-0.0713500976562,0.261596679688,-0.928344726562,0.254211425781
28329762606,-0.0762939453125,0.258483886719,-0.929260253906,0.252746582031
28329783630,-0.07275390625,0.25927734375,-0.92919921875,0.253173828125
28329803397,-0.0720825195312,0.258972167969,-0.929443359375,0.252807617188
28329817722,-0.0723266601562,0.257995605469,-0.929748535156,0.252563476562
28329834329,-0.0725708007812,0.256286621094,-0.930297851562,0.252319335938
28329864916,-0.0726318359375,0.253967285156,-0.930969238281,0.252075195312
28329877582,-0.0724487304688,0.251342773438,-0.931640625,0.252197265625
28329906472,-0.0680541992188,0.252197265625,-0.931579589844,0.252990722656
28329917145,-0.07177734375,0.247985839844,-0.932739257812,0.251708984375
28329938369,-0.0719604492188,0.246215820312,-0.933471679688,0.250732421875
28329952695,-0.0690307617188,0.247802734375,-0.933349609375,0.250366210938
28329973874,-0.0718994140625,0.245239257812,-0.934204101562,0.248901367188
28329996362,-0.079345703125,0.237731933594,-0.936157226562,0.246765136719
28330011308,-0.0790405273438,0.233154296875,-0.937255859375,0.246948242188
28330033995,-0.072265625,0.232971191406,-0.937377929688,0.248596191406
28330059134,-0.0723266601562,0.229431152344,-0.938354492188,0.248413085938
28330071350,-0.076416015625,0.224548339844,-0.939514160156,0.247253417969
28330093855,-0.074462890625,0.222778320312,-0.940124511719,0.246948242188
28330116370,-0.0744018554688,0.221557617188,-0.940368652344,0.247192382812
28330134218,-0.0740966796875,0.220825195312,-0.940551757812,0.247375488281
28330161346,-0.0734252929688,0.220825195312,-0.940490722656,0.247741699219
28330171620,-0.0725708007812,0.221374511719,-0.940246582031,0.248413085938
28330191277,-0.0715942382812,0.222229003906,-0.939880371094,0.249206542969
28330213832,-0.0707397460938,0.223388671875,-0.939514160156,0.249938964844
28330237677,-0.0703125,0.224487304688,-0.939208984375,0.250244140625
28330258805,-0.0703125,0.225402832031,-0.93896484375,0.250183105469
28330273871,-0.070556640625,0.226135253906,-0.938842773438,0.250061035156
28330291641,-0.0706787109375,0.2265625,-0.938720703125,0.249938964844
28330311375,-0.0707397460938,0.226745605469,-0.938659667969,0.25
28330333867,-0.0707397460938,0.226684570312,-0.938659667969,0.25
28330357702,-0.0707397460938,0.226623535156,-0.938720703125,0.25
28330371318,-0.0707397460938,0.226684570312,-0.938720703125,0.249938964844
28330393718,-0.0708618164062,0.227111816406,-0.938598632812,0.249816894531
28330411639,-0.0709228515625,0.227600097656,-0.938537597656,0.249755859375
28330432620,-0.0709228515625,0.227905273438,-0.9384765625,0.249755859375
28330453759,-0.07080078125,0.22802734375,-0.9384765625,0.249633789062
28330471622,-0.0706787109375,0.228088378906,-0.9384765625,0.24951171875
28330492697,-0.070556640625,0.228271484375,-0.9384765625,0.249328613281
28330516635,-0.0703125,0.228271484375,-0.938537597656,0.249328613281
28330539179,-0.0699462890625,0.228332519531,-0.938537597656,0.249389648438
28330560198,-0.0696411132812,0.228637695312,-0.938415527344,0.249450683594
28330573848,-0.0693969726562,0.229431152344,-0.938232421875,0.249572753906
28330591654,-0.069091796875,0.230041503906,-0.938049316406,0.249755859375
28330612675,-0.06884765625,0.230651855469,-0.937866210938,0.249877929688
28330633834,-0.0687866210938,0.231140136719,-0.937744140625,0.249938964844
28330651682,-0.06884765625,0.2314453125,-0.937683105469,0.249877929688
28330672731,-0.06884765625,0.231628417969,-0.937622070312,0.249877929688
28330693815,-0.0689697265625,0.231872558594,-0.937561035156,0.249938964844
28330719144,-0.0691528320312,0.232055664062,-0.9375,0.25
28330732676,-0.0692138671875,0.232055664062,-0.9375,0.25
28330753793,-0.0692138671875,0.232055664062,-0.9375,0.25
28330771637,-0.0692749023438,0.231994628906,-0.9375,0.25
28330792810,-0.0693359375,0.23193359375,-0.9375,0.249938964844
28330816625,-0.0693969726562,0.232238769531,-0.937438964844,0.249877929688
28330836269,-0.069580078125,0.232788085938,-0.937377929688,0.249633789062
28330854194,-0.0697631835938,0.233032226562,-0.937377929688,0.249450683594
28330873909,-0.06982421875,0.233276367188,-0.937316894531,0.249389648438
28330896912,-0.0697631835938,0.233642578125,-0.937194824219,0.24951171875
28330913352,-0.0697631835938,0.234497070312,-0.936950683594,0.249572753906
28330935813,-0.069580078125,0.235290527344,-0.936706542969,0.249755859375
28330957016,-0.0690307617188,0.23583984375,-0.936462402344,0.250427246094
28330973407,-0.0676879882812,0.236267089844,-0.936157226562,0.251525878906
28330995900,-0.0656127929688,0.237854003906,-0.935607910156,0.252563476562
28331016971,-0.0628662109375,0.239807128906,-0.935119628906,0.253234863281
28331040922,-0.0598754882812,0.241088867188,-0.934753417969,0.254028320312
28331055970,-0.0560302734375,0.241516113281,-0.934509277344,0.255493164062
28331077053,-0.0511474609375,0.242126464844,-0.93408203125,0.257446289062
28331093320,-0.0460205078125,0.243408203125,-0.933227539062,0.260192871094
28331115923,-0.04052734375,0.245239257812,-0.932189941406,0.263061523438
28331137052,-0.0345458984375,0.246276855469,-0.931335449219,0.266174316406
28331153347,-0.0263061523438,0.245361328125,-0.930786132812,0.269836425781
28331175893,-0.0180053710938,0.244934082031,-0.929870605469,0.273986816406
28331197017,-0.00885009765625,0.243896484375,-0.929260253906,0.27734375
28331212763,0.000244140625,0.244812011719,-0.927795410156,0.281555175781
28331235924,0.0098876953125,0.246826171875,-0.925842285156,0.286071777344
28331256967,0.0204467773438,0.247497558594,-0.924072265625,0.290466308594
28331272672,0.0316772460938,0.247314453125,-0.922424316406,0.294860839844
28331295801,0.043701171875,0.246826171875,-0.920654296875,0.299377441406
28331318350,0.05712890625,0.245971679688,-0.918640136719,0.303955078125
28331332713,0.0708618164062,0.24072265625,-0.91748046875,0.308654785156
28331355622,0.08544921875,0.234924316406,-0.91650390625,0.312316894531
28331378283,0.101501464844,0.230529785156,-0.914672851562,0.316223144531
28331392696,0.117492675781,0.228210449219,-0.91162109375,0.320983886719
28331422052,0.133422851562,0.228820800781,-0.907409667969,0.326232910156
28331438350,0.148986816406,0.231567382812,-0.902282714844,0.331848144531
28331452753,0.164916992188,0.235046386719,-0.896179199219,0.338256835938
28331475849,0.18212890625,0.238342285156,-0.889282226562,0.34521484375
28331498353,0.200134277344,0.242309570312,-0.881469726562,0.3525390625
28331519650,0.218139648438,0.246643066406,-0.872924804688,0.359924316406
28331535810,0.235900878906,0.250305175781,-0.864074707031,0.367431640625
28331558306,0.2529296875,0.252868652344,-0.855346679688,0.374816894531
28331579381,0.268920898438,0.254699707031,-0.8466796875,0.382019042969
28331595880,0.283325195312,0.25537109375,-0.838439941406,0.389221191406
28331619644,0.295837402344,0.256225585938,-0.830322265625,0.396667480469
28331639477,0.306579589844,0.256286621094,-0.822814941406,0.404113769531
28331655837,0.316650390625,0.25537109375,-0.815795898438,0.411071777344
28331678308,0.325988769531,0.25390625,-0.809143066406,0.417785644531
28331699602,0.334350585938,0.253112792969,-0.802551269531,0.424255371094
28331715830,0.341979980469,0.252502441406,-0.796508789062,0.429931640625
28331738327,0.348388671875,0.251831054688,-0.791137695312,0.43505859375
28331759547,0.354919433594,0.250793457031,-0.786376953125,0.439025878906
28331775832,0.361450195312,0.249267578125,-0.782104492188,0.442199707031
28331798358,0.367248535156,0.248657226562,-0.778015136719,0.444885253906
28331819590,0.373046875,0.248107910156,-0.7744140625,0.446716308594
28331835962,0.37890625,0.247192382812,-0.771179199219,0.447937011719
28331858304,0.384399414062,0.246520996094,-0.76806640625,0.448913574219
28331879535,0.390197753906,0.245422363281,-0.764953613281,0.449829101562
28331896292,0.39599609375,0.244384765625,-0.761901855469,0.450500488281
28331918284,0.401672363281,0.243225097656,-0.758850097656,0.451171875
28331955703,0.407470703125,0.241333007812,-0.755981445312,0.451904296875
28331958140,0.412902832031,0.239318847656,-0.753173828125,0.45263671875
28331978797,0.418212890625,0.237915039062,-0.750183105469,0.453491210938
28331999505,0.423217773438,0.236328125,-0.747314453125,0.454406738281
28332025101,0.427917480469,0.234680175781,-0.744934082031,0.454833984375
28332038740,0.432312011719,0.23291015625,-0.742858886719,0.454956054688
28332059339,0.436584472656,0.231201171875,-0.740905761719,0.455017089844
28332075801,0.440185546875,0.230102539062,-0.739013671875,0.455078125
28332098320,0.443359375,0.229064941406,-0.737426757812,0.455200195312
28332119513,0.445983886719,0.228210449219,-0.736145019531,0.455078125
28332135146,0.448364257812,0.227172851562,-0.735046386719,0.455078125
28332158288,0.4501953125,0.226257324219,-0.734191894531,0.455017089844
28332179367,0.451538085938,0.225524902344,-0.733703613281,0.454833984375
28332195910,0.452819824219,0.224609375,-0.7333984375,0.45458984375
28332218333,0.453308105469,0.224182128906,-0.733215332031,0.45458984375
28332239455,0.453735351562,0.223999023438,-0.733093261719,0.454406738281
28332255802,0.454162597656,0.223754882812,-0.733154296875,0.453979492188
28332278308,0.454528808594,0.223754882812,-0.733337402344,0.453369140625
28332300794,0.454650878906,0.223815917969,-0.733581542969,0.452758789062
28332316465,0.454467773438,0.224060058594,-0.734130859375,0.451965332031
28332338346,0.4541015625,0.224365234375,-0.734558105469,0.451538085938
28332360962,0.453674316406,0.225036621094,-0.734924316406,0.450927734375
28332375657,0.453369140625,0.225524902344,-0.735412597656,0.450256347656
28332404426,0.453063964844,0.225891113281,-0.73583984375,0.44970703125
28332428326,0.453063964844,0.226501464844,-0.73583984375,0.449462890625
28332435189,0.452392578125,0.227600097656,-0.73583984375,0.449462890625
28332458300,0.451538085938,0.228271484375,-0.736267089844,0.449340820312
28332481472,0.450622558594,0.228942871094,-0.736755371094,0.449157714844
28332495132,0.449829101562,0.229736328125,-0.737182617188,0.448791503906
28332518298,0.449035644531,0.230895996094,-0.737609863281,0.448303222656
28332540960,0.448120117188,0.231811523438,-0.738037109375,0.447998046875
28332555649,0.447204589844,0.232666015625,-0.738525390625,0.447692871094
28332578034,0.446228027344,0.233215332031,-0.739135742188,0.447387695312
28332608344,0.445434570312,0.233703613281,-0.739562988281,0.447204589844
28332615156,0.44482421875,0.234191894531,-0.739807128906,0.447143554688
28332638325,0.443969726562,0.234924316406,-0.739990234375,0.447265625
28332660828,0.443298339844,0.2353515625,-0.740173339844,0.447448730469
28332683302,0.442810058594,0.235656738281,-0.740112304688,0.447937011719
28332706483,0.442443847656,0.23583984375,-0.739929199219,0.448486328125
28332726772,0.442504882812,0.23583984375,-0.739685058594,0.448791503906
28332743321,0.442199707031,0.236083984375,-0.739379882812,0.449401855469
28332758316,0.441833496094,0.236572265625,-0.7392578125,0.449829101562
28332781944,0.441650390625,0.236755371094,-0.739013671875,0.450256347656
28332809478,0.441528320312,0.237182617188,-0.738647460938,0.450805664062
28332818317,0.441040039062,0.237548828125,-0.738464355469,0.451354980469
28332840782,0.440490722656,0.23779296875,-0.738403320312,0.451843261719
28332862005,0.439819335938,0.237976074219,-0.738403320312,0.452331542969
28332885814,0.439331054688,0.238098144531,-0.738464355469,0.452697753906
28332908319,0.439208984375,0.23828125,-0.738403320312,0.452819824219
28332938831,0.439086914062,0.238342285156,-0.73828125,0.453125
28332941262,0.4384765625,0.238525390625,-0.738342285156,0.453491210938
28332960850,0.438049316406,0.238464355469,-0.738464355469,0.453735351562
28332981916,0.437927246094,0.238464355469,-0.738403320312,0.453979492188
28332999367,0.437805175781,0.238891601562,-0.738159179688,0.454284667969
28333020824,0.437805175781,0.239013671875,-0.738037109375,0.454406738281
28333041990,0.437683105469,0.23876953125,-0.738159179688,0.454406738281
28333058283,0.4375,0.238830566406,-0.738220214844,0.454406738281
28333087048,0.437072753906,0.239196777344,-0.738464355469,0.454284667969
28333101798,0.436584472656,0.239562988281,-0.739013671875,0.453674316406
28333118235,0.435913085938,0.239562988281,-0.739807128906,0.453063964844
28333140783,0.435363769531,0.239624023438,-0.74072265625,0.452026367188
28333161862,0.434448242188,0.240112304688,-0.742004394531,0.450561523438
28333185825,0.433654785156,0.239685058594,-0.744079589844,0.448181152344
28333215811,0.432739257812,0.237670898438,-0.7470703125,0.445129394531
28333239619,0.431335449219,0.235656738281,-0.75048828125,0.441772460938
28333244479,0.430236816406,0.233642578125,-0.753967285156,0.437927246094
28333260778,0.429321289062,0.231811523438,-0.757507324219,0.433715820312
28333290811,0.42822265625,0.229675292969,-0.761474609375,0.428955078125
28333297683,0.425659179688,0.226867675781,-0.766662597656,0.423767089844
28333320828,0.419799804688,0.224670410156,-0.773803710938,0.417785644531
28333344784,0.411987304688,0.222534179688,-0.782348632812,0.410705566406
28333365797,0.40380859375,0.2197265625,-0.791137695312,0.403442382812
28333380786,0.394836425781,0.217590332031,-0.799499511719,0.396850585938
28333403282,0.385131835938,0.215942382812,-0.807434082031,0.391296386719
28333424467,0.374206542969,0.215881347656,-0.814880371094,0.386413574219
28333440821,0.36376953125,0.2158203125,-0.821960449219,0.38134765625
28333463303,0.354064941406,0.214721679688,-0.828796386719,0.376342773438
28333484318,0.343627929688,0.213745117188,-0.835510253906,0.37158203125
28333500768,0.332702636719,0.21337890625,-0.842163085938,0.366760253906
28333523776,0.322814941406,0.212036132812,-0.848327636719,0.362121582031
28333544418,0.313232421875,0.209838867188,-0.854309082031,0.357788085938
28333566950,0.303100585938,0.208312988281,-0.860046386719,0.353637695312
28333583269,0.292602539062,0.207153320312,-0.865783691406,0.349182128906
28333612086,0.281799316406,0.205627441406,-0.871704101562,0.344177246094
28333620805,0.269775390625,0.20361328125,-0.878234863281,0.33837890625
28333643288,0.255798339844,0.201232910156,-0.8857421875,0.3310546875
28333664459,0.241333007812,0.197143554688,-0.893920898438,0.322265625
28333680746,0.228149414062,0.189880371094,-0.902038574219,0.313415527344
28333703338,0.215148925781,0.181579589844,-0.909729003906,0.305236816406
28333724471,0.200622558594,0.17529296875,-0.916809082031,0.297424316406
28333740773,0.18505859375,0.171691894531,-0.923156738281,0.289916992188
28333746215,0.170227050781,0.169250488281,-0.928405761719,0.283630371094
28333768698,0.156188964844,0.168090820312,-0.932739257812,0.278137207031
28333791211,0.142272949219,0.167419433594,-0.936767578125,0.272399902344
28333806215,0.12939453125,0.166137695312,-0.940490722656,0.266784667969
28333828823,0.117736816406,0.1640625,-0.943664550781,0.262145996094
28333851263,0.1064453125,0.162475585938,-0.946411132812,0.258117675781
28333866315,0.0950927734375,0.161804199219,-0.948852539062,0.254028320312
28333888781,0.0847778320312,0.161254882812,-0.950866699219,0.25048828125
28333911294,0.0758666992188,0.159851074219,-0.952514648438,0.247924804688
28333926270,0.0673217773438,0.159118652344,-0.953857421875,0.245727539062
28333948697,0.0587158203125,0.159545898438,-0.954895019531,0.243408203125
28333971331,0.050537109375,0.159912109375,-0.955871582031,0.241394042969
28333989104,0.0430908203125,0.158996582031,-0.956726074219,0.239929199219
28334008744,0.0358276367188,0.157043457031,-0.957641601562,0.238830566406
28334031271,0.0288696289062,0.155944824219,-0.958251953125,0.237976074219
28334046244,0.0218505859375,0.155334472656,-0.958740234375,0.237182617188
28334068825,0.0146484375,0.154724121094,-0.959228515625,0.236206054688
28334091364,0.00787353515625,0.154052734375,-0.959716796875,0.234802246094
28334122601,0.0009765625,0.153930664062,-0.960144042969,0.233337402344
28334128826,-0.0057373046875,0.153503417969,-0.960510253906,0.232177734375
28334151268,-0.0123291015625,0.152526855469,-0.960876464844,0.23095703125
28334166305,-0.0186767578125,0.152038574219,-0.961181640625,0.229553222656
28334196247,-0.0245971679688,0.152099609375,-0.961486816406,0.227783203125
28334211182,-0.0304565429688,0.152160644531,-0.961608886719,0.226318359375
28334226325,-0.0364379882812,0.15185546875,-0.961669921875,0.225463867188
28334248842,-0.04248046875,0.1513671875,-0.961608886719,0.224914550781
28334267054,-0.0484008789062,0.150695800781,-0.961669921875,0.223999023438
28334295159,-0.050537109375,0.148376464844,-0.962463378906,0.221618652344
28334308775,-0.055419921875,0.145874023438,-0.963256835938,0.21875
28334326564,-0.05908203125,0.142700195312,-0.963928222656,0.216979980469
28334346427,-0.0614624023438,0.141296386719,-0.963928222656,0.216979980469
28334368755,-0.0643310546875,0.141418457031,-0.963562011719,0.217712402344
28334386579,-0.0671997070312,0.142272949219,-0.963134765625,0.218322753906
28334406314,-0.0697631835938,0.143615722656,-0.962768554688,0.218200683594
28334428748,-0.0714111328125,0.145568847656,-0.96240234375,0.218078613281
28334446558,-0.0737915039062,0.1474609375,-0.9619140625,0.218017578125
28334466140,-0.077392578125,0.148681640625,-0.961547851562,0.2177734375
28334496135,-0.0817260742188,0.150268554688,-0.961120605469,0.216979980469
28334506590,-0.08642578125,0.152465820312,-0.960571289062,0.215942382812
28334526270,-0.0921630859375,0.1552734375,-0.959899902344,0.214599609375
28334550164,-0.0958251953125,0.156616210938,-0.959533691406,0.213623046875
28334566556,-0.0968017578125,0.157653808594,-0.958984375,0.214782714844
28334586261,-0.0962524414062,0.156860351562,-0.958740234375,0.216735839844
28334608771,-0.0966186523438,0.154296875,-0.958862304688,0.217895507812
28334626629,-0.09912109375,0.153991699219,-0.958801269531,0.217224121094
28334649065,-0.102294921875,0.157165527344,-0.958251953125,0.216003417969
28334668743,-0.104675292969,0.160461425781,-0.957641601562,0.215209960938
28334686598,-0.106750488281,0.161926269531,-0.957275390625,0.214721679688
28334706270,-0.108459472656,0.163024902344,-0.956848144531,0.214660644531
28334728774,-0.109375,0.163879394531,-0.95654296875,0.215087890625
28334746567,-0.110534667969,0.164184570312,-0.956359863281,0.214965820312
28334775117,-0.1123046875,0.1640625,-0.956298828125,0.21435546875
28334788800,-0.114074707031,0.164123535156,-0.956176757812,0.214111328125
28334806619,-0.115539550781,0.163757324219,-0.955932617188,0.214599609375
28334827624,-0.117614746094,0.162963867188,-0.955749511719,0.215026855469
28334850073,-0.119750976562,0.162963867188,-0.955444335938,0.215148925781
28334866546,-0.121398925781,0.164123535156,-0.955017089844,0.215209960938
28334887574,-0.122924804688,0.166198730469,-0.954528808594,0.214965820312
28334908789,-0.124328613281,0.168395996094,-0.954040527344,0.214660644531
28334926607,-0.125122070312,0.169738769531,-0.953674316406,0.214660644531
28334953620,-0.125244140625,0.170043945312,-0.953491210938,0.215087890625
28334968656,-0.125,0.170166015625,-0.953369140625,0.215759277344
28334986579,-0.124816894531,0.17138671875,-0.953063964844,0.21630859375
28335007575,-0.125122070312,0.173522949219,-0.952514648438,0.216735839844
28335031579,-0.125427246094,0.176147460938,-0.951965332031,0.216979980469
28335046530,-0.125549316406,0.179016113281,-0.951354980469,0.217224121094
