29581752958,1,-1,-5,-1,1,-1,-3,-1
29581752958,2,7,9,3,0,1,2,2
29581753759,-5,-2,3,3,-2,-5,-3,-3
29581753759,-4,-4,-5,-3,0,-1,0,-2
29581758044,-1,7,12,4,2,0,0,1
29581758044,14,5,-1,-1,1,-1,-1,-4
29581760856,-22,-8,-4,-3,-3,-2,0,-4
29581760856,-6,-13,-5,-4,-4,-2,0,1
29581763745,-1,-3,-5,-6,-2,-1,0,-1
29581763745,0,1,2,0,1,1,-2,2
29581772462,6,4,2,-2,-3,0,0,0
29581772462,8,4,-1,-1,-1,0,-1,2
29581787445,-5,-2,-2,-2,-2,-1,-1,-2
29581787445,-3,-3,-4,-3,-2,1,-1,-3
29581794414,2,-3,-6,-2,0,-2,-1,2
29581794414,-3,2,0,0,1,0,-2,-1
29581802328,-18,-8,-3,1,-3,0,1,-7
29581802328,13,4,1,-5,-4,-7,-4,6
29581825129,13,5,3,3,2,1,-1,1
29581825129,-14,-2,0,1,1,0,0,-7
29581826619,2,4,5,5,1,0,-1,-3
29581826619,-13,-6,-7,-2,-1,-1,0,-7
29581871910,-2,-4,-2,-3,-1,1,-1,0
29581871910,-9,-8,-9,-4,-5,-3,-3,-4
29581872766,3,2,-4,-5,0,-1,-6,-7
29581872766,-12,-7,-7,-2,-2,1,3,0
29581873553,18,7,3,2,3,1,1,-2
29581873553,-11,-4,-2,-2,-3,-3,-1,2
29581876725,0,-4,0,-1,-3,-2,1,3
29581876725,-2,-4,-4,-1,0,-1,-2,-2
29581883458,-4,-4,-4,-3,0,1,-3,-2
29581883458,-2,0,2,1,0,0,0,-4
29581891091,-2,-3,-3,-1,-2,-1,-3,-2
29581891091,2,-4,-4,-2,-3,-4,-2,-3
29581899956,-5,5,6,-1,-2,-6,-3,0
29581899956,7,5,0,-3,-2,-1,-1,1
29581914279,1,5,0,-1,-4,-2,1,0
29581914279,-4,-6,0,1,0,0,-3,-1
29581921044,-2,-4,-6,-3,-3,-2,-2,-4
29581921044,0,-3,-3,-1,1,0,-1,-2
29581944948,0,1,1,2,1,2,1,-1
29581944948,-4,0,-9,-9,-7,-6,-2,-2
29581946404,-17,-8,1,9,-4,-4,-4,-6
29581946404,23,17,18,4,-4,-3,1,12
29581959224,-6,-6,-3,-2,-2,-2,0,-3
29581959224,5,2,1,1,2,0,1,-2
29581966101,-3,-3,-5,-4,-4,-1,-2,0
29581966101,-10,-8,-8,-4,-3,-2,-1,-9
29581982441,-5,-6,-3,0,-2,-2,-2,-4
29581982441,5,4,6,0,-1,-1,-1,2
29581983928,-3,-2,-4,-1,-1,0,-2,0
29581983928,-2,-5,-5,1,3,2,-1,-2
29582004896,5,6,7,2,1,0,0,3
29582004896,-1,1,0,0,-1,0,-3,-3
29582006465,-6,-9,-4,1,-2,0,4,-3
29582006465,8,9,3,-7,-6,-4,-2,0
29582019186,-4,-7,0,1,0,0,-1,-3
29582019186,4,4,8,4,1,-1,0,0
29582026135,2,-1,-5,-4,-2,-1,1,0
29582026135,-7,-7,-6,1,0,0,-2,-2
29582042401,2,-2,-8,-2,-2,-2,-1,-1
29582042401,-1,0,2,0,-1,-1,0,2
29582043909,2,-4,-7,-5,1,2,1,2
29582043909,-2,-3,-2,0,3,3,2,-1
29582064797,-2,2,5,2,1,-1,2,-1
29582064797,-2,0,-6,-2,-1,0,-2,-3
29582066425,10,5,6,5,0,0,0,4
29582066425,-6,-12,-9,-2,1,0,0,-3
29582079217,4,7,0,-1,-1,-3,-4,0
29582079217,0,-2,-1,1,1,0,-1,0
29582086056,-4,-4,-3,0,0,-1,-1,-4
29582086056,6,10,12,4,2,2,-2,-1
29582102330,-2,-8,-6,-2,-1,-2,1,-2
29582102330,-1,-2,-2,0,0,-4,-3,-4
29582103903,-2,1,0,-2,2,-1,-2,-1
29582103903,-2,-4,-1,-1,0,-3,-2,-3
29582124949,-2,-2,-2,-3,-3,0,-2,0
29582124949,2,1,0,-3,-2,1,-1,0
29582126427,4,6,5,-3,-5,-2,-2,0
29582126427,-15,-9,-8,-3,-2,1,-2,-8
29582138550,14,8,6,-2,-4,-3,-2,7
29582138550,-2,-1,1,-1,-3,0,1,-2
29582147458,0,5,4,2,1,1,0,1
29582147458,-4,1,0,1,-3,0,-1,-3
29582162094,-10,-9,-5,0,3,2,1,-3
29582162094,-2,-5,-3,-2,-2,-2,-1,1
29582168515,-1,-5,-6,-1,-2,-2,-1,-1
29582168515,3,5,4,-3,-4,-4,-1,0
29582184915,-8,-3,-1,3,-1,1,-1,-2
29582184915,-3,-3,-3,-3,-3,-3,-1,2
29582186456,-7,-5,-8,-8,-4,-2,-1,-1
29582186456,-1,-2,-1,0,-2,-3,-2,1
29582199257,2,1,-1,-1,0,-1,-1,0
29582199257,-3,-1,1,2,0,-1,1,0
29582205944,0,-6,-1,2,4,1,2,-3
29582205944,-5,-6,-5,-6,-6,-3,0,2
29582222403,0,-1,1,-2,1,-4,-7,-1
29582222403,-2,-4,-6,-3,-3,-3,-3,-2
29582223904,-1,1,3,2,1,1,0,-1
29582223904,4,1,1,0,2,-2,-2,1
29582244922,-3,1,-3,-1,-2,1,1,0
29582244922,0,2,0,0,1,-1,-1,-1
29582246400,0,-1,-3,-2,-3,-2,-3,-4
29582246400,-2,-4,-3,0,1,1,-1,4
29582258558,-4,-4,-2,-1,0,1,1,0
29582258558,-1,-5,-4,0,1,1,-1,-2
29582267428,-1,-3,-4,-3,1,1,2,1
29582267428,2,5,3,4,-2,-4,-1,-2
29582282446,-3,-4,-4,-4,-1,-1,-2,-3
29582282446,4,2,4,2,-2,-1,-1,-1
29582283918,-1,1,2,-2,-3,-3,-2,-2
29582283918,2,-1,-2,-4,-4,-2,0,-2
29582304813,-1,-3,0,-2,0,0,-2,-2
29582304813,-2,-1,4,3,0,2,1,0
29582306431,-2,-2,4,-2,0,-2,-3,-2
29582306431,2,0,-3,3,2,2,-3,-1
29582318482,1,3,-4,-1,-2,-2,-1,-2
29582318482,-4,-4,-8,-4,-2,-2,-2,-4
29582327451,-1,0,-4,2,1,2,0,-1
29582327451,2,0,0,0,0,0,-4,-1
29582342512,-1,-1,1,1,-2,-3,-2,-2
29582342512,-1,-1,-1,-2,-3,-5,-3,-1
29582343895,-1,-2,0,0,-1,-1,0,0
29582343895,-2,-4,-5,-9,-3,-1,-1,-4
29582364886,2,4,7,5,3,0,0,1
29582364886,1,1,0,-4,-1,0,-2,-1
29582366475,3,5,3,-1,-3,-2,0,2
29582366475,-9,-10,-11,1,1,2,0,-3
29582378551,-2,-3,-2,-3,-6,-4,-1,-1
29582378551,3,5,5,3,5,5,3,2
29582387459,-2,-2,-3,-1,-2,-2,-1,-2
29582387459,2,0,2,0,3,0,0,1
29582402406,-4,-5,-8,-7,0,-1,-1,-2
29582402406,0,3,5,6,-2,-1,-1,0
29582403959,-2,-1,0,-3,-1,-2,0,-3
29582403959,0,1,1,1,0,0,1,-1
29582424990,-1,-4,-2,-4,-1,0,0,-1
29582424990,1,1,-2,-3,-2,-3,-3,-1
29582426379,-1,-4,-8,-5,-5,-4,-4,0
29582426379,1,-1,0,0,0,-2,-1,0
29582438541,-2,1,2,2,1,2,0,-1
29582438541,-5,-4,2,3,3,1,-1,-3
29582447407,-1,0,1,2,1,0,0,0
29582447407,0,0,-5,-3,-2,-2,-1,0
29582462375,1,2,4,2,0,-2,0,-1
29582462375,-4,-8,-7,-4,-4,0,-2,-3
29582463903,0,3,2,2,2,0,-1,-2
29582463903,-3,-5,-4,-2,-3,-2,-1,-4
29582485418,-1,-4,-5,-6,-7,-1,-4,-1
29582485418,1,2,5,1,-1,-3,-1,-1
29582486896,1,-3,-5,-5,-1,0,1,1
29582486896,3,6,12,6,-1,-3,-3,-2
29582498503,-1,-3,-1,-2,-1,-2,-1,-2
29582498503,1,0,-2,-3,-3,-5,-3,-3
29582507422,-2,-2,-1,1,3,1,-4,-1
29582507422,-3,-2,-3,-5,-2,-2,-2,-2
29582522376,3,8,7,5,7,6,2,2
29582522376,1,2,-2,-6,-7,-1,3,2
29582523909,-2,-3,-1,-2,-2,-1,-1,-2
29582523909,-1,-1,-1,-5,-1,0,0,1
29582544853,0,-1,0,2,1,-4,-2,-2
29582544853,-3,-4,-1,0,0,0,-3,-2
29582546445,-1,0,-1,-1,-3,-2,0,-1
29582546445,-2,-1,0,1,0,-2,-2,0
29582558419,-1,-3,-7,-8,-2,-2,0,-1
29582558419,0,-2,2,4,1,1,-1,-1
29582567434,0,3,6,4,-4,-1,1,0
29582567434,-1,0,-1,0,2,1,-1,-3
29582582431,-3,0,-2,-2,1,0,-2,-2
29582582431,-5,-7,-11,-11,-5,-3,-4,-3
29582583902,3,8,12,8,4,-1,0,1
29582583902,1,-2,7,-2,-1,-2,0,0
29582604784,-4,-1,7,5,0,-1,0,-1
29582604784,1,0,1,0,1,0,-3,-1
29582606457,-1,-3,-4,-5,-3,-4,0,-1
29582606457,-2,-1,-8,-2,-2,-2,-3,-1
29582618529,0,-1,-5,-3,0,-1,-1,-1
29582618529,0,3,2,2,1,-1,1,1
29582627428,0,-3,-6,-4,-4,-2,-3,-1
29582627428,-2,0,-2,0,-1,-1,1,-2
29582641753,-2,-3,-3,0,1,0,-2,0
29582641753,-3,-2,-5,-3,-1,-3,-1,-1
29582648552,-3,-5,-1,1,1,1,1,-1
29582648552,0,1,4,0,-4,-3,0,-1
29582664313,1,2,-1,-2,-5,-4,0,1
29582664313,-3,-3,-3,-1,1,1,-1,-1
29582664900,-4,-3,-4,-1,-1,-2,-2,-3
29582664900,-2,-5,-12,-4,0,3,1,1
29582686740,1,0,2,2,-4,1,3,1
29582686740,4,7,7,5,2,-1,-1,-1
29582687384,-3,-7,-6,-4,-3,-1,-3,-3
29582687384,-2,-4,0,-1,-2,-1,-2,-1
29582700946,1,1,-3,-2,-3,-4,-4,0
29582700946,2,-1,1,-3,-3,-2,1,-1
29582708515,1,4,10,5,-1,-1,-2,-2
29582708515,-1,-4,1,2,3,-1,-1,-1
29582724219,-6,-9,-2,0,-3,0,-3,-5
29582724219,1,0,-3,-5,1,-1,1,-1
29582724916,3,5,-4,-8,-3,-4,0,2
29582724916,-1,5,4,3,2,4,-2,-2
29582746717,0,4,2,-1,0,-1,-2,-3
29582746717,-2,-6,-2,0,-1,0,0,2
29582747395,-4,-6,-5,-4,-7,-5,-1,-3
29582747395,3,-1,-2,-1,-1,0,2,3
29582761072,3,4,7,1,2,2,0,1
29582761072,-4,-7,-4,-2,-2,0,-3,-4
29582768535,2,8,1,0,2,0,-2,-5
29582768535,-5,-7,-4,-4,-2,-3,-3,-2
29582784175,-8,-14,-8,-4,-5,-3,-2,-4
29582784175,1,3,0,2,1,0,-2,2
29582784927,4,5,1,0,0,-1,-1,4
29582784927,-1,3,-4,-5,-8,-2,-1,-4
29582806584,2,13,11,4,0,-1,1,2
29582806584,-7,-18,-6,0,-2,-1,0,-3
29582807459,2,1,-4,-3,3,0,-1,2
29582807459,7,4,4,-1,-3,-1,-1,0
29582821669,-3,-9,-4,-2,1,0,1,-1
29582821669,-2,-2,0,2,-2,-3,-4,-5
29582822374,-4,-6,0,0,3,2,2,2
29582822374,-1,5,1,2,2,2,0,0
29582852248,5,13,-1,-5,-6,-3,-4,-1
29582852248,2,6,5,4,-1,0,-2,0
29582853017,-6,-9,-3,0,-4,-2,-1,-4
29582853017,1,-3,3,0,6,2,2,2
29582866729,-6,-16,-8,-5,-6,-4,-3,-3
29582866729,6,15,2,1,3,1,1,1
29582867397,-7,-19,-3,4,-1,0,1,-5
29582867397,7,16,3,-8,-9,-7,-4,-1
29582889226,-8,-20,-7,-4,-2,0,0,-3
29582889226,5,19,4,-1,-1,-2,1,3
29582889917,-3,-3,-2,-1,1,0,-1,-1
29582889917,-6,-10,-4,4,6,2,1,-4
29582912366,-1,1,0,3,4,0,-1,-2
29582912366,-2,-8,-4,-10,-13,-4,1,-1
29582913061,0,4,-1,1,2,0,-1,0
29582913061,-1,-2,1,-1,0,-1,-2,0
29582926673,-2,-1,-2,2,1,0,-2,-2
29582926673,-5,-5,-4,-1,4,1,0,-4
29582927346,1,0,-1,-4,-2,-1,0,1
29582927346,1,2,1,3,-2,0,-1,0
29582949225,3,1,-2,-6,-7,-4,1,3
29582949225,-5,-4,-2,-2,-1,-1,-2,-1
29582949910,-2,-1,1,-1,-1,-3,-5,-4
29582949910,-12,-31,-8,-1,0,-1,-2,-5
29582972380,10,32,8,1,-2,-1,2,5
29582972380,1,-5,-3,0,-2,-2,0,1
29582973050,0,10,4,-1,-1,2,3,-1
29582973050,2,-1,-1,-3,-5,-1,-1,0
29582986686,-7,-8,-3,0,2,-2,1,-2
29582986686,-4,-8,-4,-4,-4,-3,-2,1
29582987414,1,2,4,4,0,-1,-16,-10
29582987414,-2,2,0,2,4,3,4,0
29583009063,3,5,2,-1,0,-2,-3,0
29583009063,0,-1,2,-1,-8,-1,2,3
29583009888,-5,-5,-9,-4,4,-1,3,0
29583009888,-7,-19,-4,-1,-3,-4,0,-2
29583023498,12,17,0,-5,-8,-3,-4,1
29583023498,-6,-7,-6,-3,-3,-6,-2,-4
29583031801,1,2,0,1,-2,-1,2,4
29583031801,-5,2,-3,-2,3,0,-1,-3
29583046757,-10,-15,-5,-3,2,-1,3,-3
29583046757,2,5,2,1,-1,-3,-7,-5
29583047394,-1,2,3,1,-1,1,1,0
29583047394,0,5,-1,1,1,2,12,-2
29583069142,-6,-16,-7,-2,0,-1,2,-3
29583069142,4,9,4,-2,-2,1,2,0
29583069967,1,1,-1,-5,-7,-2,-2,4
29583069967,1,5,-4,-7,-5,-4,-7,0
29583083540,-7,-9,-2,6,1,-2,-10,-2
29583083540,1,9,3,1,4,5,-1,1
29583091718,1,-3,-4,-1,-3,-5,0,0
29583091718,4,5,-1,-2,0,1,-2,2
29583106694,-2,-4,-3,-5,-4,-3,2,0
29583106694,-2,-7,-2,3,5,4,-4,-4
29583107375,-2,3,7,-2,-1,2,-3,-2
29583107375,-1,3,-1,4,1,-1,-2,1
29583129192,0,0,-4,-4,-3,-3,-1,0
29583129192,2,3,4,-3,-7,-3,2,0
29583129919,0,2,1,3,3,0,-1,0
29583129919,-1,-4,-2,-2,-1,-4,-5,-1
29583152478,0,-1,3,-1,2,3,-1,-2
29583152478,-5,-12,-8,-5,1,-2,-3,-3
29583153091,-2,-2,-7,-8,-6,-6,0,0
29583153091,0,5,6,8,4,1,-13,-8
29583166718,-5,-3,-4,-1,-3,-2,-5,-3
29583166718,-2,1,-2,0,4,3,0,-3
29583167389,-4,-9,-5,-1,1,-1,0,-2
29583167389,6,14,10,3,0,3,4,7
29583189224,2,0,-3,-5,-9,-2,0,1
29583189224,-7,-14,-16,-10,-8,-5,1,-4
29583189936,0,-7,-11,1,4,-1,-2,0
29583189936,1,2,-3,-9,-9,-4,-2,-1
29583212353,-3,-3,2,1,3,0,0,-2
29583212353,5,10,6,8,2,1,-1,1
29583213033,-3,-8,-6,-8,-8,-4,-2,-4
29583213033,0,-3,-5,-1,2,-1,1,-2
29583226642,-3,-8,-5,-5,-1,-1,-2,-4
29583226642,-2,-2,-1,3,2,-1,0,0
29583227403,2,5,3,-1,0,1,3,1
29583227403,-2,-1,1,-2,-4,-2,-1,-3
29583249270,-1,2,-6,-4,-3,-3,0,1
29583249270,-4,-9,-11,-10,-4,-3,1,2
29583249891,4,8,22,19,9,6,-3,-1
29583249891,-3,-3,3,6,8,2,1,3
29583272444,-9,-13,-16,-8,-2,-1,-5,-10
29583272444,3,5,-5,-11,-10,-7,-1,2
29583273066,5,10,24,12,0,-1,7,5
29583273066,-3,-5,-1,-2,-2,-3,-2,-5
29583286732,3,5,2,2,1,1,2,1
29583286732,0,-4,-4,-2,0,-1,-1,-2
29583287392,-7,-8,-19,-19,-11,-3,-2,-5
29583287392,1,3,17,13,7,3,1,0
29583309189,0,-4,-5,-4,-1,-1,-2,-1
29583309189,1,-1,3,-2,-1,2,-1,1
29583309914,2,-2,-11,-4,-2,-3,-4,0
29583309914,-3,-5,-13,-11,-7,-3,-1,1
29583332370,6,15,28,18,10,4,1,1
29583332370,-6,-2,0,3,2,-3,-6,-5
29583333067,-3,-4,0,-4,-5,-3,-4,-5
29583333067,-5,-10,-17,-9,1,-1,-5,-3
29583346698,2,8,-4,-9,-4,0,0,0
29583346698,2,1,7,13,3,-1,0,1
29583347363,1,5,10,9,2,1,0,2
29583347363,0,2,10,0,-4,-2,-1,-1
29583369192,-2,-4,4,11,7,3,-3,-2
29583369192,0,-4,-8,-16,-12,-6,1,0
29583369912,-3,-4,-19,-14,-5,-2,0,-5
29583369912,-2,-1,6,5,-3,-5,-7,-5
29583392412,-1,-2,2,5,5,2,-2,1
29583392412,6,14,13,9,4,2,0,4
29583393065,-2,-5,-16,-20,-15,-5,2,0
29583393065,0,-1,-5,-8,-6,-4,0,-3
29583406683,2,9,15,15,9,3,5,2
29583406683,-5,-12,-7,1,6,1,-8,-9
29583407345,1,2,2,-3,-3,-3,0,1
29583407345,1,1,0,-4,-3,0,0,2
29583429212,-1,-4,-11,-10,-8,-4,-4,-1
29583429212,0,1,10,8,7,6,1,2
29583429917,-3,-4,-8,-1,1,-2,-1,-3
29583429917,0,-5,-9,-6,-3,-2,-1,-1
29583452402,1,-1,2,-6,-6,-5,0,-2
29583452402,-7,-2,11,16,11,1,-3,-2
29583453026,1,-4,-27,-13,-5,-3,-9,-3
29583453026,-4,-10,-37,-15,-3,1,4,1
29583466687,11,25,81,44,13,5,0,3
29583466687,0,6,0,-7,-10,-1,3,3
29583467417,-8,-7,8,8,7,0,-1,0
29583467417,-3,2,-10,-6,-5,-5,-3,0
29583489201,-5,-21,-55,-34,-16,-6,-5,-9
29583489201,-2,-6,2,-9,-3,-4,5,1
29583489864,7,8,19,24,13,7,-5,-3
29583489864,-9,-10,-10,-14,-9,-3,-1,-8
29583512267,2,6,-2,3,2,1,14,7
29583512267,3,3,1,3,-2,0,10,4
29583513073,-1,2,-3,-5,0,0,2,-1
29583513073,-12,-20,-25,-13,-4,-5,-7,-7
29583526571,1,14,41,25,12,3,-4,3
29583526571,7,1,-21,-20,-13,-3,-1,5
29583527330,0,-2,6,3,-1,3,3,1
29583527330,-1,0,21,19,13,6,0,-1
29583549197,-8,-13,-16,-14,-6,-3,-1,-5
29583549197,-1,0,-5,-11,-9,-5,-3,-4
29583549927,-1,6,25,20,8,4,0,-3
29583549927,-1,-4,-7,-7,-11,-4,2,2
29583572342,-9,-15,-16,-2,6,2,-3,-7
29583572342,7,13,4,0,3,-1,-1,0
29583573045,1,0,6,-14,-18,-5,4,5
29583573045,-2,1,5,9,4,-2,-3,-5
29583586665,-1,0,6,1,2,4,9,6
29583586665,-14,-23,-43,-14,2,-1,-10,-14
29583587393,4,10,36,25,12,3,3,4
29583587393,7,19,20,5,-3,-2,0,5
29583609192,-7,-7,-15,-10,-8,-6,0,-2
29583609192,19,6,2,-1,-3,0,1,11
29583609922,-12,-13,-20,-10,-5,-7,0,-1
29583609922,6,3,14,1,2,5,7,2
29583632456,-5,-9,-15,-23,-15,-5,-4,-4
29583632456,-11,-13,15,12,4,-2,-1,-3
29583633087,-3,-8,-37,-26,-10,-1,3,-7
29583633087,8,25,53,26,8,2,-1,5
29583646671,8,10,-5,2,-4,-2,-3,-1
29583646671,-5,0,12,24,17,6,3,-3
29583647377,-12,-19,-26,-21,-8,-7,-8,-7
29583647377,-3,-2,-10,-7,1,2,-1,1
29583669242,7,0,-11,-2,1,0,-6,1
29583669242,0,4,1,-2,-4,-1,-4,0
29583669914,-4,-5,-10,-6,-9,-8,-5,1
29583669914,-2,-12,-36,-26,-11,-7,-12,-9
29583692546,5,8,39,23,5,4,2,8
29583692546,-5,-7,-5,-5,-7,-4,-2,-2
29583693075,5,6,0,-1,5,4,1,0
29583693075,0,1,5,5,1,-1,-1,-1
29583706688,3,-2,-11,-12,-5,1,5,6
29583706688,0,3,8,2,7,5,1,-3
29583707393,-4,-3,-10,-8,-2,-3,-8,-12
29583707393,9,10,26,20,5,6,11,9
29583729192,-9,-6,-14,-18,-12,-9,1,-6
29583729192,16,13,25,23,13,7,1,3
29583729927,-1,-6,-9,-19,-18,-7,2,4
29583729927,1,5,13,23,20,12,3,1
29583752010,-3,-7,-27,-6,0,-6,-9,-14
29583752010,-16,-15,-36,-42,-26,-14,-5,2
29583752776,3,6,33,36,17,6,-8,-6
29583752776,-7,-13,-48,-34,-14,-8,-2,-4
29583766063,12,24,41,39,15,10,7,8
29583766063,-3,1,-14,-14,-9,-7,-9,-11
29583774194,-4,-7,18,5,5,4,3,0
29583774194,-9,-7,-4,-8,-11,-6,4,2
29583789164,4,-4,-7,-25,-23,-10,-4,1
29583789164,-10,-12,-5,12,8,0,-6,-11
29583789917,-9,3,-15,-7,-10,-4,7,5
29583789917,0,5,-6,3,8,1,-6,-3
29583812370,4,-2,-11,-1,-9,-6,0,14
29583812370,10,12,15,14,16,9,-3,-4
29583813091,-2,-5,-21,-22,-10,-4,0,-1
29583813091,2,-5,-9,-18,-11,-8,2,8
29583826028,-4,2,-11,-3,0,2,-8,-12
29583826028,-1,11,17,10,7,4,1,-5
29583834117,0,-19,-40,-18,-13,-14,-7,6
29583834117,3,-1,4,15,5,5,6,2
29583849114,-11,-1,8,-7,-2,-2,0,-9
29583849114,0,-7,-1,6,7,2,6,12
29583849916,21,10,4,13,8,4,7,12
29583849916,5,9,34,23,3,-1,-14,-12
29583872476,-13,-17,-12,-5,-6,-5,-6,0
29583872476,-5,-4,-27,-27,-12,-2,0,-9
29583873047,9,14,8,8,0,0,-3,-4
29583873047,-16,-21,-19,-15,-9,-2,-4,-4
29583886049,2,7,12,18,8,-1,-3,-2
29583886049,-12,-10,-16,-24,-14,-7,-15,-24
29583894219,11,4,18,27,20,8,2,9
29583894219,-3,4,2,-9,-10,-1,5,1
29583909212,3,-4,-29,-24,-8,-4,3,-1
29583909212,-11,-14,-8,-17,-18,-8,3,3
29583909912,-5,30,79,51,31,18,9,-2
29583909912,0,-9,-25,-13,-5,-1,-1,-3
29583932402,20,3,0,9,12,8,-1,3
29583932402,-6,3,5,14,0,0,1,5
29583933092,1,0,-6,-16,-13,-6,-3,0
29583933092,8,-3,-11,7,7,7,2,-1
29583946064,-11,-14,-33,-20,-13,-7,-8,-9
29583946064,4,-4,-12,3,0,-2,1,6
29583954099,6,11,4,-5,-5,-1,3,6
29583954099,-9,-1,-7,-15,-13,-5,-16,-24
29583969140,-6,2,6,6,18,11,1,-4
29583969140,-9,-20,-28,-28,-19,-9,0,-4
29583969908,-13,0,29,19,3,0,-8,-14
29583969908,8,7,2,2,4,-3,-6,4
29583992418,-3,1,15,14,2,-3,-2,-4
29583992418,9,12,18,13,12,7,2,8
29583993066,1,-10,-40,-34,-14,-8,-3,-4
29583993066,-32,-19,-7,-6,-2,-1,2,-9
29584005950,5,-2,8,2,-4,-4,-6,3
29584005950,-19,-2,-8,-15,-11,-1,2,-5
29584014068,10,-9,-15,-4,-2,-4,-5,1
29584014068,4,-7,-33,-27,-9,-8,-2,7
29584037297,7,23,49,32,17,9,6,4
29584037297,2,6,22,24,9,7,12,14
29584038061,-17,-11,-20,-17,-11,-4,-6,-8
29584038061,13,12,20,28,22,10,3,2
29584052396,-13,-28,-52,-41,-24,-11,-7,-8
29584052396,9,6,4,8,4,2,-2,1
29584053065,-18,-6,14,-7,-10,0,-4,-4
29584053065,16,21,38,48,28,5,11,22
29584065950,-3,0,-2,-8,-5,0,-2,-4
29584065950,0,-7,-16,-11,-6,-8,0,-1
29584074191,-10,-10,-22,-17,-6,-2,0,-2
29584074191,-10,-7,0,-12,-19,-8,3,0
29584089194,-8,-9,-23,-12,5,3,4,0
29584089194,4,23,41,33,10,2,6,10
29584089914,16,-15,-55,-23,-2,3,1,7
29584089914,8,18,39,23,8,-1,-10,-9
29584112387,-8,-5,11,-7,-9,-6,4,2
29584112387,-9,-8,15,22,22,13,2,1
29584113042,-3,0,-13,0,0,-1,-2,-2
29584113042,-7,-14,-14,-8,-10,-2,14,9
29584134970,-4,7,15,3,-7,-3,-4,-4
29584134970,24,3,-17,-14,-5,-8,-14,-14
29584135570,0,12,37,34,20,7,1,-3
29584135570,-3,-13,-24,-14,-4,-6,-2,-1
29584149064,11,15,26,14,-1,0,1,5
29584149064,-3,-1,0,-9,-10,-2,3,2
29584149906,4,7,0,17,12,2,3,1
29584149906,-9,-10,-19,-24,-13,-7,-4,-3
29584172463,0,-2,-13,-13,-11,-8,-3,-3
29584172463,0,3,2,-7,-5,-2,2,5
29584173039,-18,-7,6,-6,-5,0,-4,-12
29584173039,17,-3,-44,-37,-10,-3,-9,-20
29584194769,-13,1,21,22,7,2,-2,0
29584194769,-7,-10,-11,10,8,-2,-8,-7
29584195534,8,28,67,45,21,13,8,12
29584195534,-3,-2,-15,-11,-9,-5,-6,1
29584209867,4,-5,-8,-6,1,3,3,1
29584209867,2,-16,-34,-11,-2,-8,-8,-4
29584210568,-12,-14,19,-2,-9,-5,-1,2
29584210568,3,18,8,8,3,-1,2,7
29584232398,11,-1,-11,-10,-5,-6,-8,-7
29584232398,-8,-1,1,-5,-2,1,0,-2
29584233040,-26,-5,-22,-10,-8,-6,0,-20
29584233040,65,5,33,54,27,11,10,44
29584254911,-16,-17,-15,-24,-9,-1,1,-1
29584254911,1,10,0,-7,-8,-1,3,1
29584256379,-6,-25,-65,-39,-10,-9,-8,-8
29584256379,-27,33,70,33,7,5,2,-13
29584268506,-6,-39,-13,1,5,3,3,18
29584268506,8,-4,-22,-9,-8,-5,-7,2
29584277397,13,26,45,18,-2,-5,6,13
29584277397,-26,-19,-44,-46,-24,-8,-13,-19
29584292362,7,17,10,26,21,6,2,1
29584292362,-13,-8,-7,-13,-4,-2,-4,-18
29584293903,-2,-22,-29,-12,-3,0,2,7
29584293903,2,4,17,11,5,-1,0,-1
29584314732,1,17,18,15,3,-1,-3,-10
29584314732,-2,-6,8,-12,-8,-1,1,9
29584316297,27,17,14,36,20,4,-2,-9
29584316297,-1,-3,8,10,9,4,-2,3
29584328462,-22,-25,-50,-35,-18,-9,-4,-18
29584328462,3,13,18,-4,-13,-2,-2,-4
29584337433,4,-2,-5,-7,0,1,-3,3
29584337433,-8,-1,2,1,-5,-8,-1,3
29584352396,12,5,0,1,1,-3,0,3
29584352396,-13,-13,-14,-16,-10,-5,-3,-6
29584353905,-2,6,50,26,13,8,3,6
29584353905,-9,-11,-28,-26,-13,-8,-2,-3
29584374876,17,6,-13,-17,-3,-1,-6,-1
29584374876,-8,0,-5,-1,1,-3,1,-6
29584376351,7,-16,-4,-11,-9,-2,-7,3
29584376351,5,8,10,12,9,5,8,14
29584389197,-14,-6,9,8,-1,-3,-4,-9
29584389197,11,13,14,14,5,-3,-3,3
29584396042,-1,-9,-49,-36,-18,-12,-6,-3
29584396042,-4,-6,9,5,-3,0,-1,-4
29584412364,-10,-10,3,2,-1,2,4,4
29584412364,7,-2,-12,-6,-2,-7,1,4
29584413899,-18,3,-5,-15,-5,-3,3,-6
29584413899,-13,-17,-27,-21,-17,-7,-4,-9
29584434784,10,20,33,19,10,6,-6,3
29584434784,-8,-2,24,32,19,11,3,-3
29584436336,-1,-6,-13,-9,-9,-4,-1,-6
29584436336,-11,-10,-13,-13,-5,0,1,1
29584449173,2,-12,-68,-61,-25,-14,-4,5
29584449173,10,22,97,68,20,11,7,7
29584456055,-1,-4,11,10,8,5,-2,-2
29584456055,11,16,-10,4,9,1,-1,-3
29584472369,-6,-7,-37,-37,-27,-14,-4,-5
29584472369,1,-2,16,22,8,7,0,4
29584473908,-9,-7,-33,-12,2,-2,7,13
29584473908,12,0,40,26,2,2,-6,-10
29584494842,20,19,41,28,19,11,6,5
29584494842,0,9,4,-6,0,5,1,2
29584496379,-11,-19,-15,-19,-20,-11,-6,-10
29584496379,1,12,1,8,8,3,3,-1
29584509160,11,11,2,2,-5,-4,1,4
29584509160,-5,-26,-53,-34,-20,-15,-7,-2
29584515924,15,20,16,-2,3,3,-6,-6
29584515924,-10,0,26,25,8,4,1,-10
29584532472,-23,-17,3,12,10,6,-3,-15
29584532472,15,18,-9,-10,-4,-5,1,11
29584533893,-9,-19,-22,-20,-16,-10,-4,-1
29584533893,0,11,26,9,2,-1,2,-4
29584554827,1,-2,7,21,12,5,0,7
29584554827,-4,1,-14,-3,3,0,-4,-10
29584556380,-8,-6,-21,-16,-9,-5,-3,-5
29584556380,3,-11,-26,-41,-25,-7,-1,5
29584569262,-7,-3,19,19,5,3,8,5
29584569262,-3,-4,-14,-10,6,3,5,7
29584576055,-1,-5,-17,-9,-7,-8,-6,-3
29584576055,0,7,-1,-10,-6,5,9,9
29584592376,7,5,9,26,14,5,1,6
29584592376,-7,3,13,7,4,3,-7,-12
29584593910,8,9,15,20,13,2,1,5
29584593910,-20,-25,-31,-23,-17,-15,-15,-16
29584614762,-5,-3,-12,-24,-11,0,6,1
29584614762,16,21,32,49,28,13,3,4
29584616347,-3,-1,0,-4,-5,-4,-6,-3
29584616347,-5,-9,-4,3,0,-3,-1,0
29584628520,1,-5,-29,-39,-20,-7,2,-4
29584628520,-1,-8,2,24,21,4,-1,4
29584637426,5,14,14,8,3,4,3,7
29584637426,-5,-14,-22,3,3,-1,-6,-2
29584652393,8,27,37,18,1,-6,1,8
29584652393,-3,-16,-13,-17,-14,-4,-3,-9
29584653921,-12,-7,-4,7,10,7,-4,-8
29584653921,3,-2,-7,-9,-6,-6,-3,-5
29584674848,0,-8,-12,-6,-5,-5,-2,2
29584674848,-18,-14,-5,-20,-13,-6,0,-5
29584676350,32,27,36,31,8,2,-5,4
29584676350,-9,-9,-7,-6,4,1,2,-1
29584688525,-8,-3,5,17,14,5,-3,-7
29584688525,-6,-19,-57,-64,-46,-27,-7,-2
29584697380,-7,-3,6,-7,-8,1,2,-10
29584697380,11,22,46,41,26,12,3,8
29584712343,-6,-8,-30,-28,-11,-9,-3,-4
29584712343,-2,-6,7,2,-2,-1,0,3
29584713907,0,-3,-4,-8,-7,-2,5,6
29584713907,2,-2,-35,-29,-13,-7,-4,0
29584736215,1,8,21,14,7,7,5,0
29584736215,13,5,10,16,4,-1,2,2
29584737923,-26,-12,0,-3,-6,-7,4,-2
29584737923,4,-10,-18,-14,1,1,-2,4
29584748549,0,-2,-20,2,10,3,0,-1
29584748549,-15,-8,-11,-15,-11,-4,-2,0
29584757386,37,29,43,34,22,9,1,17
29584757386,-29,-14,-10,-16,-12,-7,-4,-17
29584772419,1,-4,10,9,-2,1,-3,-4
29584772419,3,3,-13,-19,-6,1,0,4
29584773923,-9,-10,-19,-14,-9,-1,0,-6
29584773923,4,0,4,4,1,-3,-3,3
29584794959,0,5,35,35,16,7,4,2
29584794959,-8,-8,-34,-24,-9,-7,-14,-16
29584796380,-4,1,4,-5,-5,-5,1,3
29584796380,6,6,12,8,8,6,7,4
29584808556,-17,-17,-18,-11,-5,2,-8,-19
29584808556,3,3,2,-8,-6,-3,-2,-1
29584817408,8,3,-4,12,7,3,6,8
29584817408,-3,-3,0,3,-4,-1,4,3
29584832373,9,7,-7,-23,-14,-6,-2,5
29584832373,-14,-6,18,32,19,8,-1,-7
29584833910,-3,1,-11,-11,-1,-2,-7,-7
29584833910,-5,0,11,-8,-18,-9,-6,-4
29584854879,14,-8,-28,-3,12,3,4,2
29584854879,21,30,57,38,16,5,2,5
29584856322,-17,-22,-22,-8,-3,-4,-5,-11
29584856322,5,3,-1,-13,-6,0,-3,2
29584868502,-4,6,6,4,-3,-3,0,4
29584868502,-5,-5,-27,-25,-15,-8,-3,-2
29584877413,15,17,40,37,21,16,9,9
29584877413,-4,-3,-9,-5,-1,-4,-2,-4
29584892370,-6,-5,5,7,6,2,1,-1
29584892370,0,-3,-9,-2,4,-2,3,3
29584893902,-9,-10,-13,-19,-20,-10,-4,-6
29584893902,16,8,2,13,7,3,-1,3
29584914707,-11,8,8,-3,-2,2,4,1
29584914707,-6,-13,-14,-19,-8,-1,0,-7
29584916372,-7,-9,-17,-17,-5,-3,4,-3
29584916372,-8,-8,-16,-13,-7,-5,-2,-2
29584928567,3,-6,-6,-12,-9,-6,-3,1
29584928567,4,16,40,42,22,13,4,3
29584937358,3,0,-5,5,13,2,0,-2
29584937358,5,16,30,35,12,3,-3,-2
29584952404,-15,-19,-27,-28,-26,-18,-21,-14
29584952404,-4,-9,-15,-12,-6,-7,-6,-2
29584953902,6,8,5,-6,-9,1,0,0
29584953902,5,3,-6,-10,-4,-1,17,9
29584974818,5,4,4,-1,-1,3,11,6
29584974818,3,-2,-2,9,7,3,8,4
29584976365,-6,-6,-6,-9,-15,-12,-11,-9
29584976365,4,7,13,22,22,10,3,2
29584988467,-1,-3,4,-10,-10,-7,-9,-4
29584988467,-8,-9,-1,7,-6,-9,1,-11
29584997380,-11,-16,-31,-17,-16,-12,-13,-11
29584997380,2,2,9,-1,8,6,-2,-1
29585012350,2,7,19,27,10,-1,22,1
29585012350,13,5,-5,-7,-9,-2,28,24
29585013910,-25,-14,-10,-2,0,-2,27,-15
29585013910,-7,-19,-21,-15,-7,-2,20,0
29585034884,-4,3,-2,2,8,-3,-30,-10
29585034884,-4,-4,-7,-17,-12,-11,-47,-22
29585036381,7,0,5,7,1,0,-15,25
29585036381,-1,2,-6,-16,-16,-17,-32,-6
29585057245,8,2,-7,-8,-8,15,21,13
29585057245,0,4,13,21,13,5,-1,7
29585058883,4,7,8,1,4,2,-11,-2
29585058883,-8,-8,-6,4,2,-2,-12,-9
29585071664,-4,-2,-3,-5,-12,-19,-20,-7
29585071664,-2,-4,-5,-6,2,2,-2,-2
29585078556,6,0,0,1,8,7,-2,3
29585078556,-3,-3,4,14,1,-4,-7,3
29585095023,3,1,-2,-11,-5,4,9,2
29585095023,-1,0,-2,-14,-6,-1,-1,-2
29585096372,7,11,15,20,19,11,11,10
29585096372,-1,-1,2,6,0,-3,-3,-5
29585117369,-9,-12,-3,1,5,0,9,-6
29585117369,0,0,-3,-8,-3,-1,5,-1
29585118913,3,3,3,-10,-14,-5,0,1
29585118913,-4,-6,-17,-17,-12,-4,-1,-7
29585131642,5,5,19,25,16,7,8,1
29585131642,-2,1,-3,-8,1,-1,3,2
29585138481,-9,-7,-9,-3,2,-5,-3,-16
29585138481,4,3,1,-4,-3,4,13,4
29585154731,1,2,4,-4,-14,-4,-12,2
29585154731,-2,-2,-3,-1,4,3,4,-1
29585156311,1,-1,4,3,-2,-3,-10,-1
29585156311,-3,0,4,8,10,4,-8,-4
29585177340,1,0,-4,1,3,0,-4,4
29585177340,-3,-2,3,3,-4,-5,-4,-3
29585178943,2,-1,-2,-7,-6,3,5,4
29585178943,0,-4,-2,-4,-2,2,3,2
29585191696,-3,-2,0,-8,-2,0,-3,-2
29585191696,0,1,-6,-3,2,-1,-5,-2
29585198491,-6,-9,-2,-1,2,-3,-2,-4
29585198491,2,5,-2,-2,-3,1,-27,-3
29585214920,6,6,4,0,-5,-2,-8,6
29585214920,-3,-4,-3,-1,1,-4,-3,-3
29585216370,-5,-3,0,1,-6,-7,-4,-11
29585216370,2,3,3,0,7,7,19,2
29585237397,-5,-8,-9,-3,0,-2,1,-2
29585237397,5,3,2,-4,-6,1,11,12
29585238901,-3,-2,1,10,8,0,-4,-2
29585238901,-3,-4,-10,-23,-20,-9,-5,-8
29585251716,0,-5,0,6,0,-1,3,3
29585251716,-3,-4,1,9,2,1,4,3
29585258506,-4,-1,-3,5,13,4,-24,-15
29585258506,4,6,4,-3,-17,-5,-3,7
29585274873,-2,0,-2,-4,-5,-4,-4,-4
29585274873,-5,-10,-16,-22,-12,-6,-10,-6
29585276353,5,4,8,16,5,3,-3,7
29585276353,-2,-4,3,5,0,-5,-8,1
29585297324,-3,-2,-7,-4,-1,0,-12,-7
29585297324,1,1,2,-5,-13,-5,1,-2
29585298901,0,2,0,-3,5,4,3,4
29585298901,-4,-6,-2,-1,-1,-1,5,-3
29585311734,-7,-3,-3,0,4,1,3,-5
29585311734,-7,-5,-5,0,4,-3,12,-12
29585318525,15,14,5,-2,-4,6,40,18
29585318525,2,0,0,1,-1,-2,6,5
29585334874,-2,-1,-3,-1,5,-1,-1,-4
29585334874,-2,-2,1,9,4,3,-15,-3
29585336380,-5,-6,-8,-5,-7,-6,-6,-8
29585336380,0,-3,-5,1,4,4,-2,2
29585357346,0,3,4,3,1,-1,-4,-1
29585357346,0,-1,3,-2,-3,-1,0,-1
29585358905,-2,-2,-2,-12,-11,-5,5,0
29585358905,-1,1,-2,9,10,4,-2,-2
29585371070,-2,-3,-9,-4,0,-3,9,-1
29585371070,0,-2,-5,-3,-4,-1,-2,-1
29585379894,1,2,1,-2,-4,0,-1,3
29585379894,-2,-1,0,3,5,1,8,-2
29585394863,-1,1,6,1,-4,-1,1,1
29585394863,1,3,4,0,2,3,0,2
29585396327,-2,-3,0,-2,0,-2,-4,-1
29585396327,-2,-3,2,-2,-3,-2,1,-2
29585418048,1,1,4,5,3,2,2,-2
29585418048,-1,-2,2,-1,-1,0,1,0
29585419507,-4,-4,-3,-4,0,-2,-5,-1
29585419507,1,1,2,-1,-2,-1,5,1
29585431722,0,-2,-1,-4,-1,0,0,1
29585431722,-2,-3,-4,3,3,0,-5,-2
29585438471,0,-1,-1,-1,-2,-1,-4,-2
29585438471,-2,0,0,4,4,-1,-1,-2
29585454848,2,0,0,-1,-5,-1,1,0
29585454848,0,-2,-9,-2,-3,0,-1,2
29585456330,-3,-1,-18,-3,-1,-4,-4,-1
29585456330,1,-2,-27,2,4,0,-5,-3
29585478647,1,0,-7,2,-1,1,-6,0
29585478647,0,2,-10,3,0,0,-1,-3
29585480277,0,-2,0,-1,-3,-1,-3,-1
29585480277,-3,-2,9,-3,-2,-3,-2,0
29585490923,-1,-1,-7,-1,1,0,-1,-2
29585490923,-1,-2,-1,-2,0,-2,-9,-1
29585499906,-1,0,-28,-2,-6,-2,-5,-2
29585499906,-1,0,-18,-1,0,0,5,-1
29585514896,-3,-2,-6,0,1,-1,6,0
29585514896,-3,-1,6,1,3,0,-8,-3
29585516352,0,-1,15,-6,-4,-4,-11,-1
29585516352,0,2,24,-2,-5,2,-5,0
29585537340,0,-2,15,0,2,-2,-6,-2
29585537340,2,0,17,-2,-3,1,5,2
29585538812,-2,-3,7,0,0,-2,1,-2
29585538812,-1,-2,-2,-2,-2,-1,0,0
29585551052,-2,-1,-18,-2,1,-1,-4,-3
29585551052,0,0,-20,-3,-3,-2,11,-1
29585559919,-1,2,-9,1,3,1,12,0
29585559919,-3,-1,-2,1,2,-1,41,-1
29585574876,-4,-1,4,0,0,-1,11,-3
29585574876,-1,-2,4,-1,-1,0,-16,1
29585576353,-1,0,11,0,-1,-1,-15,-1
29585576353,0,-3,6,-1,-1,-2,-29,0
29585597226,-1,-2,-4,-1,1,0,-39,1
29585597226,-2,-1,-13,0,0,-2,-3,-3
29585598950,-1,-3,7,0,2,-2,-7,-1
29585598950,1,4,5,-2,-1,0,15,0
29585611020,0,0,10,0,1,0,21,-5
29585611020,-1,1,11,-4,-4,-1,12,1
29585619907,1,0,3,-3,-6,-3,-2,0
29585619907,-2,-1,0,0,1,-1,-2,-2
29585634889,-2,-2,-2,-1,-1,-2,7,-2
29585634889,-2,-3,-8,-1,-1,-1,11,0
29585636379,-1,-3,-23,1,-1,-1,0,-1
29585636379,0,-2,-6,-2,-4,-1,-17,0
29585657349,1,-1,0,-1,0,0,-23,2
29585657349,-1,1,10,-2,-1,-2,-4,-1
29585658902,1,1,13,0,-3,-1,-13,-1
29585658902,-1,-1,-1,1,-1,0,-11,1
29585671072,-2,0,-1,0,1,-1,-2,-3
29585671072,-3,-2,-9,0,1,-1,-5,-2
29585679907,-3,-3,-8,-1,-2,-1,2,0
29585679907,-1,0,-5,-3,-2,-1,10,-2
29585694791,-1,-2,8,-2,0,1,16,-1
29585694791,-1,-2,5,-3,-1,-1,-5,-1
29585696330,-3,-3,7,-2,-4,-1,34,-1
29585696330,-2,-1,10,6,3,0,5,-1
29585717359,-1,-2,7,-1,-3,-1,-4,-1
29585717359,-1,-2,7,-3,0,0,-15,-1
29585718905,-1,0,8,0,1,3,-13,-3
29585718905,1,1,14,-1,-4,-3,4,-1
29585730982,3,1,12,0,1,1,18,2
29585730982,-1,-3,14,1,-3,-3,4,-3
29585739915,-2,-4,-2,-2,-3,-3,1,-1
29585739915,-3,-3,-15,-3,-2,-1,-11,-2
29585754874,0,-2,-21,-2,-3,-3,-15,-1
29585754874,-2,-1,-16,-3,-2,0,-7,2
29585756326,0,2,-6,-5,-1,-1,-3,0
29585756326,-3,-1,-2,0,3,1,-9,0
29585777404,-3,-1,-7,-2,-3,-2,-16,-1
29585777404,-2,0,1,0,-1,-1,11,-2
29585778901,0,-2,4,-2,-3,1,9,-2
29585778901,-1,-2,5,0,0,1,3,-3
29585791016,-1,-1,2,0,-1,-1,5,0
29585791016,2,1,0,-1,-3,-3,0,-1
29585799907,-1,1,-6,0,1,-1,-4,1
29585799907,0,-5,-14,-6,-4,-3,-3,-2
29585814944,-3,-1,-1,2,-1,-2,-1,-3
29585814944,-6,-8,-5,1,0,1,0,-4
29585816353,5,5,-5,-1,4,0,-1,0
29585816353,0,2,0,6,4,1,0,-1
29585837352,1,5,-1,-3,-3,-2,10,0
29585837352,-1,-2,-2,-2,-2,-3,2,0
29585838806,-5,-7,1,0,-1,0,-1,-2
29585838806,-2,-6,-3,-7,-5,-3,1,0
29585851019,-1,-4,-2,1,-1,1,0,0
29585851019,-2,-2,-2,0,-1,1,1,-1
29585859906,-4,-3,0,0,1,1,0,-2
29585859906,2,1,2,-3,-4,-5,0,1
29585874871,0,1,3,1,0,0,-2,0
29585874871,2,4,3,-1,-3,-1,0,0
29585876356,-1,-3,-4,0,0,-3,-1,1
29585876356,-3,2,2,1,0,-1,-6,-2
29585897293,-2,-2,-1,-2,-2,0,-4,-1
29585897293,0,-2,0,-4,-1,-2,-1,-1
29585898917,-1,-1,-5,-2,0,1,-2,0
29585898917,-1,0,5,2,2,1,-4,1
29585911038,2,1,0,-4,-2,-2,-9,0
29585911038,3,1,1,3,0,0,-1,1
29585919909,2,0,0,-6,-7,-2,3,1
29585919909,-8,-20,-31,-21,-7,-5,-3,-4
29585934155,1,8,28,22,6,2,0,-1
29585934155,2,8,15,4,2,1,0,1
29585941128,6,12,9,2,0,0,2,3
29585941128,0,4,-3,-3,1,-1,-3,-1
29585957379,-5,-10,-17,-12,-3,-2,-3,-1
29585957379,-3,-8,-9,-2,-1,-4,-1,-2
29585958937,-3,-5,-3,-1,-1,-1,9,-1
29585958937,-3,-2,2,3,0,2,5,-2
29585970967,-2,0,-5,-3,-1,-2,0,-2
29585970967,-1,3,-4,-1,0,-1,-3,-1
29585979907,-4,-4,-3,-3,-3,-1,-9,-3
29585979907,4,4,-4,-1,2,0,-3,1
29585993579,-4,-5,-3,-1,-3,0,1,0
29585993579,5,6,12,9,2,0,-2,2
29586002394,-5,-2,-1,-3,-4,-4,-4,-2
29586002394,0,-1,6,10,8,2,-3,0
29586017361,-2,-6,-10,-8,-3,-1,0,-1
29586017361,-1,1,-6,-6,-3,-3,-1,-2
29586018910,2,3,6,-2,-4,-1,1,1
29586018910,1,2,4,-3,-1,0,3,0
29586039878,-4,-8,-7,-4,1,0,1,-4
29586039878,-2,-5,-9,-1,0,-1,2,0
29586041354,0,-1,-1,3,0,1,-2,-1
29586041354,-3,-2,-5,-2,-5,-2,-4,-1
29586054147,-2,-6,-3,1,-1,-1,0,-2
29586054147,-3,-2,2,0,-3,-1,-2,-1
29586061077,3,7,4,4,4,0,-2,-1
29586061077,1,0,3,1,-1,-1,0,1
29586077315,-3,-1,-5,-3,-3,-2,-1,0
29586077315,-4,-4,-3,-6,-2,0,1,-2
29586078915,-6,-12,-11,-1,0,1,1,-2
29586078915,-3,-4,1,-1,-5,0,1,-3
29586099823,3,8,8,-1,-5,-2,1,0
29586099823,-3,-10,-19,-5,-4,0,3,-1
29586101313,5,13,15,3,-2,-4,-4,1
29586101313,-2,-2,-3,2,0,-2,0,-3
29586114191,1,8,3,0,-1,-1,-2,0
29586114191,-3,-2,-4,-2,1,0,-3,-2
29586121175,-3,-10,-9,-7,-5,-3,-3,-3
29586121175,0,-1,-2,-3,-5,-3,-4,0
29586137276,-2,-2,2,-2,-2,-3,-3,0
29586137276,3,5,12,8,6,3,-3,-1
29586138919,-7,-11,-13,-7,-3,-2,-4,-3
29586138919,2,3,-1,4,4,1,-2,1
29586159822,-3,-3,-6,-4,-2,-2,0,-2
29586159822,6,10,2,-2,1,0,-5,1
29586161338,2,5,3,2,6,4,1,1
29586161338,-4,-3,5,1,-2,1,2,-3
29586174171,-8,-17,-9,-2,-3,0,3,-2
29586174171,-3,-3,-10,-10,-8,-8,-2,-2
29586181065,2,7,-4,-2,-4,-4,-2,0
29586181065,2,5,-4,4,5,-2,-4,1
29586197300,0,0,-1,2,0,3,3,0
29586197300,0,-2,1,-5,-6,-4,-4,-1
29586198815,5,1,6,5,6,3,-5,0
29586198815,-13,-17,-4,-1,-7,-1,4,-5
29586219870,10,14,0,-6,-3,-7,-10,1
29586219870,3,5,0,-5,-2,1,-1,2
29586221333,-6,-9,-8,-2,2,0,0,-1
29586221333,1,6,18,11,1,3,1,0
29586234205,4,4,4,2,11,5,-1,-1
29586234205,-6,-6,2,2,1,3,1,-3
29586241046,0,-5,-12,-4,-3,0,-1,-1
29586241046,-9,-17,-14,-16,-12,-3,1,-1
29586257318,-6,-8,-9,-7,-9,-5,2,-3
29586257318,-1,-4,-2,2,4,3,2,0
29586258902,4,9,17,11,6,-2,0,1
29586258902,11,16,4,2,7,-2,-8,2
29586279882,-4,-7,-9,-3,0,1,0,1
29586279882,-10,-14,-7,4,2,10,12,0
29586281353,-4,-6,6,-3,-8,-2,-1,-1
29586281353,4,13,18,16,11,2,-1,1
29586293511,3,12,7,-2,1,0,2,1
29586293511,1,3,2,4,5,0,-1,0
29586302400,-8,-18,-17,-9,-4,1,2,-2
29586302400,2,0,-4,-8,-8,-4,-4,0
29586317405,-5,-11,-3,0,-8,-4,-1,-2
29586317405,-4,-10,-6,0,-3,-4,0,-2
29586318953,-1,-1,1,-2,-4,-2,-5,-1
29586318953,5,10,-4,-3,1,-4,-4,-1
29586339807,-1,-2,0,1,-2,-1,4,-1
29586339807,5,8,1,-4,-2,-5,-8,-2
29586341305,-3,-7,-3,0,-2,2,2,-1
29586341305,-3,-6,-15,-10,-1,4,5,1
29586353485,2,3,6,5,4,0,-2,0
29586353485,-4,-1,1,-2,1,5,2,1
29586362384,8,16,18,13,2,-9,-5,2
29586362384,-6,-9,-4,-4,-1,1,6,-2
29586377354,-4,-6,-6,-5,-2,-2,-2,-3
29586377354,0,0,-8,-11,-9,-6,-11,-2
29586378916,-6,-13,-27,-17,-9,-2,2,-3
29586378916,2,7,23,15,2,-2,2,2
29586399792,4,8,6,2,3,-1,4,1
29586399792,-7,-15,-8,-5,-5,-3,1,-3
29586401330,9,19,12,-2,-4,-5,-2,0
29586401330,-5,-6,-8,-8,-8,-5,-1,-2
29586413508,-3,-4,-6,-5,-5,-2,-1,-1
29586413508,3,9,9,6,5,-2,-4,-1
29586422335,-6,-6,-6,-2,0,-2,-4,-5
29586422335,0,-2,0,-1,0,2,2,1
29586437464,-5,-7,6,14,1,4,2,0
29586437464,2,5,-6,-11,-2,0,4,2
29586438943,-5,5,12,12,9,4,2,-1
29586438943,1,-7,-15,-10,-10,-6,-2,-2
29586459850,-1,-1,6,4,4,1,-6,-2
29586459850,5,1,-6,-6,-3,-3,2,3
29586461325,-3,-3,-8,-1,1,0,-2,-2
29586461325,1,10,10,3,3,1,-1,-2
29586473500,-4,-4,-6,-2,-1,0,1,-3
29586473500,3,1,0,-3,-1,-2,-2,1
29586482357,-2,-1,7,3,3,1,-2,-2
29586482357,-6,-13,-12,-2,2,6,0,-3
29586497324,2,4,-5,-6,-6,-4,-2,-1
29586497324,-3,1,4,8,7,0,-2,-4
29586498816,-2,-7,-6,-7,-4,-3,-5,0
29586498816,-2,6,15,10,2,-2,-4,-4
29586519880,3,6,15,14,7,1,2,2
29586519880,0,0,3,1,-5,-3,0,-2
29586521330,-4,-14,-15,-9,-6,0,3,-2
29586521330,-5,-9,-12,-9,-5,-5,-3,-3
29586533358,0,4,4,-3,-1,3,2,1
29586533358,-1,-1,-7,-8,-7,-4,-3,-2
29586542392,2,10,18,10,1,-1,-1,1
29586542392,-3,-8,-11,-7,-5,-4,-4,-1
29586557335,0,1,5,6,3,1,1,-2
29586557335,-2,-5,-8,-2,-4,-3,-1,0
29586558946,-2,-3,-16,-13,-6,-3,-4,0
29586558946,-1,1,9,5,-1,1,2,-3
29586579891,-2,-1,0,-2,-1,-2,-5,-1
29586579891,-4,-6,-12,-6,-1,1,-1,-1
29586581352,0,4,10,11,3,2,0,0
29586581352,-3,-3,-3,-6,-1,-1,-6,-1
29586593471,-2,-3,-6,-3,-2,-2,-2,-1
29586593471,-2,-3,7,5,3,0,-2,-2
29586602384,-3,-5,-6,-4,0,3,5,0
29586602384,-2,-5,-9,-4,0,-1,-1,0
29586617353,1,-2,-18,-13,-5,-4,-2,1
29586617353,-3,1,19,20,6,5,2,0
29586618912,-7,-8,-9,-3,-2,-1,3,-6
29586618912,0,-3,-9,-9,-6,-4,1,-1
29586639838,1,-6,-13,-5,1,0,-3,-1
29586639838,0,1,9,14,12,6,1,0
29586641305,4,1,1,4,5,-1,-1,0
29586641305,0,2,-8,-5,-3,-2,-1,-3
29586653452,-3,-5,3,0,-1,-3,0,0
29586653452,-7,-6,-7,-11,-8,-5,1,-3
29586662391,0,-10,-7,2,1,1,1,2
29586662391,1,5,3,-1,0,-2,-5,-1
29586677316,1,0,-2,1,-3,2,-1,-1
29586677316,1,4,0,-10,-4,-3,-6,-2
29586678938,3,4,0,-7,-5,-5,-6,-1
29586678938,-8,6,11,0,-2,-2,-2,-5
29586699824,6,-5,-1,-1,2,0,0,7
29586699824,3,6,3,-9,-11,-7,-8,3
29586701334,2,-1,-5,-4,0,-1,-1,5
29586701334,-4,-5,-2,2,3,1,-2,1
29586713497,-1,7,12,6,2,-1,-7,-5
29586713497,-4,-6,-12,-7,-2,1,-3,0
29586722334,-4,-1,4,0,1,-2,-3,-4
29586722334,1,-1,-6,0,-3,-1,0,0
29586737304,-3,4,10,3,2,-2,0,0
29586737304,-3,-10,-11,-6,-5,-2,4,1
29586738803,-1,2,1,-4,-7,-4,-1,-1
29586738803,-4,-11,-3,2,0,2,1,0
29586759842,-4,1,-1,0,0,1,-1,-2
29586759842,9,5,9,5,5,1,2,2
29586761336,0,3,5,0,-1,-2,-5,-1
29586761336,-2,-9,-9,0,1,0,2,-1
29586773434,0,1,-3,-1,0,-3,-5,-3
29586773434,-14,-16,-15,2,4,5,4,-6
29586782360,1,3,11,8,3,1,2,0
29586782360,6,9,4,4,5,1,-3,3
29586797320,-4,-9,-10,-6,-6,-2,0,-1
29586797320,4,7,5,3,3,-1,-1,0
29586798824,-5,-7,-13,-5,-3,0,4,-1
29586798824,-4,-4,-5,-2,-3,-5,-3,-4
29586819754,-8,2,3,-8,-2,-1,1,-2
29586819754,22,8,14,13,2,1,5,9
29586821343,2,6,-2,-6,-4,-4,-2,0
29586821343,-4,-5,-2,-4,-5,-3,0,-1
29586833417,4,3,-2,-4,-5,-5,-3,1
29586833417,-17,-12,-19,-16,-8,-8,-8,-7
29586842359,1,2,10,7,0,5,2,2
29586842359,4,3,1,0,-2,-1,1,3
29586857322,-6,-6,-7,-5,2,3,1,0
29586857322,-2,4,-2,-5,-4,-3,0,-3
29586858808,-6,-6,-3,0,4,2,0,-1
29586858808,-3,-4,-1,-2,-3,-2,14,-4
29586879868,-5,-5,2,8,2,3,3,-3
29586879868,-7,-1,-2,-6,-6,-8,-11,-6
29586881359,7,2,-3,-2,1,2,-6,1
29586881359,-3,-6,-11,-12,-6,-3,-12,-2
29586893443,-5,-7,-4,0,-1,0,-2,-1
29586893443,3,3,11,10,2,2,6,2
29586902382,-2,-1,-9,-6,-4,-5,-8,-2
29586902382,-4,4,1,-4,-6,-4,-4,-2
29586916636,6,-3,-9,-5,-2,0,-2,1
29586916636,0,-6,-6,-1,2,1,1,4
29586923475,0,-1,2,-2,-7,-6,-1,-3
29586923475,3,3,5,6,6,5,-1,7
29586939781,0,-4,1,0,2,1,-1,0
29586939781,-3,-7,-17,-12,-5,-1,4,-1
29586941343,-5,-4,7,14,10,8,8,-1
29586941343,-17,-2,3,4,0,1,2,-7
29586962398,28,12,22,15,1,-1,16,7
29586962398,20,12,19,6,2,1,15,7
29586963781,-13,-2,-2,-5,-1,3,6,-8
29586963781,4,-4,-4,-4,-9,-9,-11,3
29586976716,-11,-3,-8,-5,0,-3,-12,-4
29586976716,-7,5,-2,-4,-11,-8,-7,-7
29586983589,5,3,-4,-6,-7,-5,-3,-2
29586983589,5,6,11,11,11,8,-4,0
29586999912,-13,-5,-5,-3,-1,1,-10,-4
29586999912,0,-6,-1,1,0,0,-10,-3
29587001339,-8,-4,-10,-10,-6,-3,0,-6
29587001339,-2,-3,-2,-2,1,1,2,3
29587022318,4,-4,-7,-4,-1,-1,-2,0
29587022318,-8,-7,-8,-6,-2,1,20,-3
29587023812,-4,-3,-8,-7,-3,1,-4,-1
29587023812,5,7,20,16,13,6,-1,1
29587037193,21,9,0,-1,-7,-7,-8,7
29587037193,-6,5,11,6,3,2,-7,2
29587038821,2,-1,-2,1,2,-1,0,0
29587038821,-4,-6,-13,-11,-7,-6,5,-5
