29538312648,1,4,4,2,-1,-1,1,2
29538312648,-4,-5,-6,-3,3,1,1,0
29538314731,2,5,8,2,1,2,1,0
29538314731,-2,-2,-2,-2,-1,0,1,-2
29538315506,-1,-1,-2,1,0,-1,1,-2
29538315506,2,3,2,1,0,-2,-4,1
29538316898,0,-2,-3,-3,0,1,4,0
29538316898,-6,-5,-3,0,-1,-4,-4,-5
29538324934,3,-1,1,-1,1,1,0,3
29538324934,1,0,-3,-2,-2,-1,0,1
29538332201,-7,-3,-1,-1,-2,-3,-1,-3
29538332201,2,0,-3,-2,-1,-1,-1,1
29538343438,1,-7,-9,-4,-2,-2,-1,-1
29538343438,-2,-3,-1,-1,0,1,0,-3
29538355619,3,5,6,1,1,0,0,2
29538355619,-4,-2,0,0,-2,0,-2,-2
29538363365,-1,5,8,1,-1,-1,-1,-1
29538363365,-2,-3,-2,-1,-2,-1,0,-1
29538377023,0,0,-3,0,-1,-4,-2,-2
29538377023,-4,-5,-6,-5,-1,0,-2,-2
29538386982,-3,-4,-6,-1,1,1,-1,-1
29538386982,1,5,8,-1,-1,-2,-1,1
29538425105,-5,-5,-1,0,-1,-2,-5,-2
29538425105,-2,-6,-4,-5,-3,-3,-3,-3
29538425943,-2,1,1,0,-1,0,0,0
29538425943,0,0,0,0,-1,-1,0,-1
29538426698,-1,-1,-4,-2,0,0,-1,-1
29538426698,-1,2,0,-1,-1,-1,-2,-2
29538429263,-1,-4,0,2,-1,0,0,3
29538429263,0,-3,-4,-5,-3,-2,-2,0
29538437405,2,4,2,-1,-1,0,1,1
29538437405,-3,-2,-3,-2,1,-1,-2,0
29538444312,-1,-1,-4,-1,-1,0,1,0
29538444312,-2,-1,2,-1,-1,-1,-2,-1
29538451736,-6,-11,-13,-7,-5,-5,1,-4
29538451736,7,8,15,6,2,2,1,4
29538466801,1,6,7,1,1,-2,-4,-1
29538466801,2,1,-2,-1,-1,-1,-1,1
29538475086,0,-1,-1,-1,1,0,1,-1
29538475086,-4,-5,-10,-4,-4,-2,-2,-2
29538489280,-2,-2,0,-2,-2,-4,-2,0
29538489280,2,-3,-9,-1,0,0,1,-1
29538497435,-2,2,9,1,1,0,-3,1
29538497435,-1,1,-5,-1,1,1,1,0
29538512475,1,-2,0,2,1,0,-1,0
29538512475,-3,-3,-4,-5,-3,-3,-2,-3
29538513139,2,3,3,1,0,0,0,1
29538513139,-4,-3,-1,-4,-3,-2,-2,-2
29538535661,-1,-5,-8,-4,-1,-1,-1,-3
29538535661,-5,3,9,2,1,-2,-1,-5
29538536317,-1,-6,-10,-3,-3,-5,-3,-1
29538536317,-1,0,3,0,-3,-1,1,-2
29538558052,-1,-3,-7,-6,-4,-1,-1,-4
29538558052,-3,-4,-3,-2,-1,0,0,0
29538558845,-4,-3,-3,0,-1,0,0,-2
29538558845,-3,-2,-3,-1,0,0,0,-1
29538572422,-1,1,-2,-5,-3,-3,-3,-2
29538572422,0,-2,-2,-1,-1,-3,-6,-2
29538573100,-5,-5,-3,-1,-2,-2,-1,-1
29538573100,3,-3,-3,0,-2,-3,-6,0
29538595567,-2,4,7,4,-1,-1,0,-1
29538595567,-2,0,2,1,-2,0,-1,0
29538596327,3,2,0,0,-1,0,-1,-1
29538596327,-3,-3,-3,-2,-4,-5,-2,-2
29538618180,-3,-9,-9,-2,0,-1,0,-3
29538618180,3,3,-3,2,0,0,1,0
29538618916,1,6,7,-1,-1,0,1,-1
29538618916,-2,-1,2,0,-2,0,-1,-1
29538632426,-4,-4,-1,-2,-4,-3,-3,-2
29538632426,-1,-5,-4,-2,-2,-1,0,0
29538633124,-1,-4,-5,-1,-1,0,0,0
29538633124,-2,0,2,-1,-1,-3,-1,-1
29538655659,1,0,-4,0,-2,-1,-1,0
29538655659,-1,-1,2,0,-1,-2,-4,-2
29538656318,-1,0,0,-1,-1,-3,-1,0
29538656318,-2,-1,-2,1,-1,0,0,0
29538678133,-1,-1,0,0,0,0,0,0
29538678133,2,0,-2,-3,-2,0,-2,0
29538678817,-2,-2,1,2,0,-1,-2,-2
29538678817,0,-2,-1,-2,1,-1,-1,-1
29538692444,-2,2,6,-1,1,-1,0,-2
29538692444,-1,-2,-1,-1,-1,0,0,-2
29538693122,2,2,-1,-1,-2,1,-3,0
29538693122,-1,-1,-1,0,-1,0,-1,-2
29538715639,-1,0,0,0,-1,0,-2,0
29538715639,-3,-6,-8,-4,-5,-4,-3,-1
29538716340,5,11,15,8,3,3,3,3
29538716340,-3,-2,-2,0,1,0,1,-2
29538737994,1,1,-1,-2,-1,0,-1,-2
29538737994,-5,-3,-1,-1,-1,0,-1,-2
29538738809,0,-4,-8,-3,0,-4,-5,-4
29538738809,0,-1,0,0,-1,2,-1,1
29538752436,-3,-3,-1,1,2,-1,-1,0
29538752436,0,2,1,-3,-1,-2,1,0
29538753119,-2,-2,-3,-3,-3,-2,-2,-3
29538753119,1,1,3,0,-2,-1,-2,-1
29538775613,-4,-7,-8,-2,-2,-1,-2,-2
29538775613,-2,0,6,-1,-1,0,0,1
29538776296,0,-4,-4,-2,-1,-1,-1,0
29538776296,-2,-4,-6,-5,-1,-1,-2,-3
29538798149,2,6,4,7,2,2,1,2
29538798149,0,-3,0,0,2,-2,0,0
29538798802,0,4,8,0,0,1,0,0
29538798802,-3,-2,1,1,-1,1,-1,-1
29538812394,-1,-5,-7,-6,-3,-3,-1,0
29538812394,-1,2,1,1,0,0,-5,0
29538813092,-3,-4,-6,0,-3,0,0,-1
29538813092,-2,-3,-7,-3,-3,-3,0,-1
29538835668,-1,-2,-3,-5,-5,-3,-3,-1
29538835668,-4,-1,7,3,0,1,0,-2
29538836290,-2,-5,-7,-4,0,-1,-3,-2
29538836290,3,4,3,-1,-2,-3,-2,1
29538858149,-1,-4,-6,-3,-1,-1,-2,-1
29538858149,0,-7,-4,-4,-3,-2,0,-2
29538858816,0,2,4,1,0,0,1,-1
29538858816,-2,-3,-3,-4,-2,-2,-2,-2
29538872415,-4,-2,1,-1,2,0,0,-1
29538872415,-2,-2,-4,-3,0,0,0,2
29538873097,0,-2,1,-1,-1,-3,-2,-1
29538873097,2,4,3,2,2,0,1,2
29538895634,-1,3,5,5,-1,0,1,-2
29538895634,-3,-3,-5,0,-1,0,-1,-2
29538896317,-5,-7,-7,-4,-4,-6,-4,-3
29538896317,-1,0,1,-1,0,-2,-2,-1
29538918052,-1,0,0,-1,-1,1,0,0
29538918052,2,1,-5,-3,-3,-3,2,1
29538918793,1,-1,-2,-2,-1,-1,-2,-2
29538918793,-3,-3,-1,-1,0,-1,0,-1
29538932321,3,4,4,1,1,-1,-2,-1
29538932321,-2,-1,-2,-1,-2,-1,-1,-2
29538933091,-1,2,-2,-4,-2,0,0,0
29538933091,0,-5,-6,-2,-1,-2,-1,-2
29538955651,-1,-2,-2,2,0,-1,-2,0
29538955651,-1,-3,-4,-3,-2,1,1,-1
29538956318,0,-1,4,2,1,-2,0,1
29538956318,-1,0,1,0,-1,0,-2,-2
29538978209,0,1,-1,-1,-1,-1,0,-1
29538978209,-1,-1,0,3,-2,-1,1,-1
29538978799,-1,-3,-3,-2,-1,0,0,-1
29538978799,1,-1,-3,-3,-2,-1,-2,-1
29538992494,-5,-6,-4,-5,-2,-1,-2,-3
29538992494,3,4,8,1,1,0,0,-2
29538993116,-1,-1,-2,-2,0,0,-1,-1
29538993116,1,0,-3,1,2,0,1,1
29539015631,1,-2,-1,-3,-1,-3,-1,0
29539015631,-6,-10,-13,-7,-2,-2,-4,-4
29539016295,6,10,10,8,5,3,3,4
29539016295,-6,-1,2,1,-2,0,-1,-1
29539038077,0,4,2,0,0,2,1,-1
29539038077,-2,2,0,0,-1,0,-2,2
29539038824,-3,-6,-7,-4,-3,-2,-1,-2
29539038824,-1,0,-3,-1,-2,0,1,-1
29539051766,-1,-4,-9,-2,-1,-2,-1,-2
29539051766,1,3,4,1,3,0,-2,-1
29539060009,0,-6,-7,0,3,3,1,-2
29539060009,0,4,6,1,-2,-2,0,0
29539075592,-2,-2,-5,-4,-3,-1,-2,-2
29539075592,-1,1,2,2,-3,-1,1,-1
29539076292,-6,-7,-6,-5,-4,-4,-3,-3
29539076292,0,0,3,0,2,0,1,-2
29539098162,-2,-2,-4,-5,-1,-2,-1,-2
29539098162,0,0,0,-1,-3,0,0,-2
29539098848,-2,3,2,-2,-2,-2,-1,-2
29539098848,-2,-3,-7,0,-1,-1,-3,-2
29539111715,-3,-2,0,-1,-1,-1,-3,0
29539111715,0,1,4,0,0,-2,-1,-1
29539120017,1,-3,-7,-2,-1,0,-2,0
29539120017,0,-1,2,-1,0,-1,-2,-2
29539134914,1,-5,0,0,0,1,-1,-2
29539134914,-2,1,0,-3,-2,-3,-2,-1
29539135644,-1,-6,-14,-2,1,1,0,0
29539135644,0,2,4,0,-1,-1,1,-1
29539158095,-2,3,6,0,-1,0,0,-1
29539158095,0,-9,-16,-1,1,1,1,1
29539159613,-5,2,6,-3,-3,-4,-8,-4
29539159613,-4,-6,-4,-2,-2,-3,-5,-4
29539171805,4,3,-4,2,1,6,11,3
29539171805,4,4,4,-1,-1,-2,-2,2
29539180631,5,4,3,0,-1,2,1,3
29539180631,2,2,3,1,0,-2,-1,0
29539195166,-5,-4,2,-1,0,-2,-5,-6
29539195166,-5,-6,-5,-3,-1,0,-2,-2
29539201772,-3,-2,-1,-1,-2,-1,-2,-3
29539201772,-2,0,-1,0,-2,0,-3,-1
29539218119,1,-2,-3,-2,0,-1,-3,-1
29539218119,-3,-5,-7,-4,-2,-2,-3,-2
29539219580,3,5,6,2,-2,-2,-1,2
29539219580,-5,-10,-11,-5,-2,-4,1,-2
29539231646,0,10,18,4,1,-1,1,1
29539231646,-5,-5,-2,-1,0,0,-2,-3
29539240643,-2,-5,-5,-3,-1,-1,-2,-2
29539240643,3,6,8,2,3,1,2,1
29539254234,-1,-3,-7,-3,-2,-5,-4,-1
29539254234,-2,6,9,0,-2,-3,-2,-2
29539263159,-4,-5,-6,0,1,0,0,1
29539263159,-3,-6,-11,-6,-6,-3,-1,-1
29539278078,-1,-1,-2,-1,0,-2,-1,0
29539278078,-3,-6,-11,0,2,-1,-2,-2
29539279587,4,10,19,1,1,0,1,2
29539279587,-1,-8,-3,0,-2,-1,-1,1
29539291809,0,6,3,2,2,-1,-1,-2
29539291809,-1,-3,-2,-1,-4,0,1,0
29539300658,1,1,1,2,3,2,-1,-1
29539300658,-2,0,-3,-2,-1,0,-3,-3
29539315584,-4,-7,-3,-4,-4,-2,-3,-2
29539315584,0,0,0,3,1,-1,-1,-1
29539317105,-4,-2,-3,-1,-3,-2,-4,-2
29539317105,3,1,-1,-2,-2,0,0,2
29539338128,-2,-4,-6,-2,0,-1,-2,-1
29539338128,-3,-1,-2,-6,-2,-4,-3,-4
29539339636,-3,-1,2,-4,-3,-2,0,-1
29539339636,-2,-5,-12,-1,2,1,-2,-2
29539351767,1,2,0,0,-2,0,0,1
29539351767,4,7,7,-4,-9,-1,4,3
29539360591,-1,-2,-3,-2,-1,-1,0,-1
29539360591,-3,-1,2,0,-3,-3,-3,-3
29539375633,-2,-4,-5,2,4,-3,-3,-2
29539375633,-1,0,2,2,4,1,-2,-1
29539377105,-2,-7,-6,-4,-3,-1,-1,-3
29539377105,3,3,0,-1,1,0,2,1
29539396713,-2,-2,0,-3,-4,-2,-3,-2
29539396713,2,-1,-2,1,1,0,0,-1
29539405669,1,-2,-3,-1,1,-1,0,2
29539405669,-2,-2,3,3,-1,-2,-2,-3
29539420652,-2,-4,-2,-4,-2,-1,-3,-4
29539420652,1,7,7,2,-2,0,-1,0
29539422132,-3,-5,-5,-2,-1,-2,-2,-1
29539422132,0,-2,-2,-6,-4,-2,0,0
29539443184,-2,1,0,-3,-3,-1,1,0
29539443184,-1,-4,-4,1,2,0,-1,-3
29539444598,-4,-3,-1,2,0,-1,-2,-3
29539444598,-2,1,2,-2,1,1,-1,3
29539456777,-4,-3,-6,0,0,3,2,-2
29539456777,-1,1,6,2,1,0,-1,2
29539465659,-1,4,3,-3,-9,-5,-1,1
29539465659,-2,-1,2,1,6,0,-4,-5
29539480743,1,-10,-13,-3,-1,-1,-1,0
29539480743,-1,1,4,-1,-3,-1,-1,-1
29539482142,1,0,4,2,2,1,-2,-2
29539482142,0,3,-1,0,-2,-1,0,-1
29539503142,-6,-11,-11,-6,-5,-5,-3,-3
29539503142,-2,0,1,4,4,0,-2,-5
29539504601,2,1,-4,-7,-4,1,2,4
29539504601,-2,-1,1,3,5,3,0,0
29539516740,1,4,4,-1,0,1,-2,1
29539516740,-1,-6,-6,-4,-5,-3,0,2
29539525631,-3,-3,-2,-1,-3,-2,-2,-3
29539525631,-1,-3,-2,-3,-5,-3,-1,-2
29539540599,1,2,2,2,0,1,2,0
29539540599,-1,0,-2,-4,-2,-1,-1,-1
29539542107,0,-1,-3,-2,1,-2,-2,-1
29539542107,-1,0,-1,1,0,1,2,0
29539563587,2,6,6,0,-2,-2,-3,1
29539563587,-1,-2,-4,-1,2,0,0,-1
29539565110,-2,-8,-6,-2,-2,-2,-3,-1
29539565110,-5,-3,-3,-2,-5,-2,3,-2
29539576796,4,8,6,-1,-3,-2,2,1
29539576796,-3,0,2,3,0,-1,-1,-1
29539585637,-2,-4,2,2,1,-2,-2,-1
29539585637,2,1,-2,2,0,1,0,1
29539600602,-2,1,5,1,1,2,-2,-1
29539600602,-1,-2,-3,-2,-3,1,2,-2
29539602114,-2,-2,-4,-6,-8,-5,-5,-1
29539602114,-2,-6,-1,1,-9,-10,-4,3
29539623218,1,1,2,5,7,1,-4,2
29539623218,-4,1,5,5,7,7,5,-6
29539624577,0,2,0,-3,-2,2,5,0
29539624577,-1,0,-5,-7,-4,-1,-6,-7
29539636771,3,-4,-5,-7,-9,-9,-11,8
29539636771,0,5,9,5,3,4,9,-2
29539645662,-6,-8,1,1,3,1,0,-2
29539645662,-4,-12,-12,-2,1,1,0,-5
29539660743,6,22,16,-2,-6,-2,1,1
29539660743,-3,-6,-14,-7,-7,-10,-14,-3
29539662108,3,2,2,-1,-5,-6,-6,-1
29539662108,-7,-4,-4,1,5,10,25,-9
29539683093,-9,-13,-9,0,2,5,7,-13
29539683093,-5,-4,-11,-9,-7,-5,-6,2
29539684580,4,6,-2,10,7,4,0,0
29539684580,0,6,8,-1,-1,-5,-14,-8
29539696746,-3,-2,-10,-3,-1,-3,-9,-2
29539696746,-2,-1,-2,-8,-9,-3,7,8
29539705662,7,-3,-6,4,-1,-3,-7,-5
29539705662,1,9,13,4,5,2,-1,11
29539720624,-12,-18,-16,-8,-6,-3,4,-6
29539720624,6,10,5,-1,-2,-3,-9,7
29539722121,-5,3,5,-3,-2,3,-7,-20
29539722121,9,-4,-5,1,-2,-10,-16,15
29539742970,1,6,5,4,1,7,10,-6
29539742970,2,-3,3,8,10,3,-7,6
29539744580,-14,-12,-8,-3,-2,1,10,-9
29539744580,-12,3,2,-7,-10,-10,-5,-15
29539756756,12,5,6,6,5,6,17,19
29539756756,-1,-6,-7,-2,-3,1,10,-12
29539765595,2,3,7,-2,-3,3,17,10
29539765595,-5,-3,-3,-5,-6,-5,1,3
29539780649,1,-7,-8,-7,-3,-4,2,5
29539780649,-6,-1,12,4,3,-1,-4,-9
29539782125,1,-4,-7,-6,-3,-10,-8,11
29539782125,5,8,8,4,4,12,10,-8
29539803122,-5,-5,-6,-10,-12,-10,-17,-14
29539803122,-10,-14,-13,-5,1,2,1,-1
29539804596,10,12,16,23,11,7,10,5
29539804596,5,2,5,-2,4,6,22,12
29539816804,0,1,3,2,5,2,-4,0
29539816804,-8,-10,-8,-7,-6,1,10,-10
29539825635,2,7,0,-9,-10,-10,-17,0
29539825635,-4,-2,-7,-2,-1,-1,3,3
29539840622,-6,-10,-1,4,1,-1,3,-9
29539840622,2,7,10,-4,-6,2,9,5
29539842076,2,5,-4,0,7,-1,-10,-3
29539842076,4,-5,-8,-2,-5,-3,-5,-1
29539863145,-26,-26,-19,-14,-7,-11,-30,-19
29539863145,13,19,20,13,9,4,-8,7
29539864624,-2,-3,-3,-3,4,-1,-3,3
29539864624,-2,2,0,-5,-9,-8,-34,-24
29539876797,-7,-7,-13,-1,-6,3,15,2
29539876797,3,2,-3,0,1,-10,-15,2
29539885631,-7,-6,-3,-4,3,15,25,-8
29539885631,-6,-5,3,20,13,-5,-26,0
29539900060,7,4,8,2,3,3,2,13
29539900060,-4,-3,-12,-4,0,5,3,-10
29539914277,-3,-1,-7,-14,-16,-12,0,7
29539914277,-10,-11,-5,-10,-13,-10,-8,-4
29539923111,18,18,14,17,26,14,10,2
29539923111,5,9,6,-2,0,-1,1,3
29539924669,-11,-29,-20,-1,-2,-5,6,-1
29539924669,20,15,11,2,4,3,4,6
29539936659,6,16,23,-2,-8,-7,-10,9
29539936659,1,-7,-11,-15,-24,-6,6,8
29539945601,-4,7,7,8,16,2,-18,-11
29539945601,-5,-8,-2,-9,-5,-2,2,-1
29539960012,3,4,12,14,12,8,-5,-2
29539960012,-9,-9,-4,-12,-11,-12,-18,-4
29539966744,-3,-2,0,-1,-8,-1,6,-7
29539966744,-6,-14,-9,0,-7,-9,3,5
29539983254,-1,3,-1,-14,-5,3,21,-1
29539983254,5,3,7,-1,3,1,-5,7
29539984624,-6,4,15,9,10,-3,-24,-10
29539984624,2,2,9,-1,8,4,1,-6
29540005682,-4,-1,0,-11,-17,-6,4,-2
29540005682,-15,-25,-23,-21,-28,-18,-4,-13
29540007093,23,11,9,28,14,17,38,32
29540007093,2,2,-14,-4,9,4,-8,0
29540019959,-8,-4,11,1,-2,-18,-23,-2
29540019959,-13,-19,-2,5,6,8,5,-19
29540026792,14,16,20,-18,-19,-4,7,12
29540026792,-1,0,4,-7,-16,2,0,5
29540043300,5,8,10,24,27,16,33,7
29540043300,6,18,10,12,17,9,-15,-3
29540044578,-18,-29,-15,-4,11,10,18,3
29540044578,5,9,25,5,11,12,12,6
29540065618,-20,-30,-27,-26,-41,-32,-28,-16
29540065618,17,31,46,34,16,11,5,-2
29540067111,-24,-34,-31,-47,-29,-25,-32,-22
29540067111,6,29,32,24,13,15,23,-4
29540079948,-4,-14,-32,8,31,8,-12,6
29540079948,-7,-13,-36,-13,-24,-12,-3,-22
29540086752,8,27,-4,10,19,17,-11,-2
29540086752,-2,-13,-37,-56,-52,-28,2,15
29540103095,-15,-31,30,35,13,0,-22,-20
29540103095,48,76,63,56,72,51,52,47
29540104588,19,32,33,3,-12,-3,4,11
29540104588,1,11,-9,-10,4,7,7,-3
29540125627,-5,12,11,-32,-35,-12,12,7
29540125627,-8,-14,-6,-3,-22,-22,-17,-6
29540127130,15,-3,9,56,82,50,15,23
29540127130,-6,-1,-10,8,5,-5,1,-15
29540139971,8,22,-2,-25,-19,-1,13,2
29540139971,-14,-39,-59,-41,-36,-24,-16,-9
29540146715,10,27,26,11,14,5,-3,13
29540146715,-7,-16,15,27,-12,-13,-15,6
29540163182,8,13,-4,-25,-5,2,-16,3
29540163182,-20,-42,-23,-7,-5,-7,10,12
29540164654,-24,-22,-20,17,-9,-19,-27,-33
29540164654,3,-5,-30,-29,-16,-1,-5,15
29540185698,-4,5,-9,10,-3,0,-4,-3
29540185698,-2,0,11,-9,-3,7,27,0
29540187131,0,21,30,-19,-55,-29,-10,-8
29540187131,-4,-60,-69,14,71,35,16,11
29540199975,5,25,13,-13,-24,-9,1,-8
29540199975,-3,0,3,21,32,0,-44,-17
29540206722,0,-2,-30,-36,-28,-2,53,17
29540206722,-28,-21,-4,-29,-67,-51,-50,-45
29540223150,12,-7,-41,-21,16,20,12,22
29540223150,3,15,-16,24,24,18,17,-1
29540224601,2,-1,-16,2,6,-4,-18,-4
29540224601,-10,3,4,3,-18,-15,-8,-4
29540245463,6,0,-10,3,9,-3,0,10
29540245463,-23,-40,-25,26,30,26,24,-7
29540247070,24,45,17,-22,-17,-8,-5,-2
29540247070,31,41,23,1,29,23,-1,9
29540259857,4,2,8,54,39,13,17,0
29540259857,-20,-31,-10,-19,-1,-16,-26,-1
29540266703,9,-11,-17,-13,-45,-18,14,3
29540266703,2,10,11,-15,9,11,-17,-14
29540283202,-22,-26,9,22,-19,0,56,-18
29540283202,24,15,-19,-3,-16,-11,-2,16
29540284624,-50,-53,-32,-44,-21,-23,-28,-26
29540284624,-37,-46,-12,48,32,-2,-41,-37
29540306965,20,19,-6,58,34,4,-25,12
29540306965,-33,-15,18,-46,-50,-22,-7,-19
29540308581,-14,-15,8,-19,-16,-13,-25,8
29540308581,52,70,35,77,28,31,48,12
29540319926,-3,-7,-14,-14,0,-4,5,12
29540319926,16,13,-11,-29,5,4,-37,-10
29540326773,8,9,34,46,24,27,70,35
29540326773,-9,-21,-16,-57,-41,-31,-19,0
29540343106,-19,-25,11,-3,8,5,-16,-14
29540343106,40,26,-20,-37,-69,-43,17,63
29540344579,25,54,42,41,78,59,24,10
29540344579,4,-1,-15,10,22,18,39,10
29540365542,-18,18,20,11,-2,-24,-65,-36
29540365542,-18,-47,-21,-9,-5,4,21,-16
29540367109,-4,-23,-55,-54,-27,-7,-21,-13
29540367109,-9,4,78,93,62,18,8,14
29540379971,19,-1,-40,-77,-56,-23,10,9
29540379971,-29,-39,-27,24,56,12,-29,-25
29540386707,-11,-14,2,20,-5,-4,10,-14
29540386707,5,17,0,-25,-6,8,15,12
29540403157,-8,-10,8,-13,-17,-4,1,2
29540403157,-6,-2,-10,-13,-25,-22,-11,-4
29540404592,7,-30,-58,-55,-35,-17,1,2
29540404592,-13,11,41,49,20,-6,-21,-15
29540425613,-1,11,24,28,36,18,-3,-4
29540425613,8,2,5,-2,-3,19,37,14
29540427129,11,24,38,-18,-49,-47,-67,-18
29540427129,-21,-24,-29,-42,-36,1,6,-18
29540439943,74,50,4,24,31,25,5,43
29540439943,-15,9,20,7,-8,-6,10,-3
29540446716,-18,-22,-5,12,-27,-34,-41,-29
29540446716,50,31,-25,13,36,31,33,43
29540463248,3,20,26,17,5,6,3,8
29540463248,-12,-15,-18,-28,-16,-19,-31,-23
29540464613,-2,5,2,10,5,-6,-34,-13
29540464613,-52,-55,-45,-61,-103,-66,-23,-20
29540485591,6,-24,-44,5,13,44,75,21
29540485591,31,67,63,22,-3,7,40,14
29540487075,-27,-46,-24,8,9,-5,-12,-7
29540487075,37,18,9,18,27,14,1,13
29540499236,-7,-12,-24,-41,-28,-20,-15,1
29540499236,-1,22,51,66,72,30,-24,-19
29540508154,-1,-13,-12,8,17,19,35,15
29540508154,2,-41,-60,-47,-23,-17,-16,-5
29540523117,3,5,17,-10,-20,-5,2,1
29540523117,-5,-11,-18,6,15,-12,-65,-28
29540524599,0,1,35,75,70,52,40,11
29540524599,-31,-34,-23,-74,-54,-29,-15,-9
29540545630,4,48,63,96,64,30,15,-6
29540545630,-6,-9,-5,6,-10,5,24,-17
29540547082,21,16,-36,-60,-33,-21,-18,13
29540547082,-8,-4,-7,-30,-77,-40,4,-4
29540559276,-17,-47,-53,-43,-9,-9,-26,-30
29540559276,21,26,32,-4,-18,1,17,32
29540568115,-12,-17,-24,-33,-16,-13,-25,-27
29540568115,8,-8,-17,-16,9,6,11,-1
29540583162,-30,-60,-38,-18,-39,-42,-46,-16
29540583162,0,9,-13,-8,-1,13,15,3
29540584625,7,-2,-2,-13,-23,-4,8,6
29540584625,2,19,33,-18,22,10,-42,-23
29540605569,-17,-17,-18,-41,-26,-14,-12,-3
29540605569,5,12,12,-33,-43,-17,7,8
29540607121,-21,-36,-22,7,20,-6,-41,-32
29540607121,46,65,44,57,45,34,49,45
29540619276,16,15,-17,-40,-19,-4,0,9
29540619276,3,17,16,-5,20,1,-23,10
29540628103,-16,-2,16,-15,-13,-1,19,-6
29540628103,6,7,24,34,32,19,16,20
29540643165,-10,-39,-39,-21,-13,-9,0,-11
29540643165,10,28,43,43,24,18,18,30
29540644593,-20,-17,-21,-40,-10,-21,-62,-35
29540644593,-3,3,6,51,36,28,42,20
29540665517,-24,-10,19,35,-19,-26,-4,-16
29540665517,-7,-35,-46,-55,-61,-30,-15,-9
29540667107,5,50,95,110,97,44,1,13
29540667107,45,28,7,7,-6,10,37,19
29540679221,-3,7,12,-19,-18,-9,-9,-26
29540679221,-4,-27,5,39,26,8,-5,6
29540688150,21,1,-9,12,12,21,17,11
29540688150,-19,-30,-13,22,38,14,-3,13
29540703059,-17,-21,-29,-21,-3,9,29,-22
29540703059,-3,10,-14,-57,-35,-30,-40,-21
29540704611,1,2,-24,-8,-13,6,43,0
29540704611,-4,-5,4,-23,-44,-26,-23,-8
29540725656,-14,-5,2,-24,17,7,2,0
29540725656,-27,-60,-57,-27,-48,-26,-4,-21
29540727129,30,43,26,-4,10,7,1,18
29540727129,-42,-40,-38,-44,-32,-27,-33,-34
29540739147,13,8,-11,-15,-34,-11,15,12
29540739147,-16,-6,11,37,-1,-1,27,0
29540748134,-9,15,7,-16,-36,-28,-22,-18
29540748134,3,15,16,43,6,3,6,-16
29540763184,-14,-9,-12,-61,-37,-20,-22,-4
29540763184,-9,-48,-42,39,62,22,-17,-7
29540764601,1,-18,-28,-33,-34,-8,29,15
29540764601,-7,25,50,31,52,22,-3,-9
29540785476,31,63,77,51,29,17,-22,9
29540785476,12,-12,-43,-37,-5,14,35,23
29540787086,-7,-16,-31,-44,-52,-29,2,1
29540787086,-12,-8,0,-3,11,0,-17,-11
29540799258,-17,-56,-26,28,35,8,2,8
29540799258,19,17,1,-16,-8,-12,-22,-10
29540808158,-44,-75,-66,-91,-69,-27,4,-29
29540808158,39,45,25,17,37,43,11,37
29540823154,-19,-10,9,13,-3,1,-10,-26
29540823154,8,0,3,-21,-4,-10,-5,7
29540824598,-6,-21,-15,-7,-31,-32,-13,0
29540824598,-57,-76,-42,-5,-18,-24,-15,-51
29540845545,28,43,33,42,40,26,16,10
29540845545,-38,-50,-59,-90,-52,-35,-61,-51
29540847077,31,45,54,87,78,50,48,35
29540847077,-1,7,14,-15,-15,-15,-14,1
29540859244,26,6,-23,-8,-4,1,9,21
29540859244,-28,-17,-7,-15,-12,-10,4,-9
29540868105,28,21,27,64,62,24,-5,24
29540868105,-14,-18,-23,-20,-43,-24,-13,-21
29540883062,-34,-43,-33,-56,-55,-30,-21,-15
29540883062,70,87,59,30,39,53,72,57
29540884590,-29,-38,-11,4,-10,-16,-11,-19
29540884590,11,-6,-20,7,14,1,-8,8
29540905539,16,45,42,39,25,8,18,20
29540905539,-7,29,43,24,-15,-14,-37,-35
29540907104,-12,-20,-18,-14,-5,4,14,8
29540907104,-16,-33,-37,-60,-33,-21,-19,-17
29540928076,-14,-3,-2,-43,-69,-49,-31,-17
29540928076,23,3,14,20,28,12,0,36
29540929568,22,55,31,3,20,20,22,6
29540929568,-26,-31,-20,10,16,1,-3,4
29540950627,1,6,9,-10,3,16,14,-18
29540950627,-13,-3,-3,-19,-50,-18,52,8
29540952101,12,-6,-10,18,60,24,-32,7
29540952101,15,21,24,24,-4,0,-21,9
29540965621,-16,-4,20,2,15,-6,-12,-2
29540965621,-8,-9,20,86,72,43,34,11
29540967077,20,21,-2,-17,-4,14,60,35
29540967077,-34,-37,-77,-98,-74,-48,-57,-61
29540988126,7,5,5,-24,-13,10,33,27
29540988126,-4,26,52,55,38,15,-6,-14
29540989635,16,2,-36,-61,-61,-21,39,23
29540989635,-11,-16,-14,-4,8,-6,-25,-2
29541003164,2,-3,12,61,68,32,62,21
29541003164,-15,-39,-45,-42,-2,14,-3,-3
29541004598,43,83,111,47,-8,-3,-17,0
29541004598,21,45,31,-52,-36,-7,22,13
29541025584,6,-27,-17,82,66,18,-36,-4
29541025584,2,1,13,42,35,18,18,21
29541027079,3,-1,-11,-2,4,3,-9,-3
29541027079,4,13,13,-28,-29,-16,16,13
29541048120,14,5,-8,-2,0,13,-3,8
29541048120,-15,-2,-11,-35,-23,-30,-29,-19
29541049610,-18,-20,-11,12,1,17,10,-12
29541049610,12,26,30,16,22,-1,-7,5
29541062485,-30,-28,-61,-85,-87,-44,-26,-26
29541062485,14,9,18,16,37,14,7,-6
29541069241,-14,-23,-17,-4,1,0,-13,-22
29541069241,10,14,4,7,16,7,18,3
29541085633,-22,-28,-44,-91,-95,-62,-15,-13
29541085633,40,27,3,-15,19,40,2,18
29541087074,-11,5,11,-19,-33,-14,1,-6
29541087074,10,17,16,4,12,23,23,13
29541108076,-14,-22,5,-9,-30,-24,-26,-14
29541108076,26,25,-4,60,69,38,41,26
29541109565,-20,-46,-36,-14,-10,-16,-25,-7
29541109565,5,8,24,68,11,4,-1,-2
29541122411,-9,-17,-2,3,-2,7,30,10
29541122411,4,17,24,-12,-33,-20,-17,4
29541129315,-9,-12,-5,-17,12,3,-25,-13
29541129315,35,48,42,55,33,26,54,44
29541145587,19,37,29,18,26,16,5,18
29541145587,-13,-30,-44,-49,-36,-28,-42,-22
29541147103,-12,-20,-8,-2,-2,-4,11,-5
29541147103,-6,-18,-21,-47,-39,-13,-9,-11
29541168082,-6,-18,-13,18,10,-2,-17,-9
29541168082,-20,-26,-26,-18,-23,-20,-28,-9
29541169580,-3,13,-11,-57,-82,-51,-33,-10
29541169580,-11,-10,12,54,58,23,30,3
29541182391,9,8,9,-12,-5,11,6,10
29541182391,-22,-20,-1,0,-16,-22,-15,-23
29541189316,-5,-23,-21,-13,-15,-21,-41,1
29541189316,-11,-4,12,13,32,22,7,-5
29541205602,23,19,-32,-67,-36,3,25,4
29541205602,12,27,38,30,9,0,20,18
29541207107,-18,-18,-10,37,73,33,-14,-11
29541207107,-12,-21,-32,-65,-51,-24,-10,-8
29541228094,25,59,62,94,88,37,1,14
29541228094,-28,-27,-27,-54,-56,-29,-33,-22
29541229577,35,25,14,43,29,25,39,34
29541229577,-19,-27,-31,-48,-27,-14,-20,-23
29541242320,9,20,38,-1,-32,-14,2,14
29541242320,-11,3,-19,-11,0,-10,-45,-38
29541249115,-2,-13,10,30,48,21,-1,14
29541249115,25,25,15,33,37,26,8,24
29541265599,-5,-4,-4,12,10,-5,-1,-3
29541265599,-9,-12,-8,-5,-19,-16,-25,-7
29541267082,-4,11,-3,-12,-14,1,19,-1
29541267082,-4,-3,9,19,17,2,-15,-1
29541287991,-6,-4,16,32,12,2,-16,-21
29541287991,-8,5,18,-8,-1,-4,2,-1
29541289617,-26,-9,-21,-84,-82,-42,-11,-20
29541289617,12,35,51,58,44,18,-1,4
29541302894,3,-2,-46,-4,-13,3,36,11
29541302894,-1,-7,15,-16,-57,-32,5,-3
29541309238,-1,13,20,13,24,6,-25,-31
29541309238,-16,-16,-31,-57,-52,-23,-12,-7
29541325711,-21,-43,-25,-21,1,1,3,-4
29541325711,24,24,-21,-24,-30,0,42,23
29541327092,4,9,10,32,13,10,-2,-3
29541327092,-2,-11,15,63,41,12,-16,1
29541348128,15,31,28,6,26,8,-10,5
29541348128,6,1,6,14,22,16,10,15
29541349604,-32,-55,-40,-35,-40,-21,-7,-6
29541349604,-13,-16,-30,-44,-37,-23,-1,-7
29541362441,6,7,14,9,7,4,-15,-4
29541362441,-7,-4,-8,-19,-29,-15,-17,-23
29541369243,-5,-23,-7,23,23,-4,-11,4
29541369243,-7,-31,-28,-26,-12,1,8,-5
29541385525,7,22,16,26,17,6,-2,-5
29541385525,7,6,-10,-25,-12,-1,6,5
29541387078,-1,9,25,35,18,6,5,0
29541387078,3,-18,-31,-22,-5,-2,-1,-2
29541408068,-21,-32,-6,-34,-17,-17,-37,-11
29541408068,19,21,39,82,67,43,35,25
29541409548,-2,-9,-27,-23,-28,-18,-11,-5
29541409548,6,30,31,9,-2,-3,10,6
29541421687,8,11,-16,-24,-14,-2,1,0
29541421687,-17,-19,-16,-29,-9,-5,-5,-14
29541430633,4,4,22,63,69,26,6,2
29541430633,-11,-14,-31,-55,-47,-22,-27,-12
29541445577,12,0,2,15,21,23,33,10
29541445577,-13,-26,-23,-23,-12,-10,-6,-8
29541447104,20,27,10,8,8,6,7,7
29541447104,-2,-1,-7,-23,-20,-8,3,4
29541468084,-20,-23,8,28,26,7,-18,-11
29541468084,-2,13,8,26,23,4,-8,-5
29541469604,8,7,3,-11,-12,0,15,13
29541469604,-5,-20,-23,-1,0,-1,-2,-7
29541481788,-2,5,2,-5,-5,-2,-6,-2
29541481788,-7,-6,-1,-15,-16,-6,-3,-3
29541490586,-6,6,17,5,-1,-5,-15,-14
29541490586,10,7,7,18,9,11,30,14
29541505546,-9,-7,-16,-11,-9,-13,-7,-11
29541505546,-3,-6,-17,-6,-2,-5,15,1
29541507065,-1,0,-4,2,-6,-5,2,-5
29541507065,9,8,10,18,12,6,24,6
29541528141,-6,-9,-11,-7,-3,-2,5,-2
29541528141,-2,2,-14,-2,-3,-2,-4,-2
29541529584,-1,-6,-18,-15,-10,-1,-5,-1
29541529584,0,3,3,1,1,-5,-12,-3
29541541763,1,3,5,3,-1,-11,-28,1
29541541763,-2,-1,10,3,3,-10,-13,-3
29541550603,-4,-2,8,-1,-1,-3,-12,-1
29541550603,0,-2,3,5,-1,-4,75,-1
29541565706,-2,1,4,-2,-4,-4,95,-2
29541565706,-2,-3,3,6,7,10,73,1
29541567070,-2,-1,-7,-5,-4,4,41,-2
29541567070,0,3,-4,2,2,0,-17,1
29541588094,-5,-10,-5,-3,-1,6,-57,-1
29541588094,1,8,6,2,4,6,-62,-1
29541589606,7,7,10,6,5,7,-116,7
29541589606,2,7,11,2,-2,5,-128,-2
29541610667,-7,-11,-5,-4,-3,-4,-109,-5
29541610667,-1,-3,0,6,4,4,-83,0
29541612205,-4,0,-5,-12,-4,-1,-30,-4
29541612205,2,-3,-7,2,0,2,-19,4
29541625526,1,1,2,-1,-2,-2,-1,3
29541625526,-8,-7,-4,0,-3,1,-11,-4
29541627084,-4,-3,-17,-13,-6,-4,1,-6
29541627084,2,5,14,15,8,3,13,0
29541647274,-1,-1,-32,1,2,2,-18,-1
29541647274,3,-5,-36,0,0,0,-13,3
29541648056,3,-11,-66,0,-1,-2,-30,-8
29541648056,-4,-7,-127,-6,-4,-1,18,2
29541669927,0,1,-121,-1,-3,-5,72,1
29541669927,-4,2,-128,-10,-7,-5,75,-3
29541670592,2,7,-37,14,8,6,127,5
29541670592,-3,-1,24,-8,-5,-5,42,-6
29541684861,0,7,75,4,1,0,32,-3
29541684861,6,14,93,0,1,-1,19,5
29541685540,-2,5,61,-3,-3,-2,6,-2
29541685540,-3,-6,76,-5,-4,-2,10,-5
29541707411,2,2,91,0,-6,-1,-3,1
29541707411,-1,-7,75,8,5,2,-3,-3
29541708043,-1,-4,36,2,-1,1,8,3
29541708043,-2,-1,41,6,4,3,-12,0
29541729948,-2,-7,-1,-9,-5,-4,-34,-3
29541729948,-4,-6,-11,-4,-4,0,41,-3
29541730622,4,1,-86,-4,-1,-1,1,5
29541730622,-4,-4,-128,-6,-4,-2,8,-2
29541744764,-3,1,-108,-3,-3,-3,27,-3
29541744764,2,4,-22,4,1,-1,-28,2
29541745517,-6,-1,30,-2,-2,-3,-10,0
29541745517,-1,5,50,0,-3,-1,4,-3
29541767411,-2,-1,52,-6,1,-1,10,0
29541767411,2,2,37,6,2,-1,28,-1
29541768116,-6,-13,39,-10,-8,-6,47,-2
29541768116,3,12,38,4,2,2,-5,-2
29541789904,-4,0,31,-5,-4,-3,-20,-1
29541789904,-3,-6,13,8,5,1,-17,-1
29541790613,-3,-2,44,-6,-3,-1,-26,-1
29541790613,1,-5,42,-10,-5,-2,19,1
29541804923,1,3,58,8,4,3,13,0
29541804923,-3,-3,46,-9,-6,-3,-12,-2
29541805596,0,4,41,3,2,-1,8,-1
29541805596,-3,-7,38,2,-3,-4,-2,-4
29541827309,0,3,16,-4,2,0,-20,1
29541827309,3,-2,11,1,4,2,-23,3
29541828089,5,10,31,14,5,2,-25,2
29541828089,-4,-4,6,-2,0,-2,-17,0
29541858130,1,-2,4,3,-1,-2,-5,-3
29541858130,-4,-6,-12,-7,-6,-3,18,-5
29541858766,-6,-9,-15,-13,-8,-4,-3,-3
29541858766,2,-2,0,0,-3,1,25,1
29541864909,-2,3,5,7,2,-1,-9,-3
29541864909,0,3,-7,-1,-1,-1,-6,-5
29541865570,-3,-4,-8,-2,-1,1,-3,0
29541865570,-1,-3,-11,0,1,-1,-14,0
29541887365,-1,-5,-11,-4,-2,0,1,1
29541887365,-4,-1,-3,-3,-5,-4,-15,-2
29541888069,-1,0,-7,-2,-4,-4,-16,-5
29541888069,3,-3,-8,0,2,2,-17,4
29541909883,5,14,16,4,4,1,0,2
29541909883,-6,-9,-15,-11,-5,-3,-3,-3
29541910547,5,7,1,7,2,-1,14,0
29541910547,0,5,3,7,2,-2,12,-1
29541924845,-3,-4,-10,1,1,0,10,-2
29541924845,-4,-10,-14,-6,-3,-2,11,-3
29541925585,-6,-10,-10,-8,-5,-4,5,-3
29541925585,7,8,0,5,5,3,-20,2
29541947401,0,2,-6,-5,-5,-2,-5,0
29541947401,-2,-1,-9,-2,-1,-1,-26,-1
29541948099,-5,-5,-20,-8,-4,-2,-1,-3
29541948099,-2,-2,-3,-2,-1,0,-2,-4
29541969876,-5,-8,-12,0,-3,-1,3,-4
29541969876,-1,-4,-11,0,0,-2,12,1
29541970539,6,7,4,7,3,1,0,0
29541970539,-4,-3,-9,-3,-3,-4,14,0
29541984841,-1,-5,-11,-1,0,-1,5,0
29541984841,0,0,-4,-1,-2,-1,6,-1
29541985544,-1,-1,-5,0,0,0,2,0
29541985544,-4,-8,-16,-6,-3,-4,-3,-5
29542007371,0,7,8,8,3,1,5,1
29542007371,-2,-8,-9,-5,1,-1,-1,3
29542008044,5,10,8,1,-1,-2,0,2
29542008044,-2,-5,-11,-9,-2,-1,16,0
29542029940,-4,-6,-14,-2,-4,-3,-5,-3
29542029940,-2,-1,10,10,5,3,-8,-4
29542030596,-4,2,9,-3,-2,-1,-18,-1
29542030596,0,-3,-3,-2,0,2,-7,0
29542044872,1,-14,-17,-6,-1,0,0,1
29542044872,12,25,21,15,5,1,-1,6
29542045571,-4,-4,-9,-5,-3,-1,-11,-2
29542045571,5,9,3,3,5,1,-12,1
29542067484,-1,-1,-8,-4,-4,-5,1,-3
29542067484,-2,-8,-16,-7,-6,-2,4,-1
29542068089,3,1,-4,1,1,-1,6,-1
29542068089,-4,-2,-6,-3,-4,-4,0,-3
29542089939,-4,-5,-4,0,2,1,-5,-4
29542089939,-1,-1,-17,-9,-3,-3,6,-2
29542090590,-6,-9,-3,7,2,1,7,-2
29542090590,3,3,2,2,0,0,-5,1
29542104950,7,12,10,2,-2,-1,-4,1
29542104950,-3,-2,-3,0,-1,0,1,0
29542105591,-2,-2,13,11,0,0,3,-2
29542105591,-4,-2,-4,-4,-1,-2,-2,-4
29542127402,0,-3,-2,-3,3,0,3,3
29542127402,-6,-13,-12,-9,-5,-5,-3,-5
29542128115,9,12,-2,2,4,2,-1,6
29542128115,-5,-5,-1,0,-2,1,-5,-1
29542150011,-1,0,4,3,1,0,-1,-3
29542150011,-6,-10,-16,-11,-5,-1,-3,-2
29542150569,1,5,16,11,1,1,5,-1
29542150569,0,6,-2,-5,-5,-5,1,1
29542164870,-2,-1,-2,3,1,0,0,-1
29542164870,-2,0,4,2,0,2,-1,-4
29542165591,-4,-10,-19,-15,-7,-7,-3,-6
29542165591,-4,-4,3,5,3,4,4,0
29542187425,-3,-4,0,-2,-6,-2,0,-3
29542187425,2,7,6,1,-1,-5,-1,0
29542188090,-7,-10,-20,-9,-4,1,-2,-3
29542188090,1,4,0,-3,-3,-3,-4,-1
29542209870,-2,-5,-10,-6,-2,0,-1,-1
29542209870,1,2,20,18,5,2,1,0
29542210572,6,13,2,0,2,0,-1,1
29542210572,-3,-8,-8,-7,-3,-1,-2,1
29542224741,-6,-2,-4,-7,-6,-4,-1,-3
29542224741,4,3,-7,-10,-3,-4,-4,-1
29542225534,-3,-7,12,11,5,1,0,-2
29542225534,-7,-6,-9,-9,-10,-7,-3,-5
29542247219,10,3,4,7,8,4,4,4
29542247219,-4,0,-4,-8,-9,-3,0,0
29542248029,4,5,-1,-7,0,-2,-5,1
29542248029,-5,5,6,3,0,1,1,-4
29542269860,-2,-6,-3,-5,-3,-4,-3,-3
29542269860,-4,-3,-1,0,-1,1,1,1
29542270566,-5,-7,-9,-6,-4,-3,-1,-2
29542270566,2,-1,4,1,-2,-1,2,2
29542284898,-2,-3,-2,5,5,1,-3,-7
29542284898,6,10,13,5,7,3,1,0
29542285568,-3,-5,-17,-10,-6,-2,-2,-1
29542285568,-2,-1,1,2,1,-2,-4,-5
29542307378,-2,-3,-7,-7,-5,-3,-3,2
29542307378,-6,-9,-15,-11,-6,-3,-3,-2
29542308070,-1,2,17,19,8,4,2,0
29542308070,0,-4,-17,-8,-5,-2,-2,-1
29542338077,-6,2,5,10,4,4,4,-3
29542338077,8,4,1,2,3,0,3,6
29542338755,-1,-4,-12,-9,-6,-2,-4,-1
29542338755,-3,-9,-10,-5,3,0,-2,-2
29542344855,-5,-2,2,-1,-5,-3,-1,-2
29542344855,0,2,3,-2,4,3,-2,-2
29542345613,-5,-7,-14,-11,-3,-2,-2,-3
29542345613,11,11,17,10,-2,1,3,4
29542367408,-3,-2,-3,-6,-5,-4,-1,1
29542367408,2,5,6,1,-3,-4,-3,0
29542368095,-1,-5,-5,-8,-4,-3,-4,-2
29542368095,1,2,3,1,-1,-3,-3,-1
29542390548,4,4,-7,-9,-4,-5,-3,-1
29542390548,-2,0,4,6,0,-2,-1,-4
29542391245,-4,-2,-18,-9,-2,-1,-3,0
29542391245,1,4,12,10,4,3,2,3
29542404900,1,-3,4,3,-1,-2,0,1
29542404900,-5,-4,-3,-1,-1,-2,-2,-3
29542405565,1,0,-8,-3,0,0,0,0
29542405565,-1,0,6,8,5,1,0,-2
29542427378,1,-2,-13,-3,1,4,4,2
29542427378,-3,-4,-5,1,-5,-4,-6,-3
29542428099,1,4,8,1,-3,-1,4,-1
29542428099,-13,-15,-14,-2,5,2,-1,-7
29542450597,14,15,3,-6,-4,-4,-2,3
29542450597,3,-7,-3,-5,0,-1,4,10
29542451275,1,1,10,5,2,-2,-1,-3
29542451275,-2,-1,-4,-8,-2,-1,1,1
29542464202,-5,-2,6,3,3,-1,0,-3
29542464202,-3,-4,-10,-6,-2,0,-3,-4
29542472461,-3,-5,6,6,2,1,0,-1
29542472461,1,3,-4,-4,-6,-5,-3,0
29542487464,-5,-1,-1,-2,0,-1,-2,-2
29542487464,4,2,3,4,0,0,-3,1
29542488040,0,-1,1,-1,1,2,-1,1
29542488040,-3,-7,-7,-3,-5,-2,-5,-3
29542510593,-2,-4,-3,-1,0,-1,0,-1
29542510593,-5,1,12,10,5,3,-1,-6
29542511243,-5,-1,-3,-6,-5,-4,-6,-3
29542511243,9,5,-1,2,0,-2,-3,2
29542524217,-1,4,9,3,-1,-2,-3,-1
29542524217,-5,-10,-20,-11,-1,2,1,-1
29542532465,3,8,15,7,2,3,2,-1
29542532465,1,-1,10,8,6,3,6,6
29542547359,-4,-2,-4,-4,-5,-4,-6,-3
29542547359,-3,-7,-16,-11,-7,-1,1,-1
29542548068,2,5,6,3,2,-2,-1,-2
29542548068,0,5,-2,-1,2,-3,-3,-2
29542570676,0,-4,-11,-4,-1,1,-2,-3
29542570676,-2,5,16,11,1,-2,1,-1
29542571274,-1,-6,-14,-9,-2,-2,-1,0
29542571274,-4,-5,-1,-1,-3,-1,3,-2
29542584198,1,0,6,4,1,-1,-1,0
29542584198,2,3,-22,-21,-10,-7,-8,-2
29542592423,5,14,37,27,7,1,0,2
29542592423,-1,1,2,-5,-3,0,-1,0
29542607253,0,2,0,-4,-6,-3,1,-2
29542607253,-1,-2,-2,-5,-6,-3,-5,-2
29542608029,-6,-11,-23,-15,-9,-3,1,-2
29542608029,4,-1,0,-6,-5,-2,-1,-2
29542630718,-4,-5,1,5,2,-1,-1,1
29542630718,-5,-9,-6,-3,0,-1,-2,-3
29542631236,-2,-1,-5,-7,-1,1,0,-1
29542631236,-6,-4,-12,-6,-5,-2,-3,-5
29542644247,-2,-3,-5,-5,-1,1,3,0
29542644247,5,8,11,8,3,2,4,7
29542652441,-1,-3,2,4,4,4,2,0
29542652441,-2,-5,-14,-12,-7,-4,-4,-2
29542667399,-2,-1,-9,-6,-2,2,1,0
29542667399,-2,1,16,14,7,0,-4,-5
29542668076,6,1,-5,-7,-3,-3,-2,4
29542668076,-2,-4,-10,-4,-1,1,-3,0
29542691121,-2,0,1,4,1,0,0,-1
29542691121,-1,1,3,3,-1,-2,2,-2
29542691687,-6,-7,-6,-3,-4,-3,-4,-4
29542691687,-1,-1,-2,-5,-2,-3,-3,-2
29542704230,-2,-4,-2,1,-3,1,1,-2
29542704230,-6,2,-1,-4,-2,-1,-2,-4
29542712554,4,2,8,9,3,1,1,1
29542712554,0,6,-4,-8,-4,-3,0,2
29542727351,-1,4,20,18,10,6,2,1
29542727351,-2,-6,-7,-5,-2,0,-1,-1
29542728042,-9,-12,-28,-19,-8,-6,-4,-4
29542728042,-1,1,22,21,9,5,0,-2
29542750560,0,0,-4,-5,-3,-3,0,-1
29542750560,-3,0,-4,-2,-4,-5,-4,-4
29542751240,1,-2,-1,-1,1,0,3,-1
29542751240,-2,1,5,4,1,0,0,-1
29542764148,-2,-7,-14,-10,-3,-1,-1,-2
29542764148,-4,2,15,7,-2,-1,1,-4
29542772268,1,4,4,-1,0,-1,-1,2
29542772268,-2,1,0,-3,-2,-3,-3,-3
29542787397,0,-7,-12,-5,-2,-4,-4,-1
29542787397,8,10,8,1,3,-3,-2,3
29542788077,0,2,-4,-4,-4,-5,-8,-3
29542788077,-1,-1,-3,-3,-2,-4,-3,-2
29542810592,-2,0,-1,-1,-6,-6,-5,0
29542810592,-3,-8,-4,3,2,3,4,-1
29542811242,-2,0,2,-2,-4,-4,1,1
29542811242,3,5,-8,-9,-5,-3,-1,5
29542833102,3,3,1,-5,-1,0,-3,-1
29542833102,-2,1,6,3,0,2,-2,-2
29542833744,-9,-13,-23,-15,-6,-1,-2,-5
29542833744,1,4,10,10,3,4,1,0
29542847397,-3,-6,-8,-7,0,-2,-4,-2
29542847397,-3,3,6,5,6,3,2,0
29542848093,4,-8,-4,-2,-2,-1,1,-1
29542848093,1,-1,-15,-12,-6,-1,-1,-6
29542870646,-5,-1,4,6,3,3,-1,0
29542870646,1,0,-10,-6,-3,-4,-5,0
29542871247,-11,-7,-1,6,-1,-1,-2,-1
29542871247,-1,-9,-10,-6,-5,-1,-2,-2
29542893050,-2,-5,-4,1,2,1,1,-2
29542893050,-7,-8,-9,-6,-5,-2,0,-1
29542893767,4,13,14,7,3,-1,-1,0
29542893767,0,-3,4,1,0,0,-2,-1
29542907318,0,2,0,-5,-3,-4,-1,0
29542907318,4,-3,-4,-1,-1,0,1,2
29542908039,0,-5,-9,-6,-1,0,1,0
29542908039,0,1,-4,-1,-3,-4,-4,-1
29542930706,-5,1,11,8,3,2,4,-1
29542930706,14,9,5,-7,-7,-7,-6,5
29542931228,-12,-6,-11,-6,-7,-6,-8,-8
29542931228,7,2,4,5,1,-1,3,6
29542953167,-1,4,3,3,1,1,1,2
29542953167,13,10,-1,-8,-7,-6,4,0
29542953730,-6,-5,-6,-3,1,3,6,4
29542953730,5,1,8,8,0,-3,2,2
29542967379,-2,-5,-3,1,-3,-3,-1,0
29542967379,-10,-10,-7,-2,3,5,3,-5
29542968043,12,5,7,2,6,1,-2,5
29542968043,-9,-6,-2,8,10,4,8,-2
29542990577,16,14,6,-1,3,-3,8,6
29542990577,-13,-4,-11,-6,0,-1,-15,-7
29542991253,-3,4,6,1,-4,-1,-14,-2
29542991253,-16,-8,-3,-3,-3,-1,15,-7
29543012931,-18,2,4,-1,-2,-3,5,-16
29543012931,15,-4,-7,2,-1,1,12,7
29543013685,-14,-6,1,-1,-7,-4,-10,-6
29543013685,-2,-6,0,-1,5,2,-11,-3
29543027267,-7,-8,-8,-8,-8,-3,-10,-6
29543027267,-3,0,0,-1,-1,-2,-6,-8
29543028101,8,3,-1,1,-1,0,-9,-4
29543028101,-13,-6,-5,-3,-4,2,-9,-4
29543050431,-16,-2,-9,-6,-6,-6,-10,-22
29543050431,3,-3,5,7,1,1,-10,8
29543051363,23,5,4,1,1,-2,7,12
29543051363,13,13,14,4,1,-1,-3,5
29543073000,-14,-13,-13,-6,-3,-3,-5,-4
29543073000,-10,4,1,2,-4,-4,1,-10
29543073858,-1,-4,-7,-3,1,-2,2,-2
29543073858,-4,1,-1,-1,2,1,3,-4
29543087401,6,-2,2,-1,-3,1,0,6
29543087401,-2,0,3,-5,-6,-5,1,0
29543088242,5,0,-9,-7,-1,2,9,-2
29543088242,-5,2,4,4,1,-4,-2,-5
29543110560,-1,3,3,1,6,6,1,4
29543110560,13,0,-1,3,4,3,4,3
29543111495,4,10,15,1,1,-1,1,-1
29543111495,2,-3,-3,-6,-5,-4,-2,2
29543133298,-1,-5,-2,4,0,2,5,2
29543133298,1,3,0,-2,0,0,1,-1
29543133887,2,-10,-5,-2,-4,-2,2,4
29543133887,-3,-3,-4,-6,-5,-5,-2,-1
29543147282,16,-4,-4,-2,-5,-4,1,8
29543147282,-10,-1,11,9,2,1,-3,-4
29543147967,6,2,-5,-7,-8,-6,1,4
29543147967,7,5,4,5,3,-1,-1,3
29543170454,6,2,6,0,1,1,-2,0
29543170454,-1,5,-4,-9,-3,-3,-4,-3
29543171242,0,9,18,8,7,4,2,1
29543171242,-5,-11,-13,-9,-6,-1,-4,-3
29543193082,13,7,-2,-4,-4,-1,-4,4
29543193082,-9,-12,1,1,2,2,3,2
29543193812,-10,-4,-9,-7,-7,-6,-4,-5
29543193812,9,1,-5,-3,1,1,-6,-5
29543207347,-10,-7,-1,0,0,-3,-4,4
29543207347,-1,-3,-8,-8,-4,-3,0,-1
29543208050,-1,4,10,7,0,-1,2,-4
29543208050,-4,8,9,3,4,1,0,2
29543230580,24,16,7,4,2,-1,-2,4
29543230580,16,1,-3,0,2,-1,0,6
29543232058,-13,-9,-8,-1,1,0,1,-6
29543232058,-2,-8,-8,-5,-4,-2,0,-3
29543252912,-7,-6,-6,-3,1,2,-1,-3
29543252912,-5,0,-1,0,1,1,0,-3
29543254516,0,-3,-2,1,-2,-1,-1,-4
29543254516,-7,2,1,-6,-3,-2,-3,-6
29543266568,-9,-10,-4,-4,-3,-3,-4,-1
29543266568,-1,1,0,2,0,0,-4,-2
29543275606,1,7,10,6,7,3,-1,-2
29543275606,-4,-3,-5,-3,-4,-3,-2,-4
29543290538,-5,2,-4,-7,-1,1,1,1
29543290538,-4,2,8,4,-3,-3,0,-1
29543292088,1,2,-1,1,2,0,0,0
29543292088,1,-2,-2,-2,-1,-2,-1,4
29543313079,-2,-9,-15,-4,-2,1,0,0
29543313079,-4,-4,-5,1,2,1,-1,-1
29543314554,9,-3,-6,-4,-3,-3,-3,5
29543314554,1,-3,-1,-3,-4,-2,0,0
29543326756,-3,0,1,3,-3,-1,-2,-5
29543326756,-2,-3,-4,-2,0,1,-1,-2
29543335558,-2,-3,-11,-5,-3,-2,0,-1
29543335558,0,2,2,4,2,1,0,1
29543350542,12,6,8,2,-5,-3,1,2
29543350542,1,3,3,-1,1,1,2,-1
29543352031,-9,-9,-6,0,-1,-1,0,-5
29543352031,4,2,0,1,0,-1,1,4
29543373036,-1,0,0,-2,0,0,-2,-4
29543373036,-4,-8,-9,-6,-3,-2,0,1
29543374558,0,0,3,4,3,0,-2,0
29543374558,-12,-11,-9,-9,-6,-6,-4,-5
29543386660,1,-4,-5,-3,2,-1,3,0
29543386660,-5,-2,3,-1,-5,-4,-5,-4
29543395584,6,8,8,-3,-2,3,1,2
29543395584,8,4,1,0,1,0,-1,1
