30375363140,-0.734741210938,0.0297241210938,-0.677795410156,-0.00103759765625
30375386761,-0.734619140625,0.0296630859375,-0.677856445312,-0.0010986328125
30375401844,-0.73095703125,0.0316772460938,-0.681762695312,-0.00054931640625
30375423047,-0.730163574219,0.033447265625,-0.682495117188,0.00164794921875
30375446737,-0.7265625,0.034912109375,-0.686279296875,0.00274658203125
30375461792,-0.726196289062,0.03662109375,-0.6865234375,0.0045166015625
30375482990,-0.729309082031,0.0384521484375,-0.683166503906,0.0067138671875
30375506003,-0.734130859375,0.0400390625,-0.677856445312,0.00775146484375
30375551771,-0.738342285156,0.0399169921875,-0.673278808594,0.0069580078125
30375560715,-0.739685058594,0.0383911132812,-0.671875,0.00482177734375
30375567239,-0.737854003906,0.0361938476562,-0.674072265625,0.002197265625
30375584378,-0.733459472656,0.0346069335938,-0.678894042969,0.00042724609375
30375604514,-0.729614257812,0.0359497070312,-0.682983398438,0.0006103515625
30375626783,-0.731201171875,0.0368041992188,-0.681213378906,0.00146484375
30375671053,-0.731872558594,0.0369262695312,-0.680480957031,0.00128173828125
30375671736,-0.731262207031,0.0369873046875,-0.68115234375,0.001708984375
30375685207,-0.7314453125,0.036865234375,-0.680969238281,0.0018310546875
30375701732,-0.72900390625,0.0361938476562,-0.68359375,0.0015869140625
30375724194,-0.725524902344,0.0385131835938,-0.687194824219,0.00341796875
30375739217,-0.725463867188,0.0382690429688,-0.687255859375,0.00360107421875
30375761695,-0.72216796875,0.037353515625,-0.690795898438,0.0023193359375
30375784204,-0.72119140625,0.0372314453125,-0.691772460938,0.00225830078125
30375799220,-0.720703125,0.0375366210938,-0.692260742188,0.0025634765625
30375821704,-0.722351074219,0.0392456054688,-0.690490722656,0.0047607421875
30375844251,-0.723388671875,0.0396118164062,-0.689331054688,0.005126953125
30375865374,-0.724548339844,0.0396728515625,-0.688110351562,0.00506591796875
30375881749,-0.726928710938,0.0385131835938,-0.685668945312,0.0032958984375
30375904228,-0.7275390625,0.0369262695312,-0.685119628906,0.00213623046875
30375925389,-0.7294921875,0.0362548828125,-0.683044433594,0.00213623046875
30375941724,-0.730041503906,0.0352172851562,-0.682556152344,0.0023193359375
30375963493,-0.730346679688,0.0348510742188,-0.682250976562,0.00244140625
30375977871,-0.731079101562,0.03466796875,-0.681457519531,0.00244140625
30376009186,-0.731079101562,0.0346069335938,-0.681457519531,0.00238037109375
30376023464,-0.731079101562,0.0346069335938,-0.681457519531,0.0023193359375
30376037913,-0.731140136719,0.0345458984375,-0.681396484375,0.0023193359375
30376061051,-0.731140136719,0.0345458984375,-0.681396484375,0.00225830078125
30376083420,-0.731201171875,0.0344848632812,-0.681396484375,0.00225830078125
30376097822,-0.731201171875,0.0344848632812,-0.681335449219,0.002197265625
30376121052,-0.731201171875,0.034423828125,-0.681335449219,0.00213623046875
30376143449,-0.731262207031,0.034423828125,-0.681274414062,0.00213623046875
30376157784,-0.731262207031,0.0343627929688,-0.681274414062,0.0020751953125
30376181148,-0.731323242188,0.0343017578125,-0.681274414062,0.0020751953125
30376203371,-0.731323242188,0.0343017578125,-0.681213378906,0.00201416015625
30376217800,-0.731323242188,0.0342407226562,-0.681213378906,0.00201416015625
30376241055,-0.731384277344,0.0342407226562,-0.681213378906,0.001953125
30376263470,-0.731384277344,0.0341796875,-0.68115234375,0.00189208984375
30376277770,-0.731384277344,0.0341796875,-0.68115234375,0.00189208984375
30376300933,-0.7314453125,0.0341186523438,-0.68115234375,0.0018310546875
30376323555,-0.7314453125,0.0341186523438,-0.681091308594,0.0018310546875
30376337887,-0.7314453125,0.0341186523438,-0.681091308594,0.00177001953125
30376361058,-0.731506347656,0.0340576171875,-0.681030273438,0.00177001953125
30376383431,-0.731506347656,0.0340576171875,-0.681030273438,0.001708984375
30376397886,-0.731567382812,0.0339965820312,-0.681030273438,0.001708984375
30376421081,-0.731567382812,0.0339965820312,-0.680969238281,0.001708984375
30376443577,-0.731628417969,0.033935546875,-0.680969238281,0.00164794921875
30376457902,-0.731628417969,0.033935546875,-0.680908203125,0.00164794921875
30376481049,-0.731628417969,0.033935546875,-0.680908203125,0.0015869140625
30376503582,-0.731689453125,0.0338745117188,-0.680847167969,0.0015869140625
30376517741,-0.731689453125,0.0338745117188,-0.680847167969,0.00152587890625
30376541052,-0.731750488281,0.0338134765625,-0.680847167969,0.00152587890625
30376563503,-0.731750488281,0.0338134765625,-0.680786132812,0.00146484375
30376577859,-0.731750488281,0.0338134765625,-0.680786132812,0.00146484375
30376600934,-0.731811523438,0.0337524414062,-0.680725097656,0.00140380859375
30376623578,-0.731811523438,0.0337524414062,-0.680725097656,0.00140380859375
30376637878,-0.731872558594,0.03369140625,-0.680725097656,0.0013427734375
30376660341,-0.731872558594,0.03369140625,-0.6806640625,0.0013427734375
30376683553,-0.731872558594,0.03369140625,-0.6806640625,0.00128173828125
30376697936,-0.73193359375,0.0336303710938,-0.680603027344,0.00128173828125
30376720377,-0.73193359375,0.0336303710938,-0.680603027344,0.00128173828125
30376742846,-0.73193359375,0.0335693359375,-0.680603027344,0.001220703125
30376766036,-0.73193359375,0.0335693359375,-0.680603027344,0.00115966796875
30376780355,-0.731994628906,0.0335083007812,-0.680541992188,0.00115966796875
30376802846,-0.731994628906,0.0335083007812,-0.680541992188,0.00115966796875
30376817784,-0.732055664062,0.0335083007812,-0.680541992188,0.0010986328125
30376840437,-0.732055664062,0.033447265625,-0.680480957031,0.0010986328125
30376862898,-0.732055664062,0.033447265625,-0.680480957031,0.0010986328125
30376877953,-0.732116699219,0.033447265625,-0.680480957031,0.00103759765625
30376900308,-0.732116699219,0.0333862304688,-0.680419921875,0.00103759765625
30376923054,-0.732116699219,0.0333862304688,-0.680419921875,0.0009765625
30376937883,-0.732177734375,0.0333251953125,-0.680358886719,0.0009765625
30376960305,-0.732177734375,0.0333251953125,-0.680358886719,0.00091552734375
30376982762,-0.732177734375,0.0333251953125,-0.680358886719,0.00091552734375
30376997782,-0.732177734375,0.0332641601562,-0.680358886719,0.0008544921875
30377020392,-0.732238769531,0.0332641601562,-0.680297851562,0.0008544921875
30377044201,-0.732238769531,0.033203125,-0.680297851562,0.00079345703125
30377057843,-0.732238769531,0.033203125,-0.680297851562,0.00079345703125
30377080486,-0.732299804688,0.033203125,-0.680236816406,0.00079345703125
30377102863,-0.732299804688,0.0331420898438,-0.680236816406,0.000732421875
30377117756,-0.732299804688,0.0331420898438,-0.680236816406,0.000732421875
30377140392,-0.732299804688,0.0331420898438,-0.680236816406,0.000732421875
30377162711,-0.732360839844,0.0330810546875,-0.68017578125,0.00067138671875
30377177882,-0.732360839844,0.0330810546875,-0.68017578125,0.00067138671875
30377200380,-0.732360839844,0.0330810546875,-0.68017578125,0.0006103515625
30377222906,-0.732421875,0.0330200195312,-0.680114746094,0.0006103515625
30377237815,-0.732421875,0.0330200195312,-0.680114746094,0.0006103515625
30377260379,-0.732421875,0.0330200195312,-0.680053710938,0.00054931640625
30377282765,-0.732482910156,0.032958984375,-0.680053710938,0.00054931640625
30377297889,-0.732482910156,0.032958984375,-0.680053710938,0.00048828125
30377320366,-0.732482910156,0.0328979492188,-0.680053710938,0.00048828125
30377336682,-0.732482910156,0.0328979492188,-0.680053710938,0.00042724609375
30377357794,-0.732543945312,0.0328979492188,-0.679992675781,0.00042724609375
30377380337,-0.732543945312,0.0328369140625,-0.679992675781,0.00042724609375
30377396700,-0.732543945312,0.0328369140625,-0.679992675781,0.0003662109375
30377417740,-0.732604980469,0.0328369140625,-0.679931640625,0.0003662109375
30377440351,-0.732604980469,0.0327758789062,-0.679931640625,0.0003662109375
30377456692,-0.732604980469,0.0327758789062,-0.679931640625,0.00030517578125
30377477918,-0.732604980469,0.0327758789062,-0.679870605469,0.00030517578125
30377500340,-0.732666015625,0.0327758789062,-0.679870605469,0.00030517578125
30377516733,-0.732666015625,0.03271484375,-0.679870605469,0.00030517578125
30377539219,-0.732666015625,0.03271484375,-0.679809570312,0.000244140625
30377560381,-0.732727050781,0.03271484375,-0.679809570312,0.000244140625
30377576671,-0.732727050781,0.0326538085938,-0.679809570312,0.00018310546875
30377599238,-0.732727050781,0.0326538085938,-0.679748535156,0.00018310546875
30377620345,-0.732788085938,0.0326538085938,-0.679748535156,0.00018310546875
30377642820,-0.732788085938,0.0325927734375,-0.679748535156,0.0001220703125
30377659171,-0.732788085938,0.0325927734375,-0.679748535156,0.0001220703125
30377680282,-0.732788085938,0.0325927734375,-0.679748535156,0.0001220703125
30377696693,-0.732849121094,0.0325927734375,-0.6796875,0.0001220703125
30377719202,-0.732849121094,0.0325927734375,-0.6796875,6.103515625e-05
30377740333,-0.732849121094,0.0325317382812,-0.6796875,6.103515625e-05
30377756700,-0.732849121094,0.0325317382812,-0.679626464844,6.103515625e-05
30377779197,-0.73291015625,0.0325317382812,-0.679626464844,0.0
30377800285,-0.73291015625,0.032470703125,-0.679626464844,0.0
30377816664,-0.73291015625,0.032470703125,-0.679626464844,-6.103515625e-05
30377839171,-0.732971191406,0.032470703125,-0.679565429688,-6.103515625e-05
30377860377,-0.732971191406,0.0324096679688,-0.679565429688,-6.103515625e-05
30377876702,-0.732971191406,0.0324096679688,-0.679565429688,-6.103515625e-05
30377899218,-0.732971191406,0.0324096679688,-0.679504394531,-0.0001220703125
30377920396,-0.733032226562,0.0324096679688,-0.679504394531,-0.0001220703125
30377936750,-0.733032226562,0.0324096679688,-0.679504394531,-0.0001220703125
30377959198,-0.733032226562,0.0323486328125,-0.679504394531,-0.0001220703125
30377980382,-0.733032226562,0.0323486328125,-0.679443359375,-0.00018310546875
30377996722,-0.733093261719,0.0323486328125,-0.679443359375,-0.00018310546875
30378019162,-0.733093261719,0.0322875976562,-0.679443359375,-0.000244140625
30378040405,-0.733093261719,0.0322875976562,-0.679382324219,-0.000244140625
30378056653,-0.733093261719,0.0322875976562,-0.679382324219,-0.000244140625
30378079218,-0.733154296875,0.0322875976562,-0.679382324219,-0.000244140625
30378100186,-0.733154296875,0.0322265625,-0.679382324219,-0.00030517578125
30378118116,-0.733154296875,0.0322265625,-0.679382324219,-0.00030517578125
30378139144,-0.733154296875,0.0322265625,-0.679382324219,-0.00030517578125
30378160240,-0.733154296875,0.0321655273438,-0.679321289062,-0.00030517578125
30378176611,-0.733154296875,0.0321655273438,-0.679321289062,-0.0003662109375
30378199150,-0.733215332031,0.0321655273438,-0.679321289062,-0.0003662109375
30378220434,-0.733215332031,0.0321655273438,-0.679321289062,-0.0003662109375
30378236699,-0.733215332031,0.0321655273438,-0.679260253906,-0.00042724609375
30378259204,-0.733215332031,0.0321044921875,-0.679260253906,-0.00042724609375
30378280354,-0.733276367188,0.0321044921875,-0.679260253906,-0.00042724609375
30378296698,-0.733276367188,0.0320434570312,-0.679260253906,-0.00048828125
30378319210,-0.733276367188,0.0320434570312,-0.679260253906,-0.00048828125
30378340322,-0.733276367188,0.0320434570312,-0.679260253906,-0.00048828125
30378356659,-0.733276367188,0.0320434570312,-0.67919921875,-0.00048828125
30378379175,-0.733276367188,0.0320434570312,-0.67919921875,-0.00054931640625
30378400276,-0.733337402344,0.0320434570312,-0.67919921875,-0.00054931640625
30378416027,-0.733337402344,0.031982421875,-0.67919921875,-0.00054931640625
30378438443,-0.733337402344,0.031982421875,-0.67919921875,-0.00054931640625
30378460971,-0.733337402344,0.031982421875,-0.679138183594,-0.0006103515625
30378476023,-0.733337402344,0.031982421875,-0.679138183594,-0.0006103515625
30378498324,-0.7333984375,0.031982421875,-0.679138183594,-0.0006103515625
30378521075,-0.7333984375,0.0319213867188,-0.679138183594,-0.0006103515625
30378535960,-0.7333984375,0.0319213867188,-0.679138183594,-0.0006103515625
30378558505,-0.7333984375,0.0319213867188,-0.679138183594,-0.00067138671875
30378581025,-0.7333984375,0.0319213867188,-0.679077148438,-0.00067138671875
30378595924,-0.7333984375,0.0318603515625,-0.679077148438,-0.00067138671875
30378618426,-0.733459472656,0.0318603515625,-0.679077148438,-0.00067138671875
30378640889,-0.733459472656,0.0318603515625,-0.679077148438,-0.000732421875
30378657327,-0.733459472656,0.0318603515625,-0.679077148438,-0.000732421875
30378678455,-0.733459472656,0.0317993164062,-0.679016113281,-0.000732421875
30378701061,-0.733459472656,0.0317993164062,-0.679016113281,-0.00079345703125
30378717363,-0.733520507812,0.0317993164062,-0.679016113281,-0.00079345703125
30378738388,-0.733520507812,0.0317993164062,-0.679016113281,-0.00079345703125
30378760908,-0.733520507812,0.03173828125,-0.679016113281,-0.00079345703125
30378777319,-0.733520507812,0.03173828125,-0.678955078125,-0.00079345703125
30378798521,-0.733581542969,0.03173828125,-0.678955078125,-0.0008544921875
30378821071,-0.733581542969,0.03173828125,-0.678955078125,-0.0008544921875
30378837357,-0.733581542969,0.03173828125,-0.678955078125,-0.0008544921875
30378858528,-0.733581542969,0.03173828125,-0.678955078125,-0.0008544921875
30378880928,-0.733581542969,0.0316772460938,-0.678894042969,-0.0008544921875
30378897308,-0.733581542969,0.0316772460938,-0.678894042969,-0.00091552734375
30378918449,-0.733581542969,0.0316772460938,-0.678894042969,-0.00091552734375
30378940937,-0.733642578125,0.0316772460938,-0.678894042969,-0.00091552734375
30378957314,-0.733642578125,0.0316772460938,-0.678894042969,-0.00091552734375
30378978423,-0.733642578125,0.0316162109375,-0.678894042969,-0.0009765625
30379000966,-0.733642578125,0.0316162109375,-0.678894042969,-0.0009765625
30379017314,-0.733642578125,0.0316162109375,-0.678894042969,-0.0009765625
30379038475,-0.733642578125,0.0316162109375,-0.678833007812,-0.0009765625
30379054162,-0.733642578125,0.0316162109375,-0.678833007812,-0.00103759765625
30379077295,-0.733642578125,0.0315551757812,-0.678833007812,-0.00103759765625
30379098602,-0.733642578125,0.0315551757812,-0.678833007812,-0.00103759765625
30379114168,-0.733703613281,0.0315551757812,-0.678833007812,-0.00103759765625
30379137343,-0.733703613281,0.0315551757812,-0.678833007812,-0.00103759765625
30379158424,-0.733703613281,0.0315551757812,-0.678833007812,-0.0010986328125
30379174141,-0.733703613281,0.031494140625,-0.678833007812,-0.0010986328125
30379197295,-0.733703613281,0.031494140625,-0.678833007812,-0.0010986328125
30379218395,-0.733703613281,0.031494140625,-0.678771972656,-0.0010986328125
30379234156,-0.733703613281,0.031494140625,-0.678771972656,-0.0010986328125
30379257343,-0.733703613281,0.031494140625,-0.678771972656,-0.00115966796875
30379278491,-0.733764648438,0.031494140625,-0.678771972656,-0.00115966796875
30379294161,-0.733764648438,0.0314331054688,-0.678771972656,-0.00115966796875
30379317289,-0.733764648438,0.0314331054688,-0.6787109375,-0.00115966796875
30379338388,-0.733764648438,0.0314331054688,-0.6787109375,-0.00115966796875
30379354191,-0.733764648438,0.0314331054688,-0.6787109375,-0.00115966796875
30379377338,-0.733764648438,0.0314331054688,-0.6787109375,-0.001220703125
30379398478,-0.733764648438,0.0314331054688,-0.6787109375,-0.001220703125
30379414174,-0.733764648438,0.0313720703125,-0.6787109375,-0.001220703125
30379436656,-0.733825683594,0.0313720703125,-0.6787109375,-0.001220703125
30379458427,-0.733825683594,0.0313720703125,-0.6787109375,-0.001220703125
30379474114,-0.733825683594,0.0313720703125,-0.6787109375,-0.001220703125
30379496654,-0.733825683594,0.0313720703125,-0.6787109375,-0.001220703125
30379518385,-0.733825683594,0.0313720703125,-0.6787109375,-0.00128173828125
30379534216,-0.733825683594,0.0313720703125,-0.678649902344,-0.00128173828125
30379556643,-0.733825683594,0.0313720703125,-0.678649902344,-0.00128173828125
30379579926,-0.73388671875,0.0313110351562,-0.678649902344,-0.00128173828125
30379594169,-0.73388671875,0.0313110351562,-0.678649902344,-0.00128173828125
30379616669,-0.73388671875,0.0313110351562,-0.678649902344,-0.0013427734375
30379639825,-0.73388671875,0.0313110351562,-0.678649902344,-0.0013427734375
30379654178,-0.73388671875,0.0313110351562,-0.678649902344,-0.0013427734375
30379676645,-0.73388671875,0.0313110351562,-0.678649902344,-0.0013427734375
30379699784,-0.73388671875,0.0313110351562,-0.678649902344,-0.0013427734375
30379714135,-0.73388671875,0.0313110351562,-0.678588867188,-0.0013427734375
30379736719,-0.73388671875,0.0313110351562,-0.678588867188,-0.0013427734375
30379759825,-0.73388671875,0.03125,-0.678588867188,-0.0013427734375
30379774151,-0.73388671875,0.0313110351562,-0.678588867188,-0.0013427734375
30379796715,-0.733947753906,0.03125,-0.678588867188,-0.0013427734375
30379819798,-0.733947753906,0.03125,-0.678588867188,-0.0013427734375
30379834177,-0.733947753906,0.03125,-0.678527832031,-0.00140380859375
30379856692,-0.733947753906,0.03125,-0.678527832031,-0.00140380859375
30379879822,-0.733947753906,0.03125,-0.678527832031,-0.00140380859375
30379894144,-0.733947753906,0.03125,-0.678527832031,-0.00140380859375
30379916630,-0.733947753906,0.03125,-0.678527832031,-0.00140380859375
30379939829,-0.733947753906,0.0311889648438,-0.678527832031,-0.00140380859375
30379954122,-0.733947753906,0.0311889648438,-0.678527832031,-0.00140380859375
30379976661,-0.733947753906,0.0311889648438,-0.678527832031,-0.00146484375
30379999812,-0.734008789062,0.0311889648438,-0.678527832031,-0.00146484375
30380014173,-0.734008789062,0.0311889648438,-0.678527832031,-0.00146484375
30380036640,-0.734008789062,0.0311889648438,-0.678527832031,-0.00146484375
30380059766,-0.734008789062,0.0311889648438,-0.678527832031,-0.00146484375
30380080992,-0.734008789062,0.0311889648438,-0.678466796875,-0.00146484375
30380096628,-0.734008789062,0.0311889648438,-0.678466796875,-0.00146484375
30380119828,-0.734008789062,0.0311279296875,-0.678466796875,-0.00152587890625
30380140987,-0.734008789062,0.0311279296875,-0.678466796875,-0.00152587890625
30380156642,-0.734008789062,0.0311279296875,-0.678466796875,-0.00152587890625
30380179780,-0.734008789062,0.0311279296875,-0.678466796875,-0.00152587890625
30380200901,-0.734069824219,0.0311279296875,-0.678466796875,-0.00152587890625
30380216628,-0.734069824219,0.0311279296875,-0.678405761719,-0.00152587890625
30380239163,-0.734069824219,0.0311279296875,-0.678405761719,-0.0015869140625
30380260949,-0.734069824219,0.0310668945312,-0.678405761719,-0.0015869140625
30380276677,-0.734069824219,0.0310668945312,-0.678405761719,-0.0015869140625
30380299826,-0.734069824219,0.0310668945312,-0.678405761719,-0.0015869140625
30380320999,-0.734069824219,0.0310668945312,-0.678405761719,-0.0015869140625
30380336635,-0.734069824219,0.0310668945312,-0.678405761719,-0.0015869140625
30380359151,-0.734069824219,0.0310668945312,-0.678405761719,-0.00164794921875
30380381015,-0.734069824219,0.0310668945312,-0.678405761719,-0.00164794921875
30380396651,-0.734069824219,0.031005859375,-0.678405761719,-0.00164794921875
