28420692877,-0.00537109375,-0.49072265625,0.84130859375
28420722992,-0.0048828125,-0.49267578125,0.8359375
28420729822,0.00830078125,-0.49951171875,0.84423828125
28420752522,0.05908203125,-0.69091796875,1.2265625
28420776072,-0.0458984375,-0.25439453125,0.322265625
28420791144,0.06640625,-0.22998046875,0.326171875
28420812445,0.578125,-0.2392578125,0.794921875
28420836187,0.37158203125,-0.57373046875,1.36083984375
28420851803,-0.4208984375,-0.77685546875,1.12060546875
28420872563,-0.548828125,-0.515625,0.41845703125
28420928760,0.23095703125,-0.205078125,0.4091796875
28420930909,0.6162109375,-0.36865234375,1.109375
28420931632,0.00830078125,-0.72265625,1.34814453125
28420952056,0.02685546875,-0.568359375,0.9912109375
28420966434,0.01171875,-0.4873046875,0.8466796875
28420985017,0.0,-0.49072265625,0.841796875
28421007841,-0.00537109375,-0.490234375,0.837890625
28421038005,-0.00146484375,-0.490234375,0.8388671875
28421047509,-0.1318359375,-0.53076171875,0.98193359375
28421061141,-0.5849609375,-0.576171875,0.625
28421082335,-0.603515625,-0.70703125,0.81103515625
28421104755,-0.47412109375,-0.46728515625,0.3662109375
28421127176,0.28076171875,-0.19873046875,0.45849609375
28421142307,0.60498046875,-0.380859375,1.1689453125
28421164826,-0.10546875,-0.73779296875,1.3271484375
28421182703,-0.63818359375,-0.63720703125,0.63720703125
28421205123,-0.025390625,-0.271484375,0.328125
28421224772,0.64013671875,-0.3056640625,0.984375
28421242586,-0.2138671875,-0.3662109375,0.646484375
28421262190,-0.033203125,-0.4990234375,0.8515625
28421284812,0.0390625,-0.49853515625,0.88818359375
28421302613,0.0458984375,-0.51318359375,0.8857421875
28421322291,0.033203125,-0.533203125,0.89794921875
28421352321,0.005859375,-0.53173828125,0.892578125
28421367324,-0.01904296875,-0.51171875,0.87548828125
28421382207,-0.0205078125,-0.50927734375,0.87841796875
28421408098,-0.02197265625,-0.517578125,0.8642578125
28421430142,-0.0322265625,-0.525390625,0.865234375
28421442268,-0.08154296875,-0.49365234375,0.8779296875
28421464766,-0.0986328125,-0.48388671875,0.89599609375
28421487316,-0.11572265625,-0.42041015625,0.90185546875
28421502147,-0.1201171875,-0.4189453125,0.90966796875
28421532164,-0.13525390625,-0.4306640625,0.91552734375
28421542584,-0.142578125,-0.40625,0.896484375
28421562330,-0.17431640625,-0.388671875,0.8603515625
28421584841,-0.23046875,-0.3798828125,0.841796875
28421602701,-0.26025390625,-0.37646484375,0.8193359375
28421629759,-0.27783203125,-0.3759765625,0.7998046875
28421644844,-0.337890625,-0.36669921875,0.78076171875
28421663081,-0.37841796875,-0.35009765625,0.78857421875
28421685652,-0.38720703125,-0.34130859375,0.7890625
28421704940,-0.42578125,-0.3232421875,0.78125
28421730122,-0.47802734375,-0.30517578125,0.794921875
28421743648,-0.50634765625,-0.27490234375,0.81494140625
28421764725,-0.5087890625,-0.228515625,0.81591796875
28421782616,-0.51513671875,-0.22900390625,0.85302734375
28421809677,-0.5361328125,-0.291015625,0.87841796875
28421824782,-0.51904296875,-0.34716796875,0.91162109375
28421842635,-0.38623046875,-0.2802734375,0.87548828125
28421863628,-0.34375,-0.23779296875,0.8994140625
28421884743,-0.3251953125,-0.25048828125,0.9111328125
28421910093,-0.3134765625,-0.26025390625,0.900390625
28421931113,-0.29296875,-0.26513671875,0.91552734375
28421944641,-0.24072265625,-0.287109375,0.93505859375
28421963063,-0.21044921875,-0.267578125,0.9208984375
28421985142,-0.193359375,-0.22705078125,0.91845703125
28422004665,-0.20263671875,-0.212890625,0.92822265625
28422027817,-0.18505859375,-0.19482421875,0.943359375
28422044241,-0.1494140625,-0.22119140625,0.96435546875
28422066764,-0.19189453125,-0.1806640625,0.935546875
28422089725,-0.26220703125,-0.1328125,0.9013671875
28422111751,-0.2578125,-0.2158203125,0.94189453125
28422134278,-0.2109375,-0.3037109375,0.890625
28422155504,-0.27099609375,-0.16259765625,0.86474609375
28422164270,-0.31396484375,-0.18701171875,0.85693359375
28422186792,-0.27685546875,-0.19921875,0.87646484375
28422207899,-0.3291015625,-0.1015625,0.85888671875
28422239321,-0.34375,-0.0849609375,0.8720703125
28422246818,-0.34814453125,-0.08056640625,0.857421875
28422267915,-0.36083984375,-0.08349609375,0.86328125
28422292233,-0.3828125,-0.1005859375,0.83642578125
28422314302,-0.41357421875,-0.072265625,0.84423828125
28422327981,-0.42626953125,-0.0927734375,0.8544921875
28422344287,-0.42578125,-0.0810546875,0.81982421875
28422366785,-0.45947265625,-0.06640625,0.826171875
28422389285,-0.474609375,-0.10791015625,0.8193359375
28422411776,-0.4794921875,-0.08642578125,0.80615234375
28422434257,-0.4921875,-0.0712890625,0.8359375
28422447960,-0.53076171875,-0.05029296875,0.794921875
28422463647,-0.53271484375,-0.0361328125,0.79931640625
28422486842,-0.55029296875,-0.04248046875,0.76708984375
28422507789,-0.61767578125,-0.02490234375,0.763671875
28422523558,-0.64794921875,-0.05810546875,0.76123046875
28422546828,-0.6318359375,-0.06640625,0.751953125
28422569297,-0.626953125,-0.02197265625,0.71826171875
28422591742,-0.65234375,0.0078125,0.6884765625
28422614256,-0.67822265625,-0.005859375,0.66162109375
28422629266,-0.65576171875,-0.025390625,0.63330078125
28422643604,-0.77783203125,-0.04150390625,0.6328125
28422666795,-0.8837890625,-0.09716796875,0.63427734375
28422689288,-0.8525390625,-0.05322265625,0.6220703125
28422719293,-0.82080078125,0.01220703125,0.5859375
28422726721,-0.77294921875,0.009765625,0.56005859375
28422749252,-0.74853515625,-0.00146484375,0.54296875
28422772222,-0.79833984375,-0.00634765625,0.5556640625
28422803212,-0.8076171875,-0.02587890625,0.5390625
28422816922,-0.8017578125,0.00341796875,0.5185546875
28422830397,-0.82421875,0.01708984375,0.5078125
28422846791,-0.8662109375,0.0126953125,0.49853515625
28422869281,-0.865234375,0.0,0.45849609375
28422891770,-0.85302734375,0.02197265625,0.43505859375
28422906771,-0.845703125,0.0048828125,0.41845703125
28422929298,-0.85302734375,-0.02197265625,0.43798828125
28422950323,-0.82958984375,-0.01904296875,0.41650390625
28422966776,-0.8525390625,0.0,0.3876953125
28422989323,-0.91748046875,-0.01318359375,0.3984375
28423010310,-0.9208984375,0.013671875,0.38720703125
28423026731,-0.91357421875,0.06494140625,0.37158203125
28423049342,-0.94775390625,0.06982421875,0.33642578125
28423070358,-0.97412109375,0.0537109375,0.3583984375
28423094291,-0.9599609375,0.04296875,0.357421875
28423123548,-0.947265625,0.07763671875,0.36376953125
28423130307,-0.947265625,0.0625,0.35546875
28423146795,-0.958984375,0.04931640625,0.3662109375
28423169756,-0.95458984375,0.03515625,0.3603515625
28423191961,-0.943359375,0.02294921875,0.37939453125
28423206770,-0.94873046875,0.0302734375,0.39013671875
28423229258,-0.93310546875,0.02880859375,0.3896484375
28423250316,-0.9443359375,0.0361328125,0.388671875
28423274702,-0.94140625,0.02490234375,0.400390625
28423296795,-0.9384765625,0.01513671875,0.4052734375
28423317961,-0.91357421875,0.00341796875,0.41064453125
28423326815,-0.90478515625,0.01953125,0.404296875
28423349276,-0.90185546875,0.015625,0.404296875
28423370430,-0.90478515625,0.00830078125,0.396484375
28423386715,-0.91259765625,0.0166015625,0.38818359375
28423423609,-0.89990234375,-0.01220703125,0.39990234375
28423430829,-0.8935546875,0.0,0.3994140625
28423448194,-0.896484375,0.01025390625,0.40283203125
28423469302,-0.90576171875,0.01025390625,0.390625
28423491768,-0.9111328125,-0.0078125,0.4091796875
28423507301,-0.9140625,0.001953125,0.40087890625
28423529385,-0.90673828125,0.02001953125,0.39111328125
28423551720,-0.904296875,0.03076171875,0.37890625
28423574208,-0.92529296875,0.01904296875,0.40283203125
28423604206,-0.93408203125,0.0,0.42041015625
28423613221,-0.9326171875,0.02099609375,0.42333984375
28423626616,-0.94140625,0.05078125,0.40380859375
28423649508,-0.94580078125,0.044921875,0.4111328125
28423679288,-0.9501953125,0.00537109375,0.42431640625
28423692874,-0.93798828125,-0.0185546875,0.43701171875
28423709259,-0.91845703125,-0.02197265625,0.44140625
28423731731,-0.89697265625,-0.02294921875,0.4599609375
28423754745,-0.86669921875,-0.01025390625,0.447265625
28423776707,-0.8671875,-0.01416015625,0.45556640625
28423791773,-0.8798828125,-0.0361328125,0.46484375
28423812926,-0.86328125,-0.064453125,0.47021484375
28423829720,-0.84765625,-0.0810546875,0.48388671875
28423859368,-0.8515625,-0.07421875,0.48388671875
28423881732,-0.8466796875,-0.0771484375,0.50732421875
28423895849,-0.83203125,-0.08203125,0.50927734375
28423911756,-0.7939453125,-0.07568359375,0.51171875
28423932896,-0.810546875,-0.07861328125,0.53857421875
28423949972,-0.8173828125,-0.0869140625,0.5400390625
28423979241,-0.78271484375,-0.1083984375,0.57275390625
28424000762,-0.75634765625,-0.1171875,0.5751953125
28424010713,-0.748046875,-0.103515625,0.58447265625
28424032211,-0.7548828125,-0.10498046875,0.5947265625
28424052771,-0.7353515625,-0.1298828125,0.62744140625
28424076719,-0.69482421875,-0.166015625,0.65234375
28424107449,-0.681640625,-0.16943359375,0.65966796875
28424112811,-0.69140625,-0.1416015625,0.65185546875
28424129239,-0.69921875,-0.126953125,0.66259765625
28424159205,-0.66162109375,-0.15380859375,0.677734375
28424180577,-0.599609375,-0.1923828125,0.7001953125
28424202881,-0.5791015625,-0.19287109375,0.70703125
28424211729,-0.5673828125,-0.19140625,0.73486328125
28424232937,-0.55126953125,-0.18701171875,0.75048828125
28424256761,-0.51953125,-0.22607421875,0.7880859375
28424279268,-0.48486328125,-0.2177734375,0.796875
28424292827,-0.44775390625,-0.2177734375,0.81884765625
28424309278,-0.41796875,-0.212890625,0.83056640625
28424331750,-0.38623046875,-0.2060546875,0.8525390625
28424354265,-0.3759765625,-0.18798828125,0.8701171875
28424368584,-0.3505859375,-0.18359375,0.875
28424391755,-0.296875,-0.18603515625,0.8798828125
28424412910,-0.26123046875,-0.18505859375,0.890625
28424428566,-0.27587890625,-0.16943359375,0.8994140625
28424459275,-0.28466796875,-0.17138671875,0.90380859375
28424481736,-0.2431640625,-0.166015625,0.896484375
28424488562,-0.22607421875,-0.1630859375,0.8955078125
28424511717,-0.208984375,-0.14892578125,0.89453125
28424534249,-0.15283203125,-0.1630859375,0.90185546875
28424556732,-0.0810546875,-0.2392578125,0.90234375
28424571750,-0.0537109375,-0.27734375,0.91748046875
28424594244,-0.06640625,-0.27001953125,0.91650390625
28424608573,-0.09033203125,-0.25537109375,0.931640625
28424631752,-0.10498046875,-0.24169921875,0.95361328125
28424662188,-0.10986328125,-0.22802734375,0.955078125
28424682917,-0.11279296875,-0.2197265625,0.96240234375
28424691733,-0.119140625,-0.20751953125,0.97509765625
28424714245,-0.1220703125,-0.20703125,0.98291015625
28424736725,-0.12451171875,-0.220703125,0.99365234375
28424759246,-0.10693359375,-0.240234375,0.99462890625
28424781564,-0.09228515625,-0.24365234375,0.98095703125
28424795392,-0.0859375,-0.2451171875,0.97705078125
28424811725,-0.08056640625,-0.24658203125,0.97607421875
28424834239,-0.0576171875,-0.2265625,0.96142578125
28424863650,-0.0400390625,-0.23291015625,0.94775390625
28424865106,-0.02734375,-0.2490234375,0.94970703125
28424884762,-0.0185546875,-0.265625,0.9296875
28424907275,0.00048828125,-0.25732421875,0.9150390625
28424922245,0.00634765625,-0.2509765625,0.9091796875
28424937130,0.01904296875,-0.2802734375,0.908203125
28424962566,0.02294921875,-0.294921875,0.92724609375
28424985039,0.03125,-0.3056640625,0.92626953125
28424997223,0.0556640625,-0.30810546875,0.916015625
28425019636,0.072265625,-0.29931640625,0.92041015625
28425042356,0.05126953125,-0.29052734375,0.9248046875
28425058571,0.041015625,-0.2900390625,0.93359375
28425087982,0.05078125,-0.29248046875,0.919921875
28425096107,0.0634765625,-0.2861328125,0.91064453125
28425117298,0.060546875,-0.29443359375,0.94189453125
28425139749,0.0498046875,-0.33837890625,0.98974609375
28425163591,0.0029296875,-0.32470703125,1.01025390625
28425184736,0.01513671875,-0.23583984375,0.98876953125
28425199721,0.00341796875,-0.28662109375,0.9541015625
28425217552,0.015625,-0.3125,0.9169921875
28425240070,0.01708984375,-0.2998046875,0.8779296875
28425267187,0.0048828125,-0.30615234375,0.8564453125
28425277531,0.0126953125,-0.30712890625,0.85986328125
28425297226,0.0029296875,-0.32275390625,0.8837890625
28425319701,-0.0078125,-0.32958984375,0.9296875
28425345061,-0.021484375,-0.3671875,0.94482421875
28425364664,0.00146484375,-0.3203125,0.9501953125
28425387222,0.0166015625,-0.30126953125,0.92724609375
28425397546,0.01220703125,-0.3056640625,0.904296875
28425417232,-0.0263671875,-0.322265625,0.91162109375
28425442591,-0.046875,-0.32080078125,0.9189453125
28425465057,-0.01416015625,-0.3134765625,0.916015625
28425477219,0.00830078125,-0.33056640625,0.9140625
28425499733,0.02001953125,-0.34912109375,0.90380859375
28425517497,0.0107421875,-0.349609375,0.8955078125
28425537096,0.01171875,-0.34326171875,0.90283203125
28425570024,0.00244140625,-0.3369140625,0.912109375
28425577542,-0.0048828125,-0.33837890625,0.91845703125
28425597221,-0.005859375,-0.34228515625,0.90966796875
28425621050,-0.0107421875,-0.35302734375,0.89501953125
28425637508,-0.017578125,-0.3662109375,0.87646484375
28425664643,-0.01171875,-0.373046875,0.8828125
28425679726,-0.00634765625,-0.36572265625,0.89404296875
28425697581,-0.0166015625,-0.3671875,0.88232421875
28425720015,-0.02685546875,-0.37744140625,0.884765625
28425742538,-0.03662109375,-0.4013671875,0.87255859375
28425757531,-0.03466796875,-0.431640625,0.86083984375
28425777111,-0.021484375,-0.46044921875,0.86279296875
28425799756,-0.01904296875,-0.47412109375,0.86279296875
28425817552,-0.009765625,-0.4912109375,0.87353515625
28425844713,-0.00634765625,-0.47705078125,0.85546875
28425867194,-0.00830078125,-0.48388671875,0.84716796875
28425877499,-0.0029296875,-0.486328125,0.84814453125
28425900038,0.00439453125,-0.48583984375,0.85400390625
28425922550,0.01171875,-0.47412109375,0.857421875
28425945040,0.0078125,-0.4609375,0.85791015625
28425957255,0.0,-0.46435546875,0.84375
28425979844,-0.01025390625,-0.47802734375,0.83349609375
28425997542,-0.009765625,-0.50390625,0.8310546875
28426018569,-0.0126953125,-0.51904296875,0.8154296875
28426039571,-0.0048828125,-0.515625,0.8193359375
28426057480,0.00146484375,-0.52099609375,0.8291015625
28426078528,0.0078125,-0.52392578125,0.82666015625
28426099754,0.015625,-0.52734375,0.830078125
28426117538,0.02001953125,-0.51318359375,0.81640625
28426146046,0.01025390625,-0.51220703125,0.82177734375
28426159620,0.0107421875,-0.5146484375,0.82275390625
28426177541,0.00830078125,-0.5078125,0.83203125
28426200048,0.00927734375,-0.51123046875,0.83984375
28426222524,0.0087890625,-0.49658203125,0.82568359375
28426237483,-0.00341796875,-0.4951171875,0.82421875
28426258557,-0.0009765625,-0.51708984375,0.82373046875
28426279757,-0.0048828125,-0.51904296875,0.8291015625
28426298044,-0.00048828125,-0.52099609375,0.828125
28426326105,-0.001953125,-0.517578125,0.8251953125
28426335000,0.005859375,-0.5185546875,0.82470703125
28426357562,0.00048828125,-0.5126953125,0.83203125
28426380026,-0.0009765625,-0.5087890625,0.8251953125
28426402536,0.0,-0.51025390625,0.82470703125
28426425022,0.001953125,-0.50439453125,0.82373046875
28426452759,-0.00146484375,-0.5126953125,0.826171875
28426460431,0.005859375,-0.51416015625,0.82958984375
28426477169,0.00048828125,-0.5048828125,0.83251953125
28426499423,0.0009765625,-0.5126953125,0.8232421875
28426520090,0.00830078125,-0.50732421875,0.8291015625
28426536682,0.00244140625,-0.5126953125,0.8271484375
28426559156,0.0,-0.51123046875,0.82470703125
28426573639,0.0048828125,-0.5166015625,0.82275390625
28426596771,-0.0029296875,-0.51708984375,0.826171875
28426619257,0.0087890625,-0.5166015625,0.8291015625
28426633559,0.00390625,-0.5078125,0.830078125
28426657217,0.0029296875,-0.50537109375,0.8232421875
28426679228,0.0,-0.51171875,0.82373046875
28426693552,0.00634765625,-0.52001953125,0.822265625
28426716693,0.0048828125,-0.51904296875,0.83056640625
28426739214,0.0048828125,-0.5166015625,0.83349609375
28426753982,0.00341796875,-0.50146484375,0.82470703125
28426776649,-0.00146484375,-0.51171875,0.8310546875
28426805407,0.00048828125,-0.51904296875,0.8251953125
28426813575,0.005859375,-0.51513671875,0.8291015625
28426836753,0.0009765625,-0.51171875,0.8291015625
28426859255,0.00341796875,-0.50927734375,0.8251953125
28426880393,0.0048828125,-0.50927734375,0.8349609375
28426904259,-0.00732421875,-0.50927734375,0.822265625
28426919214,-0.00048828125,-0.5068359375,0.82861328125
28426940396,0.00146484375,-0.51611328125,0.83251953125
28426956696,0.005859375,-0.51513671875,0.82373046875
28426979221,0.0009765625,-0.51025390625,0.83154296875
28427000304,0.00146484375,-0.51025390625,0.8193359375
28427016715,0.00439453125,-0.51025390625,0.830078125
28427039254,0.001953125,-0.5146484375,0.8251953125
28427060409,0.00439453125,-0.50244140625,0.8291015625
28427084195,0.0009765625,-0.50537109375,0.82763671875
28427106769,0.001953125,-0.5126953125,0.82958984375
28427120321,0.0048828125,-0.51123046875,0.8251953125
28427136718,0.00439453125,-0.52197265625,0.8271484375
