30131234610,0.11767578125,-0.599609375,0.7685546875
30131258344,0.10595703125,-0.6015625,0.771484375
30131273220,-0.32177734375,-0.6875,0.56884765625
30131294530,0.7802734375,-0.4736328125,1.05712890625
30131318340,0.7705078125,-0.47900390625,1.162109375
30131333347,0.4501953125,-0.62744140625,1.2216796875
30131354693,-0.35791015625,-0.7607421875,0.65966796875
30131378386,-0.44482421875,-0.6494140625,0.24072265625
30131407758,0.35498046875,-0.43701171875,0.65966796875
30131408555,0.76611328125,-0.47119140625,1.2421875
30131433472,0.14111328125,-0.69189453125,1.06787109375
30131452143,-0.5263671875,-0.7529296875,0.39990234375
30131472511,-0.0576171875,-0.62158203125,0.69091796875
30131492437,0.13818359375,-0.615234375,0.75
30131513242,0.0888671875,-0.607421875,0.7509765625
30131541917,0.10009765625,-0.61669921875,0.75927734375
30131553625,0.1142578125,-0.61865234375,0.77099609375
30131572618,-0.10302734375,-0.5830078125,0.595703125
30131595013,0.12060546875,-0.521484375,0.44140625
30131609446,-0.26904296875,-0.6005859375,0.2763671875
30131631811,0.294921875,-0.47021484375,0.59765625
30131646946,0.77294921875,-0.48779296875,1.1865234375
30131669324,0.27587890625,-0.6728515625,1.1396484375
30131691843,-0.50048828125,-0.771484375,0.45947265625
30131706890,-0.2509765625,-0.6083984375,0.26318359375
30131729313,0.6103515625,-0.4599609375,0.90771484375
30131751930,0.5751953125,-0.59130859375,1.2724609375
30131767026,0.1513671875,-0.5224609375,0.6142578125
30131789390,0.04345703125,-0.5751953125,0.7333984375
30131811957,0.10400390625,-0.6181640625,0.75390625
30131827018,0.10107421875,-0.603515625,0.7529296875
30131849582,0.09423828125,-0.5986328125,0.75
30131871968,0.08154296875,-0.6103515625,0.74658203125
30131886942,0.076171875,-0.63037109375,0.74072265625
30131909496,0.06982421875,-0.63427734375,0.73486328125
30131931926,0.05419921875,-0.642578125,0.7392578125
30131947069,0.05859375,-0.6484375,0.728515625
30131969524,0.06005859375,-0.6591796875,0.7216796875
30131991931,0.06201171875,-0.67333984375,0.72998046875
30132008390,0.04541015625,-0.6953125,0.7275390625
30132029430,0.03759765625,-0.69384765625,0.71826171875
30132051838,0.0439453125,-0.673828125,0.7080078125
30132068297,0.04296875,-0.68701171875,0.7197265625
30132089433,0.044921875,-0.70703125,0.7119140625
30132111950,0.02734375,-0.7080078125,0.7177734375
30132128286,0.02880859375,-0.7001953125,0.7041015625
30132149449,0.0205078125,-0.70849609375,0.697265625
30132171789,0.0224609375,-0.69873046875,0.69384765625
30132188270,0.013671875,-0.70263671875,0.69482421875
30132209384,-0.00341796875,-0.69287109375,0.689453125
30132231924,-0.00537109375,-0.69091796875,0.68603515625
30132248304,-0.00537109375,-0.75927734375,0.65283203125
30132269413,-0.01318359375,-0.7421875,0.68115234375
30132293285,-0.04150390625,-0.740234375,0.66552734375
30132308267,-0.0712890625,-0.71337890625,0.654296875
30132329555,-0.09375,-0.72900390625,0.6337890625
30132352006,-0.09814453125,-0.73974609375,0.63623046875
30132368274,-0.10400390625,-0.74365234375,0.626953125
30132389442,-0.1005859375,-0.77978515625,0.65234375
30132411827,-0.0810546875,-0.6806640625,0.59716796875
30132429782,-0.19775390625,-0.7470703125,0.6181640625
30132449442,-0.158203125,-0.81640625,0.6201171875
30132471964,-0.1591796875,-0.82763671875,0.6328125
30132489780,-0.16064453125,-0.86181640625,0.60986328125
30132509472,-0.19140625,-0.810546875,0.59375
30132532495,-0.2060546875,-0.7890625,0.56884765625
30132548969,-0.20654296875,-0.7578125,0.57568359375
30132571476,-0.2333984375,-0.76904296875,0.57470703125
30132592568,-0.26904296875,-0.7548828125,0.56298828125
30132608956,-0.26611328125,-0.759765625,0.5576171875
30132631443,-0.251953125,-0.79345703125,0.5947265625
30132652443,-0.30419921875,-0.80517578125,0.57080078125
30132668880,-0.3408203125,-0.78466796875,0.5263671875
30132691445,-0.322265625,-0.8056640625,0.552734375
30132713106,-0.3359375,-0.810546875,0.513671875
30132729012,-0.35498046875,-0.7744140625,0.51708984375
30132751466,-0.34716796875,-0.79345703125,0.54345703125
30132772472,-0.4140625,-0.76513671875,0.50341796875
30132788921,-0.43798828125,-0.72607421875,0.486328125
30132811442,-0.412109375,-0.728515625,0.474609375
30132832643,-0.42236328125,-0.75,0.4814453125
30132848248,-0.44921875,-0.7578125,0.46435546875
30132871445,-0.466796875,-0.74609375,0.46435546875
30132893910,-0.4912109375,-0.72314453125,0.44384765625
30132909763,-0.4775390625,-0.697265625,0.4453125
30132931419,-0.50341796875,-0.697265625,0.43310546875
30132953962,-0.52783203125,-0.69921875,0.4091796875
30132968290,-0.53759765625,-0.70361328125,0.3916015625
30132991448,-0.52392578125,-0.66748046875,0.39453125
30133013875,-0.552734375,-0.67724609375,0.3896484375
30133035173,-0.5751953125,-0.6982421875,0.3759765625
30133051447,-0.5810546875,-0.70068359375,0.369140625
30133073927,-0.58837890625,-0.70361328125,0.388671875
30133088268,-0.5986328125,-0.681640625,0.36669921875
30133111397,-0.6083984375,-0.68017578125,0.35791015625
30133133936,-0.6298828125,-0.666015625,0.35302734375
30133148278,-0.64892578125,-0.689453125,0.3447265625
30133171383,-0.64599609375,-0.72607421875,0.33984375
30133193945,-0.6474609375,-0.70263671875,0.33251953125
30133215096,-0.6669921875,-0.66064453125,0.3232421875
30133231423,-0.68408203125,-0.66064453125,0.31640625
30133253941,-0.68505859375,-0.6953125,0.3076171875
30133275127,-0.67431640625,-0.70263671875,0.29296875
30133291432,-0.703125,-0.677734375,0.27685546875
30133313955,-0.69384765625,-0.66748046875,0.26123046875
30133335095,-0.68017578125,-0.69775390625,0.25634765625
30133351442,-0.6904296875,-0.6640625,0.26025390625
30133373936,-0.68798828125,-0.6513671875,0.259765625
30133394872,-0.70361328125,-0.658203125,0.263671875
30133411421,-0.71337890625,-0.65576171875,0.25439453125
30133433923,-0.71435546875,-0.64111328125,0.2578125
30133455109,-0.71923828125,-0.65673828125,0.25244140625
30133471445,-0.7109375,-0.6689453125,0.259765625
30133493944,-0.7021484375,-0.66748046875,0.2509765625
30133515163,-0.70361328125,-0.6591796875,0.234375
30133531429,-0.69287109375,-0.658203125,0.2353515625
30133553917,-0.70458984375,-0.6650390625,0.244140625
30133575073,-0.71826171875,-0.693359375,0.236328125
30133591389,-0.72802734375,-0.69482421875,0.22021484375
30133613918,-0.71923828125,-0.66259765625,0.2177734375
30133635083,-0.7294921875,-0.6962890625,0.2080078125
30133651410,-0.72314453125,-0.71875,0.20458984375
30133673912,-0.72216796875,-0.7177734375,0.21484375
30133695094,-0.736328125,-0.68408203125,0.20458984375
30133711409,-0.73583984375,-0.6826171875,0.19921875
30133733874,-0.7373046875,-0.71142578125,0.19970703125
30133755064,-0.70654296875,-0.71533203125,0.2138671875
30133771451,-0.7060546875,-0.7099609375,0.216796875
30133793987,-0.70166015625,-0.7119140625,0.21533203125
30133815048,-0.70263671875,-0.72021484375,0.216796875
30133831488,-0.70751953125,-0.70361328125,0.21337890625
30133853865,-0.71240234375,-0.708984375,0.2060546875
30133876443,-0.7158203125,-0.69677734375,0.203125
30133891444,-0.70263671875,-0.701171875,0.20654296875
30133913912,-0.70556640625,-0.71240234375,0.19140625
30133936467,-0.70263671875,-0.69921875,0.1904296875
30133951446,-0.70458984375,-0.701171875,0.2021484375
30133973918,-0.71044921875,-0.68994140625,0.20263671875
30133996445,-0.69384765625,-0.7021484375,0.20263671875
30134010772,-0.70849609375,-0.6953125,0.2080078125
30134033918,-0.693359375,-0.71826171875,0.19677734375
30134056392,-0.6943359375,-0.7099609375,0.2109375
30134070772,-0.69384765625,-0.6982421875,0.21142578125
30134093895,-0.697265625,-0.70703125,0.20703125
30134116394,-0.6962890625,-0.7236328125,0.2021484375
30134130733,-0.697265625,-0.7197265625,0.20166015625
30134153945,-0.69482421875,-0.70703125,0.21044921875
30134176400,-0.6982421875,-0.69970703125,0.20703125
30134190761,-0.6943359375,-0.70263671875,0.20263671875
30134213866,-0.68994140625,-0.72412109375,0.201171875
30134236471,-0.6923828125,-0.7236328125,0.19970703125
30134250751,-0.70361328125,-0.7138671875,0.203125
30134273938,-0.7041015625,-0.68310546875,0.2080078125
30134296471,-0.69580078125,-0.69384765625,0.20556640625
30134317572,-0.697265625,-0.71142578125,0.201171875
30134333886,-0.69580078125,-0.71435546875,0.2021484375
30134356384,-0.70703125,-0.6923828125,0.2041015625
30134377628,-0.697265625,-0.6884765625,0.20263671875
30134393927,-0.6982421875,-0.70703125,0.21044921875
30134416419,-0.689453125,-0.69873046875,0.2001953125
30134437623,-0.68212890625,-0.7109375,0.1982421875
30134453975,-0.68505859375,-0.7197265625,0.19921875
30134476446,-0.70263671875,-0.7236328125,0.2080078125
30134497550,-0.701171875,-0.72412109375,0.20458984375
30134513958,-0.69677734375,-0.734375,0.20458984375
30134536415,-0.69140625,-0.71923828125,0.20751953125
30134557573,-0.68798828125,-0.72119140625,0.212890625
30134573923,-0.68798828125,-0.72705078125,0.208984375
30134596434,-0.68603515625,-0.72216796875,0.2080078125
30134617597,-0.68408203125,-0.7060546875,0.20703125
30134633994,-0.6875,-0.7109375,0.21044921875
30134656401,-0.68115234375,-0.70263671875,0.21240234375
30134677569,-0.685546875,-0.71484375,0.2109375
30134693916,-0.68896484375,-0.7314453125,0.2041015625
30134716383,-0.68896484375,-0.72802734375,0.216796875
30134737654,-0.69287109375,-0.7216796875,0.21142578125
30134753917,-0.68994140625,-0.7060546875,0.20556640625
30134776414,-0.6875,-0.716796875,0.2236328125
30134797596,-0.689453125,-0.734375,0.21826171875
30134813993,-0.693359375,-0.71923828125,0.228515625
30134836418,-0.7001953125,-0.705078125,0.23779296875
30134858923,-0.6923828125,-0.67333984375,0.2275390625
30134873962,-0.6806640625,-0.689453125,0.23095703125
30134896417,-0.68896484375,-0.69921875,0.25146484375
30134918903,-0.703125,-0.69091796875,0.23486328125
30134933934,-0.68212890625,-0.65625,0.21923828125
30134956395,-0.63720703125,-0.66845703125,0.23974609375
30134978979,-0.640625,-0.6767578125,0.23095703125
30134993340,-0.66162109375,-0.71875,0.2236328125
30135016438,-0.67578125,-0.73583984375,0.22900390625
30135038934,-0.67724609375,-0.7294921875,0.20849609375
30135053212,-0.62646484375,-0.73388671875,0.24267578125
30135076370,-0.58203125,-0.751953125,0.25927734375
30135098943,-0.5986328125,-0.763671875,0.26708984375
30135120166,-0.60888671875,-0.7392578125,0.25439453125
30135143944,-0.62353515625,-0.73193359375,0.2412109375
30135158927,-0.59326171875,-0.7314453125,0.2529296875
30135180014,-0.57421875,-0.74658203125,0.2578125
30135196417,-0.556640625,-0.783203125,0.263671875
30135218918,-0.54150390625,-0.7919921875,0.25830078125
30135240148,-0.53173828125,-0.8115234375,0.28759765625
30135256463,-0.548828125,-0.85400390625,0.29150390625
30135278919,-0.53564453125,-0.88525390625,0.28759765625
30135300172,-0.4951171875,-0.8798828125,0.30322265625
30135316425,-0.4794921875,-0.8427734375,0.306640625
30135338946,-0.47119140625,-0.810546875,0.33447265625
30135360128,-0.46533203125,-0.84814453125,0.375
30135376380,-0.43505859375,-0.88720703125,0.35986328125
30135398918,-0.37548828125,-0.8740234375,0.361328125
30135419962,-0.35009765625,-0.84326171875,0.38916015625
30135436382,-0.32763671875,-0.8544921875,0.39404296875
30135458912,-0.31103515625,-0.86328125,0.42138671875
30135464443,-0.25244140625,-0.85888671875,0.42578125
30135486940,-0.205078125,-0.841796875,0.44970703125
30135501888,-0.189453125,-0.82080078125,0.48779296875
30135524428,-0.18408203125,-0.8115234375,0.51513671875
30135546904,-0.18408203125,-0.79296875,0.51806640625
30135561873,-0.1513671875,-0.79638671875,0.54052734375
30135584477,-0.10546875,-0.8076171875,0.568359375
30135606929,-0.05517578125,-0.7978515625,0.60009765625
30135621946,-0.0498046875,-0.7646484375,0.6220703125
30135644370,-0.037109375,-0.7314453125,0.6201171875
30135666958,-0.00048828125,-0.71533203125,0.626953125
30135681870,0.0361328125,-0.7138671875,0.64599609375
30135704399,0.04345703125,-0.71044921875,0.67919921875
30135726872,0.0380859375,-0.70068359375,0.66650390625
30135741842,0.0595703125,-0.69873046875,0.6806640625
30135764373,0.07666015625,-0.7265625,0.70458984375
30135786863,0.07958984375,-0.720703125,0.6826171875
30135801954,0.10498046875,-0.6611328125,0.68359375
30135824415,0.12548828125,-0.65576171875,0.70068359375
30135846870,0.125,-0.6533203125,0.69873046875
30135861767,0.111328125,-0.66455078125,0.70556640625
30135884387,0.08837890625,-0.63818359375,0.66162109375
30135906930,0.1513671875,-0.703125,0.77001953125
30135921885,0.19873046875,-0.64404296875,0.84033203125
30135944346,0.1494140625,-0.70703125,0.779296875
30135975722,0.14013671875,-0.65185546875,0.7587890625
30135981894,0.1416015625,-0.66650390625,0.7587890625
30136004430,0.14697265625,-0.64501953125,0.73193359375
30136026932,0.14111328125,-0.5986328125,0.720703125
30136041796,0.13623046875,-0.58154296875,0.71435546875
30136064381,0.15185546875,-0.6123046875,0.73046875
30136082192,0.15283203125,-0.59375,0.73876953125
30136101789,0.1318359375,-0.5673828125,0.76025390625
30136124414,0.13232421875,-0.54052734375,0.76416015625
30136142174,0.13427734375,-0.52197265625,0.78759765625
30136161897,0.1298828125,-0.5185546875,0.79248046875
30136184533,0.12744140625,-0.5244140625,0.80810546875
30136202235,0.15771484375,-0.5693359375,0.8583984375
30136221879,0.1845703125,-0.59814453125,0.8974609375
30136262216,0.14599609375,-0.4296875,0.77734375
30136281898,0.16162109375,-0.4794921875,0.7919921875
30136304389,0.2138671875,-0.513671875,0.8037109375
30136322226,0.19580078125,-0.47900390625,0.80126953125
30136341918,0.15234375,-0.48388671875,0.81591796875
30136364389,0.17724609375,-0.5068359375,0.81787109375
30136382219,0.18994140625,-0.4951171875,0.81689453125
30136403246,0.18017578125,-0.4892578125,0.806640625
30136424405,0.185546875,-0.50732421875,0.80859375
30136442194,0.20751953125,-0.484375,0.80126953125
30136463246,0.2060546875,-0.453125,0.80810546875
30136484378,0.1845703125,-0.44287109375,0.82373046875
30136502158,0.17578125,-0.46435546875,0.83642578125
30136523236,0.16259765625,-0.478515625,0.82666015625
30136544479,0.17236328125,-0.49267578125,0.81396484375
30136562186,0.1884765625,-0.5107421875,0.80517578125
30136583224,0.19775390625,-0.49609375,0.7998046875
30136604391,0.19287109375,-0.498046875,0.802734375
30136622164,0.1884765625,-0.48583984375,0.814453125
30136643203,0.18359375,-0.4990234375,0.80859375
30136664347,0.18212890625,-0.494140625,0.8125
30136682202,0.1845703125,-0.49462890625,0.80712890625
30136704608,0.17578125,-0.498046875,0.8154296875
30136724350,0.18408203125,-0.49609375,0.81640625
30136742173,0.1865234375,-0.5009765625,0.8056640625
30136764683,0.1884765625,-0.49365234375,0.810546875
30136784417,0.18505859375,-0.5068359375,0.81005859375
30136802174,0.1865234375,-0.48876953125,0.8115234375
30136824700,0.18408203125,-0.50244140625,0.8095703125
30136844325,0.18994140625,-0.494140625,0.8046875
30136862157,0.181640625,-0.5078125,0.81298828125
30136883921,0.18701171875,-0.49658203125,0.80419921875
30136904399,0.18408203125,-0.5029296875,0.80859375
30136922219,0.189453125,-0.50146484375,0.8125
30136944625,0.1884765625,-0.50732421875,0.80322265625
30136964398,0.1884765625,-0.5126953125,0.8076171875
30136982178,0.1884765625,-0.505859375,0.80126953125
30137004669,0.1875,-0.49365234375,0.79736328125
30137024389,0.19189453125,-0.49365234375,0.8046875
30137042154,0.189453125,-0.50537109375,0.80810546875
30137063925,0.1845703125,-0.50390625,0.8017578125
30137085048,0.18701171875,-0.50439453125,0.80322265625
30137101418,0.1875,-0.498046875,0.80126953125
30137123919,0.1826171875,-0.5,0.80908203125
30137145045,0.1796875,-0.5009765625,0.80517578125
30137161446,0.17333984375,-0.51025390625,0.79931640625
30137183921,0.18896484375,-0.51611328125,0.78857421875
30137205075,0.19677734375,-0.51904296875,0.79248046875
30137221393,0.20166015625,-0.513671875,0.794921875
30137243899,0.19677734375,-0.50390625,0.80322265625
30137265123,0.19140625,-0.5087890625,0.81201171875
30137281168,0.18505859375,-0.51171875,0.80419921875
30137303916,0.185546875,-0.51708984375,0.80322265625
30137325021,0.19091796875,-0.5185546875,0.79638671875
30137341379,0.1943359375,-0.51416015625,0.806640625
30137363916,0.189453125,-0.513671875,0.79296875
30137385051,0.193359375,-0.51953125,0.79443359375
30137401371,0.1884765625,-0.515625,0.79638671875
