27698814776,0.02001953125,-0.427734375,0.90625
27698840724,0.00732421875,-0.40234375,0.91552734375
27698853524,0.0751953125,-0.3720703125,0.96142578125
27698874713,-0.24267578125,-0.1474609375,0.5205078125
27698898583,-0.47314453125,-0.6318359375,1.0859375
27698913560,-0.63134765625,-0.54638671875,0.6533203125
27698934746,-0.07080078125,-0.181640625,0.4189453125
27698958500,0.59375,-0.1904296875,1.0751953125
27699012496,0.06103515625,-0.58349609375,1.4892578125
27699013210,-0.66650390625,-0.60791015625,0.75390625
27699014032,-0.18896484375,-0.18701171875,0.4287109375
27699034151,0.47705078125,-0.1357421875,1.1181640625
27699050051,0.142578125,-0.396484375,1.31298828125
27699069876,-0.24609375,-0.27294921875,0.82275390625
27699093477,-0.17236328125,-0.341796875,0.88623046875
27699131393,-0.17822265625,-0.36669921875,0.89990234375
27699138415,-0.1865234375,-0.32275390625,0.9091796875
27699152821,-0.21484375,-0.27197265625,0.88623046875
27699167122,0.02734375,-0.20556640625,0.89208984375
27699189630,-0.767578125,-0.44921875,1.0
27699212138,-0.8466796875,-0.4345703125,0.86572265625
27699227187,-0.7734375,-0.16943359375,0.4150390625
27699249518,0.0634765625,0.09521484375,0.703125
27699272204,0.1591796875,-0.1611328125,1.34326171875
27699287125,-0.72900390625,-0.45654296875,1.07177734375
27699309509,-0.88330078125,-0.1689453125,0.375
27699340846,-0.005859375,0.11474609375,0.71044921875
27699347024,0.01171875,-0.18408203125,1.33984375
27699369509,-0.56396484375,-0.234375,0.91455078125
27699392006,-0.42626953125,-0.17724609375,0.81689453125
27699407291,-0.49755859375,-0.146484375,0.79345703125
27699429634,-0.5087890625,-0.138671875,0.79541015625
27699452154,-0.53759765625,-0.13330078125,0.794921875
27699467136,-0.54736328125,-0.1455078125,0.79443359375
27699490990,-0.5576171875,-0.13818359375,0.78173828125
27699512125,-0.5810546875,-0.1181640625,0.7666015625
27699527185,-0.60009765625,-0.095703125,0.74951171875
27699549621,-0.61279296875,-0.0966796875,0.73486328125
27699580339,-0.63427734375,-0.10107421875,0.73291015625
27699588465,-0.64501953125,-0.11279296875,0.71875
27699617166,-0.65771484375,-0.10693359375,0.70556640625
27699632186,-0.67578125,-0.08642578125,0.68603515625
27699654630,-0.69384765625,-0.0673828125,0.68017578125
27699669624,-0.70361328125,-0.078125,0.6650390625
27699694967,-0.7109375,-0.08544921875,0.66259765625
27699708446,-0.72412109375,-0.083984375,0.65673828125
27699729552,-0.73486328125,-0.06298828125,0.638671875
27699752139,-0.74853515625,-0.05126953125,0.63330078125
27699768445,-0.75,-0.05224609375,0.64208984375
27699789615,-0.759765625,-0.04833984375,0.61962890625
27699812151,-0.78271484375,-0.06884765625,0.6044921875
27699828495,-0.77880859375,-0.06787109375,0.62158203125
27699849657,-0.767578125,-0.07470703125,0.6201171875
27699871998,-0.78173828125,-0.05078125,0.59033203125
27699888455,-0.81103515625,-0.0185546875,0.57373046875
27699912656,-0.80322265625,-0.0185546875,0.57666015625
27699932129,-0.8056640625,-0.06103515625,0.5947265625
27699948477,-0.8037109375,-0.05712890625,0.5615234375
27699970943,-0.826171875,-0.0068359375,0.55810546875
27699992104,-0.828125,0.00244140625,0.54443359375
27700015996,-0.833984375,-0.01806640625,0.5419921875
27700029570,-0.81298828125,-0.03271484375,0.56494140625
27700052071,-0.82470703125,-0.017578125,0.53857421875
27700069975,-0.85693359375,0.02099609375,0.52197265625
27700089625,-0.85205078125,0.0068359375,0.51708984375
27700112779,-0.8486328125,-0.00634765625,0.51123046875
27700129116,-0.8603515625,0.01171875,0.4931640625
27700151629,-0.869140625,0.029296875,0.466796875
27700174143,-0.87451171875,0.02099609375,0.4716796875
27700188926,-0.87451171875,0.015625,0.46044921875
27700213080,-0.87939453125,0.00927734375,0.45703125
27700232801,-0.90087890625,0.0224609375,0.44091796875
27700248934,-0.90478515625,0.03271484375,0.41796875
27700271606,-0.89892578125,0.00439453125,0.4462890625
27700292741,-0.8994140625,-0.00146484375,0.43115234375
27700309117,-0.900390625,0.033203125,0.42578125
27700331692,-0.904296875,0.00830078125,0.43115234375
27700360150,-0.90087890625,0.00048828125,0.43017578125
27700369958,-0.89892578125,0.01416015625,0.4375
27700391535,-0.89013671875,-0.001953125,0.4375
27700412683,-0.90478515625,-0.013671875,0.4306640625
27700436605,-0.9111328125,-0.005859375,0.42333984375
27700459099,-0.90869140625,-0.00439453125,0.43017578125
27700474130,-0.9130859375,0.00146484375,0.42236328125
27700496614,-0.9169921875,0.00927734375,0.41064453125
27700511593,-0.91650390625,0.0146484375,0.4208984375
27700534120,-0.8974609375,-0.0009765625,0.44091796875
27700549141,-0.9013671875,0.0107421875,0.42724609375
27700571592,-0.90771484375,0.0146484375,0.42138671875
27700594124,-0.908203125,0.01025390625,0.4228515625
27700609124,-0.8984375,-0.0009765625,0.43701171875
27700631577,-0.91064453125,0.0009765625,0.431640625
27700654128,-0.90185546875,0.0185546875,0.42431640625
27700668446,-0.89794921875,0.00439453125,0.4306640625
27700691592,-0.904296875,0.0078125,0.42919921875
27700714104,-0.91064453125,0.01416015625,0.42236328125
27700728522,-0.90869140625,0.01611328125,0.42724609375
27700751627,-0.89404296875,0.00537109375,0.44091796875
27700774144,-0.9033203125,0.01171875,0.431640625
27700788469,-0.91796875,0.02001953125,0.42578125
27700811620,-0.89990234375,0.0107421875,0.43408203125
27700834118,-0.90869140625,-0.00439453125,0.4404296875
27700848430,-0.9130859375,0.0166015625,0.4140625
27700872353,-0.91650390625,0.00341796875,0.4140625
27700900117,-0.9150390625,0.0,0.41796875
27700908409,-0.89990234375,-0.00439453125,0.42626953125
27700931619,-0.89697265625,0.01416015625,0.43017578125
27700954088,-0.89013671875,0.0166015625,0.4541015625
27700975249,-0.8974609375,0.01318359375,0.44091796875
27700991681,-0.8779296875,0.00537109375,0.4658203125
27701014086,-0.88525390625,0.0068359375,0.46630859375
27701035156,-0.8798828125,0.0107421875,0.47021484375
27701059107,-0.896484375,0.00634765625,0.4521484375
27701074086,-0.87744140625,-0.00830078125,0.48193359375
27701096639,-0.89111328125,0.0009765625,0.4501953125
27701111568,-0.89794921875,0.0166015625,0.4609375
27701134127,-0.8818359375,-0.01123046875,0.46630859375
27701156515,-0.88330078125,0.01806640625,0.46240234375
27701171622,-0.87939453125,0.0126953125,0.48291015625
27701194093,-0.87744140625,0.01806640625,0.484375
27701215246,-0.88525390625,0.015625,0.46533203125
27701231544,-0.873046875,0.01025390625,0.47119140625
27701254176,-0.8828125,0.005859375,0.48193359375
27701275218,-0.875,-0.00439453125,0.4609375
27701292092,-0.892578125,0.01318359375,0.46875
27701314203,-0.880859375,-0.0078125,0.4677734375
27701335929,-0.88623046875,-0.0009765625,0.47509765625
27701351303,-0.884765625,0.0087890625,0.46728515625
27701374204,-0.87744140625,0.00927734375,0.4677734375
27701395107,-0.8857421875,0.01220703125,0.462890625
27701411998,-0.88427734375,0.0087890625,0.46875
27701434092,-0.87158203125,0.01220703125,0.4833984375
27701462844,-0.87353515625,0.009765625,0.4853515625
27701471592,-0.8740234375,0.013671875,0.478515625
27701494092,-0.86767578125,0.0009765625,0.49609375
27701517041,-0.86572265625,-0.005859375,0.49365234375
27701530927,-0.875,-0.00048828125,0.490234375
27701554083,-0.8720703125,-0.00537109375,0.4892578125
27701576565,-0.86376953125,-0.0078125,0.4970703125
27701590886,-0.87255859375,0.0,0.4873046875
27701614074,-0.869140625,-0.0029296875,0.49072265625
27701637214,-0.873046875,0.00048828125,0.48876953125
27701650946,-0.86865234375,-0.00244140625,0.4921875
27701674093,-0.87109375,-0.0029296875,0.48193359375
27701696621,-0.87548828125,0.017578125,0.46923828125
27701710982,-0.87890625,0.01416015625,0.47216796875
27701735549,-0.87158203125,0.0048828125,0.4755859375
27701756611,-0.87109375,0.00244140625,0.484375
27701770948,-0.8701171875,0.01708984375,0.48681640625
27701794124,-0.90966796875,0.0615234375,0.421875
27701816586,-0.88720703125,0.0390625,0.47607421875
27701837661,-0.85791015625,-0.0205078125,0.48828125
27701854094,-0.8447265625,-0.03564453125,0.51708984375
27701876578,-0.8505859375,-0.01123046875,0.498046875
27701897597,-0.875,0.02685546875,0.46484375
27701914097,-0.86572265625,0.04296875,0.4736328125
27701936586,-0.841796875,-0.01220703125,0.50146484375
27701957697,-0.83544921875,-0.0517578125,0.52490234375
27701974071,-0.8232421875,-0.0341796875,0.52001953125
27701996665,-0.8115234375,-0.01513671875,0.52099609375
27702017713,-0.810546875,-0.01416015625,0.54052734375
27702034094,-0.7978515625,-0.029296875,0.56103515625
27702057257,-0.76123046875,-0.05029296875,0.60205078125
27702085236,-0.7451171875,-0.06591796875,0.626953125
27702094088,-0.728515625,-0.0576171875,0.60546875
27702116624,-0.71630859375,-0.044921875,0.62109375
27702137758,-0.70361328125,-0.0498046875,0.65625
27702154067,-0.6650390625,-0.08056640625,0.70068359375
27702176583,-0.623046875,-0.103515625,0.71435546875
27702197760,-0.60546875,-0.09765625,0.7099609375
27702214095,-0.5771484375,-0.0869140625,0.73486328125
27702236618,-0.55322265625,-0.09814453125,0.75439453125
27702257912,-0.52783203125,-0.12841796875,0.79150390625
27702273442,-0.5029296875,-0.169921875,0.78662109375
27702296618,-0.47119140625,-0.18798828125,0.8115234375
27702317755,-0.42333984375,-0.18310546875,0.83056640625
27702333414,-0.40185546875,-0.15185546875,0.8623046875
27702356555,-0.38427734375,-0.14501953125,0.8935546875
27702379068,-0.3515625,-0.15966796875,0.9111328125
27702393448,-0.31298828125,-0.20166015625,0.91748046875
27702416534,-0.27001953125,-0.20263671875,0.919921875
27702439091,-0.251953125,-0.19970703125,0.93994140625
27702453451,-0.26416015625,-0.19970703125,0.9521484375
27702476567,-0.23583984375,-0.2138671875,0.96044921875
27702499040,-0.2109375,-0.21142578125,0.97314453125
27702513440,-0.201171875,-0.20263671875,0.9580078125
27702536593,-0.1923828125,-0.21337890625,0.96337890625
27702559027,-0.1728515625,-0.22802734375,0.97412109375
27702580272,-0.15087890625,-0.2314453125,0.9814453125
27702596599,-0.146484375,-0.2265625,0.97509765625
27702619042,-0.1455078125,-0.22705078125,0.9638671875
27702640334,-0.14697265625,-0.21533203125,0.9580078125
27702664104,-0.1494140625,-0.20947265625,0.95556640625
27702679064,-0.1572265625,-0.2099609375,0.947265625
27702700300,-0.16748046875,-0.205078125,0.93701171875
27702716570,-0.16748046875,-0.19140625,0.921875
27702739091,-0.16650390625,-0.1953125,0.91064453125
27702760197,-0.14794921875,-0.2041015625,0.912109375
27702776593,-0.1220703125,-0.23828125,0.91357421875
27702799035,-0.10791015625,-0.2197265625,0.912109375
27702820183,-0.0908203125,-0.2333984375,0.927734375
27702836604,-0.11083984375,-0.2626953125,1.005859375
27702859068,-0.05419921875,-0.228515625,0.96240234375
27702880260,-0.04345703125,-0.23876953125,0.95361328125
27702896511,-0.048828125,-0.2392578125,0.93798828125
27702919068,-0.0625,-0.2509765625,0.94091796875
27702940173,-0.0771484375,-0.26171875,0.93603515625
27702956572,-0.0625,-0.27099609375,0.9443359375
27702979093,-0.041015625,-0.267578125,0.9482421875
27703000394,-0.033203125,-0.24169921875,0.9482421875
27703022571,-0.04150390625,-0.24462890625,0.96728515625
27703039138,-0.03369140625,-0.25,0.9375
27703060194,-0.0283203125,-0.26611328125,0.94873046875
27703076556,-0.017578125,-0.2685546875,0.9296875
27703099074,-0.0224609375,-0.26318359375,0.94091796875
27703104597,-0.03125,-0.2685546875,0.935546875
27703127136,-0.021484375,-0.27197265625,0.9453125
27703141965,-0.01025390625,-0.26171875,0.9384765625
27703172096,-0.0244140625,-0.2529296875,0.93017578125
27703187099,-0.03515625,-0.2509765625,0.9228515625
27703202053,-0.02978515625,-0.2568359375,0.935546875
27703224569,-0.01220703125,-0.2587890625,0.947265625
27703247158,0.00341796875,-0.2607421875,0.94189453125
27703262076,-0.00146484375,-0.2646484375,0.94873046875
27703284577,-0.015625,-0.25,0.93994140625
27703307047,-0.0224609375,-0.23388671875,0.9296875
27703322118,-0.0234375,-0.240234375,0.9287109375
27703344657,-0.0234375,-0.24169921875,0.93017578125
27703362378,-0.01904296875,-0.2421875,0.93798828125
27703381976,-0.01953125,-0.22998046875,0.93994140625
