28371103346,-0.0732421875,0.282836914062,-0.927978515625,0.231384277344
28371125817,-0.0731811523438,0.282470703125,-0.927978515625,0.231689453125
28371150197,-0.071044921875,0.281921386719,-0.928161621094,0.232543945312
28371178660,-0.0658569335938,0.283752441406,-0.927612304688,0.23388671875
28371187021,-0.0594482421875,0.286254882812,-0.9267578125,0.23583984375
28371209574,-0.0540161132812,0.288635253906,-0.925964355469,0.237487792969
28371231337,-0.0560302734375,0.286743164062,-0.926574707031,0.236999511719
28371253793,-0.0624389648438,0.281860351562,-0.928100585938,0.235046386719
28371277044,-0.0619506835938,0.28125,-0.928344726562,0.235046386719
28371283403,-0.0554809570312,0.286010742188,-0.926879882812,0.236694335938
28371331004,-0.0552978515625,0.28759765625,-0.926452636719,0.236572265625
28371331610,-0.0620727539062,0.28369140625,-0.927734375,0.234436035156
28371339972,-0.0640869140625,0.282409667969,-0.928161621094,0.233825683594
28371353628,-0.0653686523438,0.281677246094,-0.92822265625,0.234069824219
28371377251,-0.0648193359375,0.280883789062,-0.928466796875,0.234252929688
28371405329,-0.064208984375,0.279907226562,-0.928771972656,0.234497070312
28371428361,-0.0635986328125,0.27880859375,-0.929077148438,0.234741210938
28371443246,-0.0630493164062,0.278015136719,-0.929321289062,0.234680175781
28371471420,-0.0582885742188,0.279113769531,-0.929138183594,0.235473632812
28371472061,-0.057373046875,0.279113769531,-0.929138183594,0.235595703125
28371502604,-0.0534057617188,0.281188964844,-0.928527832031,0.236572265625
28371515594,-0.046630859375,0.286010742188,-0.927001953125,0.23828125
28371533433,-0.046875,0.286804199219,-0.9267578125,0.238098144531
28371554493,-0.053466796875,0.282470703125,-0.928283691406,0.235961914062
28371583023,-0.0542602539062,0.281311035156,-0.9287109375,0.235473632812
28371593465,-0.0472412109375,0.286010742188,-0.927185058594,0.237365722656
28371614498,-0.0446166992188,0.28857421875,-0.926330566406,0.238037109375
28371635624,-0.0476684570312,0.286743164062,-0.927001953125,0.237121582031
28371653448,-0.0447998046875,0.286437988281,-0.927185058594,0.237182617188
28371675978,-0.0441284179688,0.285766601562,-0.927368164062,0.237548828125
28371695608,-0.0423583984375,0.284729003906,-0.927673339844,0.237731933594
28371713438,-0.0405883789062,0.284484863281,-0.927734375,0.238220214844
28371735962,-0.0388793945312,0.28515625,-0.927368164062,0.2392578125
28371758429,-0.036865234375,0.285766601562,-0.926940917969,0.240478515625
28371773457,-0.0347290039062,0.285522460938,-0.926696777344,0.241821289062
28371795976,-0.0320434570312,0.284118652344,-0.926818847656,0.243408203125
28371815706,-0.028564453125,0.28173828125,-0.927185058594,0.245361328125
28371833466,-0.0242919921875,0.280700683594,-0.926940917969,0.247924804688
28371863429,-0.0194702148438,0.280212402344,-0.926513671875,0.25048828125
28371875693,-0.0137329101562,0.280151367188,-0.925598144531,0.254150390625
28371893461,-0.00732421875,0.280212402344,-0.924499511719,0.258361816406
28371915937,-0.000244140625,0.279174804688,-0.923522949219,0.263000488281
28371935619,0.00799560546875,0.277709960938,-0.9228515625,0.266723632812
28371960945,0.01611328125,0.278381347656,-0.921142578125,0.271667480469
28371983488,0.0244140625,0.279846191406,-0.918884277344,0.276977539062
28371995635,0.0335083007812,0.280151367188,-0.9169921875,0.282104492188
28372013457,0.0440063476562,0.279541015625,-0.915283203125,0.286804199219
28372035941,0.0567016601562,0.277465820312,-0.913452148438,0.292297363281
28372062986,0.0693969726562,0.271545410156,-0.912780761719,0.297180175781
28372073436,0.0839233398438,0.265258789062,-0.911926269531,0.301574707031
28372095937,0.100219726562,0.260437011719,-0.910217285156,0.305969238281
28372115681,0.11572265625,0.259582519531,-0.907104492188,0.310485839844
28372140934,0.12890625,0.262084960938,-0.902893066406,0.315368652344
28372155593,0.139770507812,0.26611328125,-0.898498535156,0.319885253906
28372176371,0.150756835938,0.267333984375,-0.895080566406,0.323608398438
28372191999,0.162780761719,0.266723632812,-0.891723632812,0.327331542969
28372215135,0.175170898438,0.265869140625,-0.888061523438,0.331665039062
28372237622,0.186462402344,0.266845703125,-0.883666992188,0.336486816406
28372266299,0.196960449219,0.269348144531,-0.878967285156,0.340759277344
28372276580,0.207397460938,0.270751953125,-0.874450683594,0.344970703125
28372296366,0.217712402344,0.272766113281,-0.86962890625,0.349182128906
28372318819,0.228393554688,0.273864746094,-0.864807128906,0.353393554688
28372350822,0.2392578125,0.275329589844,-0.859741210938,0.357543945312
28372363771,0.250122070312,0.277282714844,-0.854064941406,0.362060546875
28372387650,0.260681152344,0.2802734375,-0.847900390625,0.366882324219
28372395118,0.271240234375,0.283569335938,-0.841247558594,0.371887207031
28372416707,0.282043457031,0.286743164062,-0.834350585938,0.376892089844
28372440118,0.293029785156,0.289916992188,-0.8271484375,0.381896972656
28372462670,0.304260253906,0.292602539062,-0.819763183594,0.387084960938
28372484951,0.315185546875,0.294616699219,-0.812622070312,0.391784667969
28372501386,0.325805664062,0.296508789062,-0.805419921875,0.396484375
28372521298,0.335876464844,0.298828125,-0.797912597656,0.401489257812
28372553063,0.344848632812,0.301574707031,-0.790405273438,0.406677246094
28372569100,0.352844238281,0.303894042969,-0.783264160156,0.411865234375
28372588660,0.360412597656,0.305603027344,-0.776672363281,0.41650390625
28372597606,0.367126464844,0.307556152344,-0.770385742188,0.420837402344
28372620552,0.373107910156,0.309204101562,-0.764404296875,0.425231933594
28372642668,0.378112792969,0.310668945312,-0.759033203125,0.429382324219
28372665121,0.382507324219,0.312255859375,-0.754028320312,0.433166503906
28372680099,0.386474609375,0.313781738281,-0.749328613281,0.436706542969
28372701190,0.390014648438,0.315063476562,-0.744873046875,0.440124511719
28372717634,0.393371582031,0.315979003906,-0.740905761719,0.443176269531
28372746317,0.396362304688,0.317443847656,-0.737060546875,0.445861816406
28372762413,0.399475097656,0.318542480469,-0.733459472656,0.448303222656
28372777648,0.401977539062,0.318664550781,-0.730590820312,0.450622558594
28372800146,0.404052734375,0.3193359375,-0.727905273438,0.452575683594
28372822596,0.405822753906,0.320678710938,-0.725280761719,0.454345703125
28372845632,0.407470703125,0.321899414062,-0.722839355469,0.455810546875
28372860515,0.408569335938,0.323547363281,-0.720458984375,0.457458496094
28372898245,0.409973144531,0.324279785156,-0.718200683594,0.459228515625
28372900577,0.411682128906,0.325012207031,-0.715759277344,0.461059570312
28372920149,0.413330078125,0.325561523438,-0.713317871094,0.463012695312
28372943745,0.414367675781,0.325988769531,-0.71142578125,0.464599609375
28372972650,0.415588378906,0.326354980469,-0.70947265625,0.466247558594
28372980092,0.41650390625,0.326538085938,-0.707702636719,0.468017578125
28373001236,0.417419433594,0.326904296875,-0.706176757812,0.46923828125
28373017648,0.418212890625,0.327209472656,-0.704956054688,0.470153808594
28373048070,0.418701171875,0.327758789062,-0.703674316406,0.471252441406
28373068798,0.419128417969,0.327819824219,-0.702758789062,0.47216796875
28373077007,0.419616699219,0.327697753906,-0.702026367188,0.472900390625
28373101561,0.419860839844,0.328308105469,-0.701110839844,0.473571777344
28373122583,0.420104980469,0.328674316406,-0.70068359375,0.473815917969
28373137649,0.420959472656,0.328552246094,-0.700500488281,0.473388671875
28373175122,0.421081542969,0.328308105469,-0.700622558594,0.473327636719
28373190592,0.4208984375,0.328735351562,-0.70068359375,0.473022460938
28373199120,0.420837402344,0.328735351562,-0.700927734375,0.472778320312
28373220103,0.421081542969,0.328430175781,-0.700988769531,0.472595214844
28373250571,0.4208984375,0.328735351562,-0.700988769531,0.472595214844
28373257005,0.420593261719,0.32861328125,-0.701293945312,0.472595214844
28373280125,0.420837402344,0.328308105469,-0.701538085938,0.472106933594
28373302652,0.420532226562,0.328125,-0.70166015625,0.472351074219
28373323797,0.419921875,0.328552246094,-0.70166015625,0.47265625
28373340102,0.419128417969,0.328552246094,-0.701843261719,0.473022460938
28373370142,0.418701171875,0.328369140625,-0.701843261719,0.473571777344
28373377002,0.418273925781,0.328430175781,-0.70166015625,0.474182128906
28373400150,0.417663574219,0.32861328125,-0.701599121094,0.474609375
28373422633,0.417236328125,0.328369140625,-0.701782226562,0.474914550781
28373452624,0.416931152344,0.328186035156,-0.701965332031,0.47509765625
28373460128,0.416442871094,0.328308105469,-0.701965332031,0.475341796875
28373482596,0.416198730469,0.328491210938,-0.701782226562,0.475708007812
28373496994,0.415649414062,0.328796386719,-0.701782226562,0.476013183594
28373527617,0.415344238281,0.328674316406,-0.701965332031,0.476135253906
28373550575,0.415222167969,0.328491210938,-0.701965332031,0.476379394531
28373558398,0.414672851562,0.328674316406,-0.701904296875,0.476806640625
28373580140,0.4140625,0.328796386719,-0.701904296875,0.477172851562
28373603048,0.413452148438,0.328735351562,-0.702087402344,0.477478027344
28373625086,0.413208007812,0.328674316406,-0.702087402344,0.477722167969
28373647577,0.412719726562,0.328918457031,-0.702087402344,0.47802734375
28373662608,0.412109375,0.329040527344,-0.702453613281,0.477966308594
28373683803,0.411743164062,0.328857421875,-0.702758789062,0.477966308594
28373700123,0.411376953125,0.328979492188,-0.702819824219,0.478088378906
28373722587,0.410705566406,0.329223632812,-0.703063964844,0.478149414062
28373751327,0.410339355469,0.329284667969,-0.703430175781,0.477905273438
28373760181,0.409912109375,0.329223632812,-0.703735351562,0.477783203125
28373782602,0.409362792969,0.329284667969,-0.703979492188,0.477844238281
28373805121,0.40869140625,0.329406738281,-0.704223632812,0.478088378906
28373820121,0.408264160156,0.329467773438,-0.704284667969,0.478271484375
28373856945,0.407958984375,0.329406738281,-0.704223632812,0.478637695312
28373880771,0.407531738281,0.329284667969,-0.704406738281,0.478820800781
28373883082,0.406921386719,0.32958984375,-0.704467773438,0.479064941406
28373902592,0.406799316406,0.32958984375,-0.704528808594,0.479125976562
28373925122,0.406433105469,0.329650878906,-0.70458984375,0.479187011719
28373940119,0.406127929688,0.329772949219,-0.704772949219,0.479187011719
28373962584,0.40576171875,0.329772949219,-0.704833984375,0.479309082031
28373983768,0.4052734375,0.329895019531,-0.704833984375,0.479736328125
28374006278,0.404602050781,0.330017089844,-0.705139160156,0.479736328125
28374030132,0.404296875,0.329711914062,-0.705627441406,0.479431152344
28374053255,0.403991699219,0.329650878906,-0.705993652344,0.479187011719
28374060121,0.403381347656,0.329956054688,-0.706359863281,0.479064941406
28374082611,0.402465820312,0.330139160156,-0.706970214844,0.478698730469
28374105092,0.402221679688,0.329833984375,-0.707580566406,0.478210449219
28374127553,0.402038574219,0.329528808594,-0.708129882812,0.477844238281
28374156324,0.401428222656,0.329467773438,-0.708801269531,0.477355957031
28374165139,0.401428222656,0.328796386719,-0.709777832031,0.476379394531
28374180140,0.402221679688,0.326782226562,-0.711242675781,0.474975585938
28374202603,0.403381347656,0.323974609375,-0.713317871094,0.472778320312
28374232616,0.403137207031,0.322387695312,-0.715881347656,0.470153808594
28374239469,0.401672363281,0.321594238281,-0.71923828125,0.466796875
28374262652,0.399780273438,0.320068359375,-0.723571777344,0.462707519531
28374285543,0.397338867188,0.317932128906,-0.728698730469,0.458251953125
28374307640,0.393310546875,0.317199707031,-0.733825683594,0.453979492188
28374330068,0.388793945312,0.31640625,-0.7392578125,0.44970703125
28374362282,0.38427734375,0.315368652344,-0.744934082031,0.44482421875
28374383262,0.379577636719,0.313781738281,-0.751098632812,0.439697265625
28374385558,0.374267578125,0.312316894531,-0.7568359375,0.435424804688
28374413187,0.36865234375,0.311157226562,-0.762390136719,0.431274414062
28374435071,0.363159179688,0.309387207031,-0.768005371094,0.42724609375
28374442599,0.357299804688,0.307495117188,-0.773681640625,0.42333984375
28374465113,0.350891113281,0.306213378906,-0.779296875,0.419250488281
28374487548,0.34423828125,0.304870605469,-0.785217285156,0.414733886719
28374518067,0.337280273438,0.303527832031,-0.791137695312,0.41015625
28374531277,0.330139160156,0.302001953125,-0.797119140625,0.405517578125
28374563243,0.323486328125,0.2998046875,-0.802795410156,0.401184082031
28374565578,0.316772460938,0.297912597656,-0.808044433594,0.3974609375
28374585059,0.309448242188,0.297241210938,-0.812866210938,0.393920898438
28374615081,0.30224609375,0.296752929688,-0.817504882812,0.39013671875
28374638275,0.294860839844,0.296142578125,-0.822326660156,0.386108398438
28374639906,0.287170410156,0.295288085938,-0.827331542969,0.381958007812
28374658045,0.279602050781,0.2939453125,-0.832214355469,0.3779296875
28374681795,0.272399902344,0.291748046875,-0.837341308594,0.37353515625
28374687987,0.265258789062,0.28955078125,-0.84228515625,0.369323730469
28374713358,0.257873535156,0.287780761719,-0.846801757812,0.365478515625
28374736383,0.250122070312,0.286437988281,-0.85107421875,0.362060546875
28374755603,0.242553710938,0.285095214844,-0.855041503906,0.358825683594
28374770633,0.234924316406,0.283874511719,-0.859069824219,0.355346679688
28374793027,0.227111816406,0.282592773438,-0.863098144531,0.351623535156
28374810932,0.219299316406,0.280944824219,-0.8671875,0.347900390625
28374840913,0.211791992188,0.278625488281,-0.871215820312,0.344177246094
28374861896,0.204162597656,0.2763671875,-0.875244140625,0.340393066406
28374868098,0.195922851562,0.274291992188,-0.879211425781,0.336730957031
28374893392,0.186828613281,0.272888183594,-0.883056640625,0.332946777344
28374915923,0.177368164062,0.271301269531,-0.887023925781,0.328918457031
28374928101,0.168151855469,0.268432617188,-0.891296386719,0.324401855469
28374950546,0.158874511719,0.265258789062,-0.895690917969,0.319641113281
28374973089,0.148559570312,0.262756347656,-0.899963378906,0.314636230469
28374990913,0.136901855469,0.260192871094,-0.904357910156,0.309265136719
28375013401,0.122802734375,0.259826660156,-0.908630371094,0.303039550781
28375035917,0.107604980469,0.259094238281,-0.912963867188,0.296264648438
28375064421,0.09326171875,0.255432128906,-0.91748046875,0.290344238281
28375070599,0.0806884765625,0.251098632812,-0.921569824219,0.284973144531
28375093009,0.068359375,0.248291015625,-0.924865722656,0.279907226562
28375108096,0.0556030273438,0.246704101562,-0.927551269531,0.275268554688
28375130641,0.0435180664062,0.244873046875,-0.929992675781,0.270690917969
28375153095,0.0328979492188,0.242736816406,-0.932312011719,0.266052246094
28375168209,0.023681640625,0.239807128906,-0.934631347656,0.261657714844
28375190643,0.01513671875,0.2373046875,-0.936462402344,0.257873535156
28375215945,0.00714111328125,0.236083984375,-0.937744140625,0.254638671875
28375235632,-0.00018310546875,0.234985351562,-0.938720703125,0.252136230469
28375250659,-0.0072021484375,0.237121582031,-0.938720703125,0.250183105469
28375268409,-0.0114135742188,0.237182617188,-0.93896484375,0.248901367188
28375290928,-0.0171508789062,0.240905761719,-0.938354492188,0.247314453125
28375318095,-0.0211791992188,0.244689941406,-0.937683105469,0.245910644531
28375328423,-0.0235595703125,0.247497558594,-0.937072753906,0.245178222656
28375348180,-0.0245361328125,0.249938964844,-0.9365234375,0.244750976562
28375370696,-0.0252075195312,0.251525878906,-0.936157226562,0.244323730469
28375393093,-0.0256958007812,0.252685546875,-0.935913085938,0.244079589844
28375415553,-0.0264892578125,0.253112792969,-0.935791015625,0.244201660156
28375438049,-0.0277709960938,0.253295898438,-0.935668945312,0.244201660156
28375448407,-0.0294799804688,0.253051757812,-0.935729980469,0.244018554688
28375468041,-0.03125,0.252502441406,-0.935913085938,0.243591308594
28375490624,-0.032958984375,0.252014160156,-0.936096191406,0.243286132812
28375508395,-0.034912109375,0.252136230469,-0.935974121094,0.243286132812
28375528013,-0.037109375,0.251953125,-0.935913085938,0.243408203125
28375550681,-0.039794921875,0.25146484375,-0.935913085938,0.243347167969
28375568420,-0.0431518554688,0.25146484375,-0.935913085938,0.242980957031
28375589419,-0.0470581054688,0.252319335938,-0.935607910156,0.242492675781
28375610574,-0.0516357421875,0.25439453125,-0.934997558594,0.241821289062
28375628338,-0.0570068359375,0.257568359375,-0.934143066406,0.240356445312
28375649444,-0.0632934570312,0.261291503906,-0.933288574219,0.23828125
28375670664,-0.068603515625,0.263427734375,-0.932983398438,0.235534667969
28375695895,-0.0729370117188,0.266662597656,-0.932312011719,0.233215332031
28375716928,-0.0763549804688,0.271240234375,-0.93115234375,0.231506347656
28375730550,-0.0791625976562,0.276123046875,-0.9296875,0.230651855469
28375748350,-0.0813598632812,0.280456542969,-0.928283691406,0.230407714844
28375770952,-0.081787109375,0.283142089844,-0.92724609375,0.231079101562
28375790600,-0.0814819335938,0.2841796875,-0.926635742188,0.232238769531
28375808367,-0.0812377929688,0.283081054688,-0.926818847656,0.23291015625
28375829403,-0.0817260742188,0.280151367188,-0.927673339844,0.232971191406
28375850710,-0.0823974609375,0.276794433594,-0.9287109375,0.232666015625
28375875901,-0.0830078125,0.274108886719,-0.929443359375,0.232727050781
28375889442,-0.0834350585938,0.272705078125,-0.929748535156,0.233032226562
28375918130,-0.0838012695312,0.272338867188,-0.9296875,0.233459472656
28375928407,-0.0840454101562,0.272583007812,-0.929565429688,0.233764648438
