27494574943,2,-1,-4,-3,1,4,5,-1
27494574943,2,0,-3,0,1,-1,1,2
27494575748,-2,0,0,-1,1,3,1,5
27494575748,1,2,1,0,1,0,3,0
27494579817,0,-1,2,1,0,-2,-5,-14
27494579817,2,0,-6,-2,-3,-1,2,7
27494582670,-1,0,6,0,0,-2,-3,-2
27494582670,0,0,-2,-1,0,0,0,0
27494585689,-3,1,-1,0,-1,-2,-2,-7
27494585689,-8,-2,0,-3,-3,-3,-4,-4
27494594423,19,0,-4,-2,-1,-1,1,21
27494594423,0,-2,0,-2,-1,-5,-8,-10
27494617568,3,1,-2,-4,0,0,6,14
27494617568,-3,-1,1,0,0,1,0,2
27494619622,-3,0,-2,-1,-3,-3,-3,-10
27494619622,-1,1,-1,0,-2,-2,-3,-2
27494631108,-1,-4,-1,-1,0,-1,2,11
27494631108,6,-3,1,0,3,1,-4,-22
27494648222,-36,-11,-3,-2,0,-1,6,11
27494648222,2,2,2,-2,-1,-1,1,-7
27494651112,-5,0,1,0,2,1,1,-6
27494651112,6,2,1,-1,-2,0,-2,10
27494668106,5,1,-1,-1,1,0,0,3
27494668106,-13,-5,-5,0,0,-1,-3,-12
27494701532,-1,-3,-5,-2,0,3,6,4
27494701532,-2,2,2,-1,-2,0,-3,-2
27494702400,-4,-2,-1,-1,-1,0,-2,-4
27494702400,-1,-3,-4,-3,-2,-2,-3,-3
27494706128,2,0,1,1,-1,-4,-6,-2
27494706128,-4,-6,-5,-4,-5,-3,-2,1
27494706881,4,-1,-4,-2,-2,-1,-4,4
27494706881,-6,1,0,-1,-2,0,1,-6
27494721867,2,-1,1,0,0,1,-1,-7
27494721867,2,-2,-3,-1,1,0,1,-3
27494728051,-7,-2,0,0,-1,-3,-4,-10
27494728051,3,-2,0,-1,-3,-2,-4,3
27494735516,-2,-2,-2,-2,0,-3,-4,1
27494735516,-6,-3,-1,0,-2,-6,-2,2
27494744376,-4,-3,-1,-1,4,10,16,1
27494744376,0,1,1,1,3,5,3,-6
27494758647,1,7,5,3,1,1,2,4
27494758647,5,2,1,1,0,-1,-2,5
27494773674,7,-4,-4,-1,-1,0,3,16
27494773674,0,12,8,1,0,1,3,-2
27494774342,13,-1,0,-1,-1,0,-1,5
27494774342,-5,0,0,0,1,1,-2,-13
27494796217,15,3,-1,0,0,-1,1,23
27494796217,-6,-11,-9,-4,-2,-2,-1,-1
27494796916,2,0,0,0,-3,-1,-1,0
27494796916,2,0,-1,-2,1,1,0,-15
27494819272,-1,0,-1,-2,-3,-3,-3,9
27494819272,-13,-5,-1,-1,-1,-2,-3,-5
27494820017,-2,0,-1,-2,-2,-1,-2,10
27494820017,-2,-1,-1,-2,-1,3,8,6
27494833569,-5,0,4,0,-1,0,-3,-18
27494833569,-2,0,-1,-2,0,-2,-1,-3
27494834366,3,-2,-3,0,-2,-2,-2,-10
27494834366,5,1,-3,-2,0,0,-2,5
27494856050,1,-5,-4,-1,0,-4,0,17
27494856050,-7,-10,-5,1,0,1,-2,-5
27494856884,3,23,14,-2,-3,-4,-2,-5
27494856884,-7,-5,-2,-1,-1,-1,-2,-2
27494879225,-2,-5,-1,-2,1,1,2,-7
27494879225,8,2,-6,-4,-3,-3,-2,3
27494879969,-7,-9,-3,1,2,2,4,1
27494879969,2,-2,-2,-1,-2,-3,-2,6
27494893631,-5,4,4,1,-1,-1,-5,-19
27494893631,3,-4,-2,0,2,1,0,6
27494894324,-10,-11,-11,-6,-3,-1,2,7
27494894324,-7,-7,-1,-1,-2,-4,-3,10
27494916320,2,4,4,1,-1,0,-2,-6
27494916320,6,3,0,-1,1,0,0,-8
27494916928,1,3,-1,2,0,-3,-2,-6
27494916928,-6,-3,0,0,0,3,4,-1
27494939394,-4,2,-4,-4,-2,-4,-3,-6
27494939394,-2,-1,3,1,-3,-2,-3,2
27494940066,3,1,-2,-1,1,0,1,1
27494940066,4,-5,-9,-2,0,0,-3,-4
27494953551,-2,-1,1,-1,0,0,0,-8
27494953551,-1,1,6,2,-1,-3,-1,6
27494954309,-1,2,-2,-1,-1,-1,-2,-7
27494954309,2,-12,-12,-4,-2,-1,0,4
27494976201,-2,6,1,-1,-2,-3,-1,-2
27494976201,4,10,14,2,1,-1,-1,2
27494976918,-1,-8,-13,-3,-2,0,-2,-6
27494976918,8,5,5,1,0,0,-1,2
27494999367,-5,-10,-7,-4,-1,-1,-1,-5
27494999367,-3,-7,-10,-1,-4,-3,-2,0
27495000036,-3,-1,10,5,2,0,-1,-7
27495000036,-3,18,20,-3,0,-1,-1,-5
27495013674,-9,-17,-27,-13,-4,-1,-1,3
27495013674,-8,-1,-13,-2,-2,0,-2,-18
27495014368,-10,-15,-11,-3,-1,0,0,8
27495014368,5,9,1,3,1,1,1,-2
27495036170,10,11,22,8,1,-1,0,8
27495036170,-15,-13,1,-3,-1,1,1,-4
27495036930,9,-4,-15,-5,-3,-3,-1,-10
27495036930,-1,24,18,4,2,0,-2,-6
27495059365,3,1,-3,1,0,-1,-1,6
27495059365,4,3,7,2,-1,-2,-1,2
27495060066,-8,-22,-7,-2,-2,0,-1,0
27495060066,1,15,2,-4,-4,-4,-1,-1
27495073649,2,0,-1,0,3,1,1,0
27495073649,-1,-2,8,4,1,1,-1,2
27495074341,-3,-7,-4,-1,-1,-2,-2,1
27495074341,2,0,3,2,0,-1,-2,-1
27495096338,-3,-9,-14,-8,-4,-5,-4,-4
27495096338,3,-4,-18,-10,-6,0,-1,1
27495096905,0,-5,-12,-6,-1,0,-1,0
27495096905,0,2,16,9,1,0,-1,2
27495119375,-4,1,9,4,1,1,-2,-6
27495119375,3,9,3,-1,1,-1,1,9
27495120040,-3,-3,-2,-9,-5,-3,-3,-2
27495120040,1,-10,-4,0,-2,-2,-4,-10
27495133636,-4,0,-1,3,3,2,1,-6
27495133636,3,-2,0,5,-2,0,1,-4
27495134391,2,9,-5,-2,0,0,-2,-2
27495134391,2,-12,-17,-11,-4,-3,1,12
27495156176,-1,-2,-7,-6,-1,1,1,1
27495156176,2,-2,-6,-7,-6,-4,-4,-4
27495156920,0,20,38,22,7,3,1,-2
27495156920,-7,-16,-12,-2,-3,-3,0,-4
27495179554,-1,17,37,8,-2,-3,-6,-18
27495179554,-8,-8,-17,-9,3,2,0,2
27495180048,0,-9,-17,-9,-5,0,0,3
27495180048,-4,-5,-7,-6,-1,3,0,-2
27495193077,2,-4,-6,1,-4,-4,-2,5
27495193077,7,14,23,10,5,1,-1,-3
27495201224,-4,-8,-3,0,-3,-3,-2,-3
27495201224,-5,5,-3,2,1,-1,-3,-6
27495216148,-6,-9,-29,-30,-14,-5,-2,-4
27495216148,2,-13,-25,-4,-2,-2,1,4
27495216809,3,35,54,38,18,7,1,0
27495216809,0,-4,-22,-4,2,1,2,1
27495239247,-1,-11,-11,-3,-3,-3,-2,5
27495239247,-5,-4,-3,-11,-10,-7,-4,-1
27495240045,2,-9,-26,-16,-6,-2,-4,2
27495240045,-2,-2,13,0,1,-2,-2,-2
27495253499,-4,4,5,2,0,-1,-1,-3
27495253499,-4,-7,-7,-1,-6,-4,-1,-2
27495261167,2,5,19,-14,-10,-6,-3,2
27495261167,-5,3,9,1,-2,-1,-2,-5
27495276179,9,0,-11,-10,-5,-3,-2,2
27495276179,3,-5,-15,-9,-7,-4,0,5
27495276955,-7,-10,7,31,29,14,6,-1
27495276955,5,2,-4,-5,2,3,4,3
27495299396,-5,-17,-22,-1,1,-1,0,0
27495299396,6,19,38,0,-3,-5,-5,-4
27495300095,2,2,-7,-7,-7,-3,-2,0
27495300095,-4,-9,-8,-12,-15,-9,-6,-5
27495312952,-5,0,-2,13,6,6,2,1
27495312952,7,-3,-4,12,17,10,5,7
27495321221,-8,0,1,-1,-6,-3,0,2
27495321221,5,3,-6,-4,1,-1,-2,-3
27495336174,-6,-2,13,-20,-16,-12,-3,-7
27495336174,-23,-19,-30,-16,-15,-10,-6,-10
27495336793,-1,12,13,14,6,2,3,2
27495336793,12,-2,-4,6,6,6,5,5
27495359221,6,16,28,26,18,8,1,3
27495359221,-3,3,-2,-2,-2,-3,-1,0
27495360021,2,-12,-27,-23,-13,-7,-4,-7
27495360021,-8,-7,-16,-7,-6,-4,-2,-6
27495373030,-6,-9,2,11,7,2,1,0
27495373030,8,16,18,3,-2,0,-1,2
27495381126,-3,-11,-7,-11,4,3,2,0
27495381126,3,12,27,-2,-12,-9,-6,0
27495396078,-1,-6,-16,-7,-12,-6,-4,-4
27495396078,6,14,12,12,16,8,1,1
27495396927,-6,0,8,2,-5,-2,-2,-1
27495396927,1,-4,6,19,25,13,5,3
27495419323,-1,-10,-6,-9,-8,-6,-4,-4
27495419323,0,2,-1,-2,-9,-4,0,1
27495420015,0,8,-6,-17,-10,-7,-4,-3
27495420015,-10,-7,3,1,-4,0,-2,-4
27495433065,-8,-11,-10,-2,-1,0,-2,-4
27495433065,7,3,-4,-6,-5,-2,0,0
27495441215,2,-3,-13,-4,-1,0,0,0
27495441215,-2,11,14,5,-3,-4,-2,-2
27495456140,-2,3,10,8,9,5,2,5
27495456140,-8,-9,1,-2,-2,0,1,-4
27495456843,1,-8,-15,-14,-13,-6,-3,-2
27495456843,0,-21,-11,3,0,-2,1,3
27495479383,5,11,13,19,13,6,2,2
27495479383,1,2,12,8,5,3,0,1
27495480046,-8,-22,-25,-14,-11,-7,-2,-4
27495480046,-2,-2,2,-1,3,2,4,3
27495493044,-2,1,-12,-8,-8,-4,-3,-5
27495493044,6,19,20,15,16,9,5,4
27495501260,2,2,6,0,0,-3,-3,0
27495501260,-4,-6,-15,-16,-11,-8,-10,-4
27495516180,-3,-2,3,0,-2,-1,3,-6
27495516180,-1,-6,-8,-4,-2,-1,-3,-4
27495516919,0,1,4,-6,-4,-1,1,-2
27495516919,-2,-4,1,3,0,0,-2,0
27495539327,5,16,10,10,4,-6,-8,-2
27495539327,-6,-10,-9,2,0,5,3,5
27495540024,-9,-1,-6,-9,-3,1,3,-5
27495540024,-8,-8,-9,-6,-5,-3,-2,-7
27495553081,14,4,-1,3,6,5,7,12
27495553081,-1,1,15,7,-1,-6,-4,-1
27495561236,-7,-5,-17,-6,2,0,-3,0
27495561236,-4,-1,-4,3,-5,-5,-5,-2
27495576186,-1,3,23,-1,-2,-1,-3,-4
27495576186,1,-2,-3,-11,-4,-3,-1,-2
27495576819,1,2,-6,-1,-7,-2,-2,1
27495576819,4,-3,-5,11,10,3,0,1
27495599356,6,1,-6,-7,-8,-5,-4,0
27495599356,-4,-5,0,2,0,0,-1,-4
27495600111,-3,-4,-10,-15,-7,-3,-2,-2
27495600111,-7,7,21,3,-3,1,4,-1
27495629466,4,-7,-11,-1,0,-3,-3,2
27495629466,-6,2,-16,-9,-2,-3,-3,-2
27495630018,5,11,18,21,9,5,-2,-6
27495630018,1,-5,-15,-7,1,4,10,2
27495636146,-6,-6,13,-7,-8,-3,0,-4
27495636146,-5,-8,-5,-10,-10,-8,-5,-2
27495636925,1,2,13,19,13,2,-3,3
27495636925,5,6,9,8,3,-1,-3,0
27495659473,-5,-7,-20,-15,-6,-4,-6,-2
27495659473,2,1,-9,-5,-3,2,4,-1
27495660900,2,-6,1,6,5,0,-5,1
27495660900,2,8,4,-9,-5,-2,-2,2
27495681849,-6,4,-3,7,4,-1,-4,-5
27495681849,2,-15,-8,6,6,6,9,3
27495683332,1,10,-2,-12,-4,1,2,-3
27495683332,-8,-10,1,2,-4,-4,-4,-4
27495704377,3,7,12,10,8,3,-2,2
27495704377,-2,-4,-30,-20,-12,-6,-2,-1
27495705926,4,-2,11,-5,-7,-3,3,2
27495705926,-6,-4,-5,-6,-2,-3,-7,-5
27495717886,0,-2,-16,-13,-4,2,1,-3
27495717886,-6,0,22,15,5,0,-1,4
27495726911,18,17,18,21,18,22,19,13
27495726911,-8,-7,-30,-13,-11,-12,-8,-10
27495757035,-2,-12,-57,-31,-10,-5,2,0
27495757035,-5,10,86,37,7,-4,-8,-7
27495758378,8,2,-15,-9,-11,-18,-11,0
27495758378,29,34,3,16,22,26,17,18
27495764361,-11,-25,28,1,-16,-14,-12,-4
27495764361,17,2,-46,-17,0,6,8,2
27495765808,-26,-9,13,4,3,7,0,-7
27495765808,3,-1,-6,9,8,7,11,2
27495778081,-3,-1,-40,-31,-10,-5,0,-4
27495778081,8,14,15,9,6,-2,-21,6
27495786907,-7,-13,20,17,-3,3,13,-3
27495786907,14,16,45,8,3,11,12,9
27495800991,-30,-21,-78,-43,-28,-23,-10,-12
27495800991,-3,-12,13,18,10,-2,-8,-6
27495809388,13,27,21,19,12,7,-3,2
27495809388,-11,-25,-33,-37,-19,-17,-18,-11
27495824197,-2,4,22,38,7,0,-2,-1
27495824197,-3,18,15,-15,-6,2,4,-4
27495830393,-13,-15,-20,-14,-8,-12,-12,-9
27495830393,-15,-25,-35,-13,-18,-19,-11,-4
27495837845,-4,2,46,13,9,6,2,-2
27495837845,29,3,-42,-29,-12,-3,4,9
27495846882,-18,1,8,16,9,11,0,-19
27495846882,11,7,-17,-15,3,6,9,23
27495862126,3,2,19,4,2,3,0,-2
27495862126,-15,-27,-78,-34,-21,-22,-11,-8
27495867916,15,11,40,24,8,-5,-5,-2
27495867916,-10,17,57,34,10,7,3,-10
27495884253,14,10,-1,7,12,14,12,11
27495884253,-7,-8,-48,-25,-8,3,5,-3
27495885926,-7,-18,-15,-26,-21,-19,-14,-6
27495885926,8,6,7,2,-2,-9,-12,-2
27495898498,9,8,24,27,17,15,13,12
27495898498,-4,1,2,0,0,5,3,-5
27495906895,-13,-6,-17,-13,-11,-11,-9,-2
27495906895,-20,-31,-22,-22,-14,-9,-6,-11
27495921773,7,12,21,-9,-7,-6,-6,-6
27495921773,-8,-7,-3,19,11,1,-1,1
27495923323,10,-3,2,-1,6,3,4,12
27495923323,-6,-8,-15,14,12,14,11,-9
27495952449,-8,2,7,2,-7,-5,-4,-3
27495952449,2,-11,6,-24,-35,-48,-37,-12
27495954044,-5,-6,-32,-10,7,18,26,-1
27495954044,-14,1,10,4,-3,-6,-5,0
27495958067,6,-12,-107,-43,-11,0,2,5
27495958067,0,17,121,51,18,19,15,0
27495966911,-22,-33,-96,-48,-25,-32,-28,-12
27495966911,11,2,0,-8,-11,-9,-2,4
27495981170,10,9,1,2,4,6,4,3
27495981170,-11,-13,-2,13,13,3,-6,-4
27495988049,7,14,16,4,7,15,12,6
27495988049,-6,-12,2,-5,-9,-23,-30,-11
27496004321,-1,2,47,34,11,10,9,9
27496004321,14,10,-60,-32,-2,13,12,2
27496005856,0,8,57,28,9,7,4,8
27496005856,-5,2,-11,-5,-3,0,2,4
27496017954,-5,-7,-6,-5,-7,-14,-15,-12
27496017954,-5,-21,-4,13,5,3,3,1
27496034382,8,25,29,8,2,2,3,6
27496034382,7,0,-16,-5,-2,-2,-5,0
27496041212,-1,14,44,10,2,-1,12,4
27496041212,-2,-2,-9,-8,4,13,11,5
27496055480,-9,-18,-32,-10,-10,-13,-16,-10
27496055480,-2,-2,6,-24,-29,-28,-18,-11
27496064272,-8,-16,19,16,3,7,4,-1
27496064272,4,13,-6,-6,-4,-19,-18,-7
27496065938,-3,-6,-31,-18,-5,4,0,0
27496065938,8,11,47,38,19,13,5,2
27496086725,-2,-21,-41,-28,-9,-2,-3,3
27496086725,-18,-22,-23,-18,-21,-18,-10,-10
27496088306,11,19,49,28,9,-1,-6,0
27496088306,6,7,-20,11,15,13,6,1
27496101267,16,7,7,-8,-2,0,-5,2
27496101267,-29,-16,-17,-3,1,11,10,0
27496108089,-1,3,31,13,4,-5,-9,-3
27496108089,-4,1,-18,-20,0,15,27,-7
27496124357,8,14,26,26,6,0,-14,2
27496124357,12,12,28,3,3,17,30,15
27496125973,-11,-10,-11,-19,-15,-14,-6,-3
27496125973,7,1,3,10,13,8,7,8
27496146817,0,9,56,14,4,-2,-7,-7
27496146817,0,3,9,8,4,10,7,0
27496148332,4,-8,-44,-28,-21,-27,-13,-3
27496148332,4,14,29,12,0,-3,-5,2
27496161172,-5,-7,-21,-10,9,11,6,0
27496161172,-19,-21,-17,-5,-13,-29,-28,-17
27496168190,16,17,10,-4,4,5,-4,3
27496168190,11,8,9,21,10,20,27,12
27496184348,-17,-11,-25,-15,-16,-14,-7,-13
27496184348,9,7,20,7,9,12,9,9
27496185919,-7,-3,-12,4,8,16,3,-1
27496185919,9,-8,-30,-22,-14,-14,8,10
27496205923,-12,11,35,26,5,-3,-4,-3
27496205923,-5,-9,-40,-9,3,3,2,-4
27496214362,3,-1,22,22,17,20,6,-12
27496214362,-16,-54,-83,-31,-16,-13,-16,9
27496221173,1,39,45,5,4,6,12,1
27496221173,16,19,-33,10,-2,-2,-4,2
27496235395,-13,-7,-30,-24,-12,-6,5,8
27496235395,-2,-9,43,25,13,5,-11,-18
27496244403,-27,-31,-55,-39,-22,-38,-38,-23
27496244403,-5,-26,-22,-15,-11,-2,14,3
27496245913,-8,-4,-10,3,6,8,10,-6
27496245913,1,27,92,37,9,-4,-3,-3
27496266818,7,-9,-67,-16,5,12,14,6
27496266818,-8,10,50,21,0,1,-7,6
27496268308,11,-27,-25,-27,-19,-19,-12,6
27496268308,-13,20,10,-23,-14,-12,-15,-15
27496289382,-11,-20,-30,8,4,9,9,-6
27496289382,2,24,61,15,5,3,0,11
27496290914,11,-2,31,16,12,13,8,-1
27496290914,-17,-19,-62,-40,-22,-36,-46,-32
27496304318,8,-8,-34,33,21,28,31,20
27496304318,-13,-2,15,-21,-15,-20,-15,-7
27496305917,1,12,29,18,6,2,-4,3
27496305917,18,15,17,7,11,19,21,13
27496327226,15,8,3,-7,-7,-11,-17,-8
27496327226,-17,-17,-27,-18,-3,-1,-2,-12
27496328444,-5,-6,39,13,-3,-5,-2,3
27496328444,-14,-17,-71,-12,-7,-3,4,-10
27496340345,6,-4,-5,-10,-7,-4,-7,3
27496340345,24,27,46,32,20,22,15,12
27496349390,4,-9,-86,-66,-28,-16,-2,-1
27496349390,-16,2,13,-1,-6,-7,-9,-7
27496364223,-15,1,46,23,3,-13,-24,-8
27496364223,11,3,9,20,7,3,6,-3
27496365892,13,5,-31,7,4,13,19,17
27496365892,12,10,4,5,3,8,2,6
27496386819,-8,-20,-55,-25,-6,4,10,-5
27496386819,-4,-1,-10,-4,-11,-25,-24,-2
27496388317,-6,-13,13,-5,1,-4,4,-5
27496388317,-9,3,38,25,6,5,-2,-4
27496400481,11,13,34,-1,-8,-6,-1,9
27496400481,-14,-22,-35,-21,-8,-10,-15,-25
27496409383,0,12,0,2,7,6,6,0
27496409383,8,-15,14,3,0,-5,-2,7
27496424368,-10,0,2,-7,-4,4,-2,-8
27496424368,-1,-13,-31,10,12,8,0,7
27496425899,-5,11,34,21,1,-1,3,-13
27496425899,5,6,-12,-22,-15,-13,-3,-2
27496446572,0,-6,-2,5,-10,-16,-7,-4
27496446572,0,-11,-16,-2,10,12,10,3
27496452919,-11,-22,-52,-9,-5,-7,-7,0
27496452919,4,-3,-43,-1,10,21,19,12
27496461142,7,22,76,29,-2,-9,-2,3
27496461142,5,29,19,1,-2,-14,-21,-20
27496467962,1,-7,-1,2,-2,1,-9,1
27496467962,0,4,29,-6,0,6,6,0
27496484890,-3,4,-18,-21,-9,-17,-12,-6
27496484890,10,-5,-10,0,4,5,-4,4
27496486488,8,20,34,23,5,15,28,3
27496486488,-4,-15,-18,-13,-3,2,4,-8
27496514336,12,-4,-16,-3,5,6,7,14
27496514336,-17,-7,17,2,0,3,3,-6
27496515935,-5,2,-22,2,2,-4,-15,-5
27496515935,-6,27,38,-4,-9,-10,-13,0
27496521232,-7,-13,-11,-1,13,21,11,-4
27496521232,5,18,39,5,-7,3,8,2
27496528085,16,31,39,24,18,16,8,19
27496528085,-4,-19,-51,-16,-4,-5,-2,-2
27496544322,5,-2,-16,-16,-4,-1,-4,1
27496544322,12,13,32,20,9,3,2,7
27496545913,-30,-1,50,5,-14,-24,-18,-20
27496545913,-11,-5,6,24,7,1,-3,7
27496566790,9,6,-15,-16,-6,3,6,-11
27496566790,-1,-45,-112,-73,-27,-16,-7,-2
27496568300,0,19,61,40,16,8,7,-1
27496568300,18,-4,-57,-13,6,-1,-11,19
27496589418,-31,-23,13,9,-7,-2,11,-5
27496589418,9,25,-15,0,-1,6,10,-5
27496590922,-5,-27,-12,-21,-5,-6,-12,3
27496590922,8,-7,-23,1,3,-1,12,8
27496604485,2,18,35,14,11,9,5,-1
27496604485,10,-10,-4,7,-1,-6,-6,5
27496605914,-4,-1,-29,-2,-3,-3,-2,-4
27496605914,-3,3,2,-4,-1,4,-2,-11
27496627560,-7,-7,-22,-22,-25,-34,-25,-7
27496627560,-1,-23,-44,-36,0,10,16,11
27496629025,-8,14,67,74,27,-4,-30,-13
27496629025,-12,-7,-3,-16,-19,-24,-2,-9
27496640488,19,4,-2,-7,14,35,29,19
27496640488,5,-18,-51,1,-10,-6,-4,13
27496655495,-20,-16,-38,-51,-29,-25,-16,-25
27496655495,-6,9,-17,-2,12,25,17,0
27496664324,25,-19,-4,-4,2,-4,-10,2
27496664324,-30,-6,8,2,-13,-30,-21,-17
27496665825,19,-10,-4,-1,16,27,22,23
27496665825,-20,-2,-19,1,-9,-8,-8,-26
27496686845,9,3,-54,-38,-7,2,8,23
27496686845,30,58,124,86,46,38,18,18
27496688354,2,-26,-117,-63,-13,7,14,11
27496688354,13,28,108,58,7,-16,-25,1
27496700485,-4,7,34,26,9,12,17,2
27496700485,-17,-12,25,-26,-19,-20,-7,-11
27496709354,14,10,-31,-10,-3,-4,-1,-3
27496709354,22,8,0,-14,-3,12,14,11
27496724353,-17,-29,-38,-27,0,11,8,3
27496724353,14,44,76,69,19,18,2,-5
27496725926,-4,-15,-26,-44,-28,-21,5,6
27496725926,-17,-23,27,-11,-8,-12,-14,-13
27496746785,28,43,43,55,11,-6,-8,6
27496746785,-46,-64,-102,-58,-20,5,-3,-15
27496748395,8,11,-15,-17,-15,-13,-8,4
27496748395,-6,-11,-34,-12,-10,-16,-3,-6
27496760386,-11,-10,18,2,-4,-16,-20,-20
27496760386,-11,10,84,49,4,-19,-28,-14
27496769383,20,-22,-104,-50,-12,1,13,4
27496769383,8,41,89,43,20,10,-19,10
27496784371,0,20,2,7,10,14,24,15
27496784371,9,5,-26,-27,-12,-11,2,0
27496785911,-34,-25,12,-4,-11,-11,-24,-29
27496785911,16,-22,-12,18,23,19,18,15
27496807272,1,48,63,34,12,3,-9,-5
27496807272,-1,-16,-38,-19,-3,12,18,3
27496813044,14,48,114,78,25,13,-5,-2
27496813044,-23,-47,-90,-38,-13,6,14,-8
27496820403,-37,-23,31,15,-12,-16,-22,-13
27496820403,1,-40,-128,-110,-27,-7,5,-8
27496829417,25,56,110,77,28,6,-12,12
27496829417,2,21,71,36,16,3,4,1
27496844183,-19,-6,-29,-5,14,23,9,-17
27496844183,2,1,35,14,-17,-24,-14,3
27496845785,-19,-27,-7,-4,-3,-19,-27,-35
27496845785,4,-20,-8,-30,-17,1,10,-7
27496866698,-35,-60,-94,-63,-20,-3,27,37
27496866698,10,-1,-42,-2,18,28,11,8
27496868283,8,16,1,2,-5,-6,6,1
27496868283,-30,-33,-69,-58,-19,-1,7,-5
27496889292,30,6,14,25,6,-11,-20,0
27496889292,-20,-13,11,-15,-11,-1,-11,-17
27496890844,28,3,8,49,20,21,40,27
27496890844,-12,45,55,2,4,-5,-23,-27
27496905008,21,16,-81,-31,-12,-16,-15,9
27496905008,32,35,93,46,38,44,46,39
27496906448,-38,-7,-29,-32,-13,-2,-10,-16
27496906448,39,-13,-30,-2,3,2,5,14
27496925962,-5,32,112,68,6,-28,-42,-20
27496925962,-27,-60,-69,-60,-52,-42,-12,-13
27496934358,-9,6,-10,-6,1,8,2,-3
27496934358,9,1,-24,-44,-20,-9,8,26
27496940416,-3,-33,-57,-40,-5,-5,-6,-9
27496940416,3,26,11,2,6,-11,-28,-23
27496949364,-24,-39,-52,-9,-5,1,6,-9
27496949364,-3,43,9,4,-2,-12,1,-11
27496964715,6,-19,89,43,8,21,5,-2
27496964715,-8,-32,-39,-7,-6,-6,14,0
27496970369,-10,-2,-26,-57,-20,-13,-4,3
27496970369,29,41,77,87,25,21,8,7
27496988695,-26,-19,24,21,-28,-51,-31,-4
27496988695,-4,-18,-5,23,17,16,6,-12
27496990287,39,32,31,-12,5,13,22,24
27496990287,-12,6,49,68,21,15,4,8
27497000370,9,-1,-35,-18,5,34,34,8
27497000370,0,-19,-44,-13,-20,-26,-18,1
27497009335,-10,50,82,89,25,-5,-14,-5
27497009335,-26,-28,-61,-51,-20,-12,-18,-19
27497024312,-2,-42,-128,-80,-16,2,4,-15
27497024312,8,76,119,43,16,5,4,21
27497025898,6,-20,32,50,35,37,28,12
27497025898,2,-19,-70,-28,-19,-24,-29,4
27497046840,-9,-14,-7,-12,-15,-18,-18,-23
27497046840,-6,-6,-18,-39,-34,-37,-6,-4
27497048331,2,-6,-1,-24,-13,-14,-14,3
27497048331,17,-11,-54,-2,24,41,49,46
27497069211,10,53,0,-36,-5,-10,-14,-10
27497069211,4,21,111,113,43,15,-3,4
27497070783,1,-42,-123,-87,-21,5,3,8
27497070783,17,21,112,23,3,-4,-6,-6
27497084329,2,-13,-91,-81,4,19,22,6
27497084329,4,54,106,99,20,1,-5,15
27497085910,-26,-37,-75,-17,-24,-29,-28,-31
27497085910,5,-22,-68,-64,-16,-2,2,-4
27497115092,-10,2,127,75,4,-13,-9,-5
27497115092,-17,7,-89,-39,-4,-10,-36,-35
27497116515,31,8,45,53,15,7,30,35
27497116515,-65,-18,-91,-53,-19,-33,-51,-53
27497129114,14,18,66,47,37,55,41,31
27497129114,35,14,-11,-22,7,32,78,46
27497135406,-34,-24,7,-21,-15,-14,-12,-16
27497135406,-11,-24,-33,-8,-13,-8,22,7
27497144265,9,42,16,18,-1,-8,-23,-24
27497144265,19,5,20,-28,-3,5,-1,10
27497145807,-24,-46,-32,-2,-5,-13,-28,-17
27497145807,-5,43,94,7,-6,-7,-9,-7
27497167474,-7,0,-1,-4,-8,-18,-16,-8
27497167474,-14,-59,-92,-64,-24,-10,-11,-13
27497168988,7,25,-8,-38,-21,-28,-33,-20
27497168988,-3,8,74,58,14,4,-4,-2
27497189330,-3,-22,-94,-23,-11,-18,-17,-5
27497189330,-22,-24,-36,-48,-13,2,-13,-16
27497190803,14,11,8,-10,7,4,3,5
27497190803,-28,-31,-39,2,-7,-7,-21,-9
27497205043,7,3,-28,-32,-23,-27,-16,-21
27497205043,-36,-17,3,4,-1,-1,17,-13
27497206495,-7,-35,-97,-53,-3,32,39,25
27497206495,66,70,86,59,29,18,18,35
27497226901,-37,-12,-1,15,0,-12,-42,-25
27497226901,32,10,-65,-57,6,18,25,12
27497228327,0,47,116,51,2,-12,-10,-5
27497228327,5,-33,-91,-51,-4,10,15,13
27497249282,11,3,81,58,27,16,3,9
27497249282,8,18,-34,-9,-1,0,4,2
27497250906,-1,14,74,-24,-16,-5,-1,-11
27497250906,8,-5,-42,-9,0,1,0,7
27497264300,10,20,14,-9,-13,-11,-2,1
27497264300,-51,-36,-28,11,2,-10,-31,-34
27497270512,-23,-24,17,60,20,-10,-23,-16
27497270512,20,-49,-90,-23,-23,-30,-38,9
27497286880,-19,2,-48,-44,-8,25,93,7
27497286880,30,-3,-34,-38,-21,-16,-4,32
27497288325,-1,-3,-20,-22,-12,-3,-8,3
27497288325,-9,14,77,76,38,12,15,-12
27497315920,11,-9,40,42,21,41,39,36
27497315920,-11,-17,-43,-50,-39,-40,-36,-33
27497325692,15,-4,-50,-27,9,12,17,22
27497325692,-16,54,67,33,2,-4,-13,-22
27497326560,7,-48,-7,7,-13,-14,-15,-9
27497326560,-6,24,59,64,19,7,-14,-8
27497337839,-15,7,-11,2,-5,-10,-12,-23
27497337839,-6,-35,6,4,-11,-25,-61,-9
27497346670,-32,-45,-94,-75,-39,-31,0,-27
27497346670,3,39,93,69,17,-2,-7,18
27497348268,-2,-23,-6,10,4,2,-17,-32
27497348268,-28,-26,-51,-56,-21,9,40,24
27497369202,23,21,35,7,-13,-31,-23,-15
27497369202,-12,-26,-48,-19,2,20,7,-9
27497370768,28,27,2,-4,-7,-9,3,18
27497370768,-41,-49,-7,-39,-7,-16,-21,-32
27497384158,-2,21,57,69,38,32,10,7
27497384158,17,6,19,14,1,5,24,24
27497398041,9,-8,-98,-85,-21,-4,0,5
27497398041,2,-12,18,18,7,-12,-15,-22
27497407252,0,19,4,9,15,16,10,19
27497407252,-38,-68,-87,-62,-29,-17,-15,-27
27497412951,12,48,84,60,7,10,9,17
27497412951,14,-13,-52,-52,-13,9,18,0
27497429462,-6,12,30,7,5,-4,-25,-9
27497429462,-38,-31,-5,8,-19,-40,-55,-52
27497430814,1,-43,-74,-69,-16,3,1,21
27497430814,-4,-7,-14,-34,-29,-13,9,-7
27497443620,-6,6,-15,-1,10,2,-28,-29
27497443620,58,47,13,22,17,19,32,54
27497450502,-12,-16,17,7,9,11,26,31
27497450502,10,53,49,42,11,7,-19,-15
27497466836,30,35,92,6,18,27,38,44
27497466836,3,34,82,80,27,5,-8,-21
27497468335,-16,8,10,-8,-1,-11,-15,-20
27497468335,-4,-7,31,4,-9,-7,2,2
27497489348,-3,-33,-101,-33,-6,2,3,11
27497489348,8,36,56,32,16,14,-1,-4
27497490822,3,5,36,38,17,20,26,4
27497490822,43,36,-25,2,16,23,24,30
27497503542,-23,-22,-52,-45,-31,-40,-57,-39
27497503542,-16,-16,4,-8,7,31,67,37
27497510494,6,-40,-68,-24,-3,-7,-25,-3
27497510494,2,-9,-36,-54,-21,-14,30,9
27497526898,18,58,68,86,30,7,-8,16
27497526898,12,31,38,-11,15,18,12,5
27497528290,-20,0,-52,-35,-7,-3,4,-22
27497528290,6,-3,46,18,-1,6,14,12
27497549334,6,27,12,54,1,-19,-17,-9
27497549334,-31,1,28,3,-5,-16,-27,-29
27497550811,10,10,-25,-45,-15,-2,6,9
27497550811,-23,-33,-47,-14,-3,-8,-24,-12
27497562983,6,-16,-32,-25,-6,1,4,-3
27497562983,-9,-22,-41,-26,-13,-16,-44,-16
27497571905,-6,21,52,3,-5,-14,-33,-14
27497571905,6,18,-4,31,17,12,24,7
27497586708,-5,-20,-24,-17,22,58,102,61
27497586708,37,-43,-116,-56,-8,-5,-3,32
27497588299,15,32,72,87,26,6,-1,-2
27497588299,-11,11,71,51,12,0,-26,-19
27497609249,-19,-20,-10,-30,-18,-14,-15,-16
27497609249,0,-16,-43,-36,-12,-8,-3,-9
27497610885,-6,-10,-52,-14,-6,-3,-3,-5
27497610885,10,40,41,18,5,6,10,6
27497622942,7,15,29,71,39,12,2,3
27497622942,8,31,-18,10,0,1,-3,3
27497631909,-9,-9,-6,-2,-8,-11,-11,-10
27497631909,-2,-43,-107,-72,-22,3,15,1
27497646851,-15,3,35,-6,-20,-35,-52,-22
27497646851,5,18,64,38,11,13,38,1
27497648300,-9,-34,-72,-46,-19,1,15,19
27497648300,-22,-5,23,47,19,1,-32,-30
27497669736,13,-19,-44,-38,-12,6,49,42
27497669736,-2,31,41,13,5,0,-6,-15
27497675509,-4,-15,8,15,2,-1,2,-8
27497675509,1,-14,-27,-14,-5,-2,-5,2
27497682975,-5,-11,-58,-49,-13,-10,-18,-15
27497682975,-2,1,8,-29,-1,-1,-4,4
27497691943,16,44,127,59,23,13,16,6
27497691943,-8,-23,-68,-37,-9,-6,-9,0
27497706795,2,-21,-62,-66,-16,-1,-2,-4
27497706795,5,9,57,51,17,5,3,6
27497708288,-7,-3,-15,1,2,0,-12,-10
27497708288,-10,-16,-33,-21,-13,-5,4,0
27497729342,10,-15,-27,-25,-18,-17,-21,-5
27497729342,-8,-14,-65,-18,-7,-21,-47,-31
27497730805,19,26,44,35,16,20,37,29
27497730805,-1,0,8,8,11,13,19,8
27497751783,-9,2,-12,-10,-12,-9,-10,-10
27497751783,-3,-6,20,11,-2,-5,-4,12
27497753327,-3,0,-14,17,3,-6,-14,-14
27497753327,3,22,12,-14,-4,-5,-1,-3
27497766726,-4,-6,10,5,0,-1,-6,8
27497766726,-3,-8,28,26,4,7,9,-5
27497768332,-2,7,-18,-25,-5,-5,-3,-3
27497768332,3,18,54,32,10,4,4,6
27497789367,-1,-4,31,23,5,2,-3,-5
27497789367,-5,-17,-41,-24,-6,3,5,2
27497790808,-8,-32,-31,-23,-11,-5,3,-3
27497790808,-1,15,8,7,3,-4,-10,-4
27497802966,-3,8,27,29,8,2,-1,-10
27497802966,8,7,-18,-3,4,8,8,15
27497828818,1,17,47,20,-2,-9,-11,-8
27497828818,2,-7,-20,4,3,7,8,-15
27497829643,-1,-6,-26,-12,-5,-3,-3,24
27497829643,9,-9,-22,-9,-5,-12,-3,23
27497840342,-3,-8,-10,6,8,21,28,-9
27497840342,-2,-6,-8,-2,-2,-4,-4,-4
27497849191,1,3,-4,-11,-3,4,7,-8
27497849191,-5,-2,16,6,0,-4,-13,-10
27497850801,-4,-15,26,0,-3,-8,-10,-2
27497850801,3,9,4,-38,-11,-5,-3,0
27497862948,1,-3,37,33,11,5,2,0
27497862948,4,10,29,2,-2,3,8,1
27497872557,2,10,-12,-4,-3,-5,-4,2
27497872557,-4,-25,-18,-8,0,4,6,4
27497887438,-2,28,10,3,-3,-7,-9,-9
27497887438,-2,0,-9,-7,0,5,5,-4
27497888958,-7,-25,-32,-5,-2,-1,1,1
27497888958,4,6,17,22,7,-3,-9,2
27497909498,0,3,-13,-11,-6,-4,-5,-16
27497909498,1,-10,-6,-8,-6,0,3,22
27497910894,-2,-2,-14,-6,-3,-2,-2,-8
27497910894,-5,1,-7,4,2,0,-2,7
27497922938,-2,3,3,-1,0,5,13,0
27497922938,-1,0,-8,-7,-1,0,0,-9
27497931905,4,5,6,0,-2,-5,-7,0
27497931905,-2,-9,-2,5,1,-2,-2,2
27497945853,-6,-26,-21,-6,-2,-1,-4,-6
27497945853,-1,10,4,-3,-1,1,0,-1
27497954323,1,11,23,12,3,0,-2,2
27497954323,-2,-2,0,1,-1,-1,-1,-2
27497969219,-3,-6,-8,-13,-6,-1,-2,0
27497969219,0,-7,-1,6,1,1,2,-3
27497970808,-6,-14,-24,-9,-2,-1,-4,0
27497970808,1,15,7,-1,-3,0,0,1
27497982949,-1,-4,9,10,5,1,-1,0
27497982949,-3,-8,-9,-7,-4,-4,-1,-4
27497991817,-4,-21,-15,-4,-2,-3,-4,-3
27497991817,4,20,-4,1,-4,-3,-3,2
27498006009,2,5,-19,-7,-3,-3,0,0
27498006009,-4,-4,-1,5,2,-1,-1,-5
27498013011,-3,2,-1,-5,-2,-4,-5,-3
27498013011,6,-4,0,-1,-1,-3,-1,1
27498029480,-7,-10,6,-4,-2,3,6,0
27498029480,2,11,22,-1,1,5,7,-3
27498030901,-2,-7,18,-2,-2,0,-1,-1
27498030901,-4,-6,12,1,0,-3,-3,-1
27498051791,5,1,-1,0,0,-2,-5,-2
27498051791,-8,-17,-6,-4,-3,-1,-2,-2
27498053309,-5,17,-13,-4,0,0,1,1
27498053309,0,8,0,7,2,2,0,0
27498066145,-1,0,6,5,-2,-2,-2,1
27498066145,0,-9,-21,-14,-5,-2,0,-4
27498073046,3,0,10,13,9,4,0,-4
27498073046,-1,-7,-7,0,-1,-1,-1,5
27498089276,-5,3,-6,-5,-3,-3,1,8
27498089276,1,-5,-16,-9,-3,-3,-2,-3
27498090786,1,8,-21,-5,-6,-3,-3,-3
27498090786,-1,-4,-9,6,2,0,0,1
27498111931,2,-2,-5,1,4,2,-3,-8
27498111931,-5,3,7,6,2,1,1,2
27498113303,7,-2,-5,-8,-5,-5,-3,2
27498113303,-9,-3,16,-2,-2,-1,0,-16
27498126152,-3,0,22,-3,-3,-2,-3,-7
27498126152,2,8,14,1,-2,-1,1,6
27498133794,-5,-2,11,3,-2,0,-2,-1
27498133794,-5,-24,-8,-6,-1,0,-1,1
27498148593,1,2,-4,3,2,0,0,-1
27498148593,3,23,7,2,1,2,1,-2
27498149342,-2,-14,-15,-8,-6,-3,-1,0
27498149342,1,0,-3,-2,0,-2,-2,-1
27498171231,-3,-6,-6,-1,1,-1,0,5
27498171231,0,0,0,7,1,0,-3,2
27498171761,0,2,-2,-2,-3,-2,-2,1
27498171761,-2,-8,-6,-2,-3,-2,0,-2
27498185452,0,1,-4,-1,-3,-2,-3,-3
27498185452,0,1,-3,-1,-2,-2,-3,-3
27498201158,-1,3,2,1,2,3,1,-4
27498201158,0,-1,-4,-3,-4,0,0,2
27498208567,-2,-11,-9,-5,-7,-4,-3,-3
27498208567,1,3,2,3,3,-1,-2,-3
27498209270,-5,-2,1,-1,-2,-2,-2,-11
27498209270,13,25,16,5,3,5,8,19
27498231092,-3,5,3,-3,-1,0,-1,-6
27498231092,-4,-8,-3,0,-2,0,0,-2
27498231820,-3,-10,-3,-2,-3,-3,-3,-4
27498231820,-3,-4,-12,-3,-1,-3,-2,-3
27498254174,2,-5,-13,-4,-2,0,-1,2
27498254174,1,14,18,2,-2,-2,-2,-3
27498254962,-1,-2,10,3,1,-1,1,3
27498254962,1,18,12,7,5,3,-2,-2
27498276493,1,-3,-3,0,0,1,1,0
27498276493,-3,-14,-12,-3,-2,-2,-1,-5
27498283583,-1,-2,-9,-7,-6,-1,-1,4
27498283583,-6,-14,-7,-8,-7,-4,-2,-5
27498291476,0,5,3,4,1,-1,-3,-3
27498291476,1,1,3,3,1,2,0,0
27498306793,3,4,-8,-3,0,0,0,4
27498306793,-4,-6,3,6,0,-1,0,-4
27498308302,-2,-5,1,0,-1,1,-2,0
27498308302,-3,-3,-4,-3,-4,-2,0,0
27498313661,0,9,-2,-5,-2,-2,-2,-6
27498313661,-2,-4,-3,2,5,2,-1,8
27498328679,-2,-4,-3,-5,-2,-4,-1,0
27498328679,0,-14,-5,-3,-2,-2,-1,-1
27498329325,-1,-3,2,6,2,0,0,0
27498329325,-2,17,0,-6,-4,-4,-4,-10
27498351156,0,0,3,0,-1,3,3,6
27498351156,-1,-1,-4,-2,-1,-1,-2,-2
27498351823,1,8,2,0,0,1,0,4
27498351823,1,-12,-3,0,-3,0,-1,-4
27498365488,-2,0,-5,-3,-3,-3,-2,-8
27498365488,-1,-3,-2,-1,1,0,2,3
27498381123,0,1,2,0,1,0,-1,2
27498381123,-6,-6,-1,3,0,0,-1,-1
27498404328,1,-6,-5,-3,0,-1,-1,2
27498404328,-3,1,-2,1,1,0,-2,-5
27498404996,0,9,6,1,1,-2,-1,-3
27498404996,3,-4,-3,-4,-3,-1,0,1
27498411196,1,0,-3,-5,-1,-1,0,2
27498411196,-1,3,4,6,0,-2,-2,-2
27498411805,-3,-3,1,4,4,2,2,2
27498411805,-2,-5,-5,-10,-6,-2,-1,-3
27498434297,-3,3,6,4,-2,-1,-1,0
27498434297,0,-10,-13,-6,-2,1,0,1
27498434998,-2,7,5,2,-2,-2,-3,-3
27498434998,1,-2,-4,-1,-2,-5,-1,0
27498457317,-1,-2,-3,-1,-2,-1,-2,-1
27498457317,-1,-8,1,3,-1,-3,-3,-3
27498457940,-2,4,-6,-4,-4,-2,-1,7
27498457940,-3,-5,-2,-1,1,0,1,-1
27498479747,3,6,5,2,0,1,-1,1
27498479747,-2,4,1,-2,-1,-2,-1,-3
27498480440,0,-7,-1,0,0,-3,-1,3
27498480440,0,-14,-7,-5,-4,-3,-3,-2
27498485477,-2,5,0,2,0,-1,1,-1
27498485477,0,-6,-7,-2,-2,-2,-7,-5
27498493449,1,-4,2,7,4,2,9,4
27498493449,-1,-10,2,3,1,2,-1,-4
27498508629,0,14,-6,-5,-3,-3,1,0
27498508629,-7,-8,-5,-3,0,2,-1,-5
27498509309,-1,-19,-41,-25,-11,-5,-3,-6
27498509309,3,20,48,24,5,-2,-2,0
27498531093,1,-2,6,3,-1,-2,-3,-1
27498531093,3,10,9,2,0,-1,1,2
27498531798,-2,-3,-5,-5,-2,0,-2,-1
27498531798,-3,-9,-18,-6,-1,-1,1,3
27498554393,-5,-8,-3,-1,-3,-2,-3,-5
27498554393,0,2,-5,-5,-2,0,1,3
27498555045,-2,-7,7,5,0,0,-3,-3
27498555045,0,5,-15,-12,-7,-4,-4,-2
27498577415,-1,1,13,7,2,-1,-1,2
27498577415,0,2,-6,0,3,1,2,2
27498578152,-5,0,-2,-2,-3,0,-2,-6
27498578152,-4,-10,-10,-2,-1,-2,-2,-3
27498591719,-1,0,-2,-2,-2,-1,-2,-3
27498591719,0,17,9,4,1,-2,-3,-4
27498592454,3,2,7,4,1,2,3,7
27498592454,3,4,-1,-3,1,0,0,0
27498605504,-13,-14,-7,-4,0,1,-1,-16
27498605504,4,-9,-3,1,-1,-2,3,12
27498613771,-2,-8,-1,0,-1,-3,-3,-5
27498613771,2,10,0,-2,-2,0,-1,1
27498629132,3,-2,-3,0,1,-1,0,2
27498629132,-1,-8,-9,-5,-3,0,-2,-2
27498629775,2,9,10,3,1,0,-1,-3
27498629775,-4,-6,7,-2,-3,-1,-1,2
27498659322,3,-2,-18,-4,-2,-2,-2,0
27498659322,-5,2,11,1,-1,-2,0,-3
27498659987,-1,-9,-7,-3,1,0,0,1
27498659987,-4,-3,-5,-1,1,0,-3,-5
27498665488,-1,-1,-1,-3,-1,-1,0,1
27498665488,-3,-16,-9,-2,-1,0,-1,0
27498681173,7,17,10,3,3,-1,-1,-1
27498681173,-5,10,21,8,1,-1,1,-1
27498688585,-1,-13,-19,-7,1,1,2,0
27498688585,-1,-2,14,0,-2,-1,0,1
27498689290,-1,-1,3,2,-3,-3,-3,-5
27498689290,1,-6,-11,-3,-2,0,-1,-1
27498711097,1,2,6,0,0,-1,0,4
27498711097,-4,-9,-12,-6,-4,-3,-2,-6
27498711779,-2,0,-1,-4,-3,-3,-3,0
27498711779,0,-2,-3,1,2,2,2,-1
27498726814,-4,-19,-9,-2,-2,-3,0,2
27498726814,9,53,30,8,3,1,0,-2
27498733650,-4,-22,-22,-3,-4,-2,0,1
27498733650,3,14,9,-1,1,-2,-1,2
27498749239,2,-5,-3,0,-1,-2,-1,-1
27498749239,-2,-3,16,-1,0,0,-1,-1
27498749961,-2,-3,-22,-5,1,-1,-1,-3
27498749961,3,6,23,0,-5,-2,-1,-2
27498787491,-1,5,5,1,-3,-2,-3,2
27498787491,-1,-10,-14,-2,-5,-3,-2,-5
27498788172,-2,-3,9,2,0,2,0,7
27498788172,-1,-1,-24,-7,-2,-2,-1,-3
27498789752,3,7,6,0,-1,-2,-1,-2
27498789752,-6,-11,-12,0,-1,-2,-2,-3
27498793656,-1,10,8,-2,-3,-3,-3,-5
27498793656,-3,-9,-5,3,1,0,-2,1
27498808712,2,10,12,3,1,1,0,3
27498808712,-4,-26,-23,-4,0,1,-1,0
27498809277,0,7,3,-3,-5,-2,0,-2
27498809277,-2,-8,-11,-1,1,-1,0,-1
27498831227,0,11,5,0,-1,-3,-2,-4
27498831227,0,-12,-4,-3,-2,-2,-1,2
27498831798,0,4,3,3,1,-1,-2,-2
27498831798,-2,-2,3,3,-1,0,0,1
27498854242,-2,-7,-5,-6,-2,-1,0,-1
27498854242,1,2,-13,-5,-1,-2,0,-1
27498854970,1,3,9,0,-1,-2,0,-2
27498854970,0,10,5,2,-1,-2,-3,-8
27498868625,2,0,-5,-4,-2,1,2,0
27498868625,0,3,-3,-1,-2,1,3,9
27498869289,-3,-4,0,-3,-4,-3,-2,-1
27498869289,-6,-18,-15,-3,-2,-1,-1,-6
27498891004,3,4,16,5,0,-1,-2,-1
27498891004,-1,11,0,-3,-1,-2,-2,-4
27498891751,-3,-9,-8,-2,-1,0,-2,-3
27498891751,3,-1,4,-1,-2,-3,-2,9
27498905325,-12,9,1,-2,-1,0,0,-8
27498905325,2,-2,5,6,2,-2,-2,-6
27498913581,-1,0,12,3,-1,-2,-2,0
27498913581,-7,-20,-23,-15,-7,-3,-2,1
27498928609,4,6,10,7,3,3,1,3
27498928609,0,1,3,-3,0,0,0,-2
27498929291,-1,-2,-7,-2,-2,-1,1,-6
27498929291,4,-2,-1,0,1,0,-1,3
27498959266,-3,8,-5,0,-3,-4,-4,-4
27498959266,-1,7,4,1,0,2,-1,-3
27498959962,2,0,1,-3,-2,-1,-2,1
27498959962,0,-6,-12,-4,1,0,1,11
27498974178,-3,-3,12,4,0,-2,0,0
27498974178,-2,-8,-7,-2,-4,-3,-3,-1
27498974976,0,5,10,1,0,-2,-2,0
27498974976,-2,3,-4,-3,-2,-3,0,-5
27498988641,0,-5,-8,-6,-3,-2,-1,1
27498988641,-2,2,19,8,3,0,-2,-1
27498989293,-1,-7,-19,-5,-2,-1,2,0
27498989293,-2,3,-7,-5,-3,1,-1,-5
27499011138,1,-3,-2,-5,-3,-4,-4,-2
27499011138,-1,-2,-9,-5,-2,-2,-1,1
27499011805,-4,-9,-9,-4,-3,-1,-1,-2
27499011805,1,8,0,2,0,1,0,-3
27499034299,-3,-26,-18,-7,-1,-2,-2,-1
27499034299,4,10,18,-1,-1,0,1,1
27499034993,0,9,7,8,2,0,-3,-3
27499034993,-3,-7,9,-1,-2,-6,-5,-4
27499048567,-3,4,-14,-5,0,1,4,5
27499048567,-3,-19,-20,-11,-3,-2,-2,-5
27499049324,2,5,-5,0,-1,1,1,4
27499049324,0,8,8,-1,-4,-1,-4,-6
27499071108,-2,-3,0,0,0,-1,-2,-2
27499071108,3,5,11,4,-1,-1,-1,1
27499071743,-2,9,-8,-3,-1,-1,-2,-3
27499071743,-9,-19,-12,-1,0,-1,-1,-3
27499094267,2,5,6,-2,-1,-1,-2,1
27499094267,-1,-15,-20,-1,-2,-3,-2,-2
27499094988,1,15,36,7,2,0,1,3
27499094988,2,8,-6,-5,-1,0,1,-1
27499108626,6,7,-8,-1,2,0,0,4
27499108626,-8,-2,2,0,-1,-3,-5,-9
27499109291,-6,-19,-11,-2,0,0,1,-3
27499109291,3,2,3,4,1,1,2,3
27499131202,0,0,9,4,-3,-2,-2,-7
27499131202,-7,-5,-8,-7,-3,-2,-2,-7
27499131801,4,-2,2,0,1,0,8,15
27499131801,5,11,13,4,1,-3,-1,3
27499153351,-4,-6,-10,-6,-3,-1,-2,-1
27499153351,-3,3,6,3,-1,-1,-1,-8
27499161253,-6,-10,-5,-3,-2,-1,-3,-5
27499161253,-3,-7,-5,-3,-1,1,2,0
27499168594,5,-3,7,2,1,-2,-5,-8
27499168594,5,13,-2,-3,0,-2,2,6
27499169296,-4,-8,-12,-5,-3,-1,1,-3
27499169296,1,5,-7,-1,-1,-2,-3,-1
27499191184,-6,1,14,2,-1,-1,-1,-1
27499191184,2,0,-5,-4,-2,-2,-2,3
27499191756,3,0,10,7,3,1,-2,1
27499191756,-1,-1,-11,-6,-4,-1,-1,-2
27499214219,-1,-2,4,1,-3,-1,-1,-1
27499214219,-2,-3,1,2,2,2,0,3
27499214992,0,1,-7,-4,-3,-3,-3,-5
27499214992,-2,-2,-9,-4,1,-2,-1,-11
27499236861,-6,-10,-9,2,-1,0,-1,-2
27499236861,10,9,7,3,1,0,8,14
27499237474,-1,6,4,-5,-4,-2,-4,-4
27499237474,3,7,12,1,2,-2,-2,-3
27499251094,1,-12,-14,-3,0,-2,-3,-10
27499251094,-8,2,6,3,0,1,2,6
27499251819,8,9,3,-3,-2,0,0,3
27499251819,-9,-7,4,2,2,0,1,0
27499274292,3,2,-1,-6,-3,-2,-1,2
27499274292,0,-6,-2,2,-1,0,-4,-5
27499275000,-1,-5,-9,-8,-4,-2,0,-1
27499275000,0,1,13,10,1,0,-1,6
27499288624,-1,0,-1,-2,-2,1,2,4
27499288624,-3,-2,-4,-6,-5,-4,-5,-6
27499289263,-1,1,2,2,-1,-2,-2,0
27499289263,1,-9,-18,-7,-3,-2,-2,0
27499311104,-6,-2,0,5,2,-2,1,0
27499311104,3,1,0,-4,-4,-3,-3,-2
27499311790,-4,-1,-3,-4,-4,-3,-5,-5
27499311790,1,6,7,1,1,2,1,-3
27499334301,1,3,-6,-7,-1,-1,0,6
27499334301,-3,-7,-1,1,-2,-2,-2,0
27499334963,-4,-8,14,15,4,-1,0,-1
27499334963,-1,-8,-11,-7,-3,-2,-3,-3
27499348525,-1,1,-2,-4,-2,0,-4,-2
27499348525,-9,-5,-10,-6,-1,1,2,-2
27499349305,2,-2,-2,-1,3,0,-2,-2
27499349305,0,0,-15,-7,-2,-1,1,1
27499371638,-3,4,28,15,1,-1,-2,-4
27499371638,0,-1,-3,0,-2,-2,-1,-3
27499372401,-1,-8,5,-3,-3,-2,0,-8
27499372401,-2,2,-6,-2,-3,-2,-1,8
27499394159,0,-4,-10,-7,-1,-1,-2,-1
27499394159,3,4,2,1,3,-1,-3,-1
27499394961,-1,-2,-10,-5,-1,1,1,2
27499394961,-5,-16,-7,0,1,2,1,-5
27499408327,2,12,17,2,0,-1,1,4
27499408327,-1,1,11,4,-1,-3,-1,-3
27499416037,-5,-3,-17,-7,-1,-2,-4,-1
27499416037,0,3,14,3,-2,-2,-2,1
27499431795,-1,-11,-31,-17,-4,-3,-2,-5
27499431795,-1,-6,-6,2,4,3,4,1
27499432454,4,16,26,9,0,-2,-2,-1
27499432454,-1,-4,3,-1,-4,-3,-1,-4
27499454264,-2,-1,0,2,1,-1,1,0
27499454264,0,-2,-3,-7,-2,1,2,2
27499455023,-7,-11,-19,-7,-3,-2,-2,0
27499455023,5,8,18,7,0,-2,0,-3
27499468600,3,-2,-13,-1,0,-1,-2,-1
27499468600,-3,0,-4,-3,-1,-3,-3,-1
27499469275,1,5,16,8,1,3,-1,0
27499469275,-2,2,10,1,-1,-1,-1,-1
27499491799,-3,-6,-10,-3,-3,0,-1,-2
27499491799,-1,-2,-8,-4,-3,-2,-1,-2
27499492478,0,0,-5,-4,-1,-2,0,-3
27499492478,0,-3,-4,1,-1,-1,-1,-2
27499514271,-6,-3,4,2,-1,0,-2,-7
27499514271,0,2,7,1,0,0,-2,-1
27499514943,5,0,-4,0,0,0,1,3
27499514943,1,6,3,-1,-1,0,1,-3
27499527929,0,-7,11,1,-1,-1,-2,0
27499527929,1,8,-13,-6,-4,-1,0,1
27499536117,-4,-6,-7,-3,0,-1,0,0
27499536117,-3,-3,-3,-3,0,0,-2,-3
27499551697,1,0,-7,1,1,0,-1,2
27499551697,0,-8,6,0,-2,-3,-4,-2
27499552501,0,7,0,-5,-2,0,1,-2
27499552501,-2,1,8,4,-2,-1,-2,1
27499574279,-5,-7,-4,-6,-3,-2,-3,-2
27499574279,-1,-4,-2,2,-1,-2,-2,-2
27499574966,-1,1,4,-1,-1,-2,-1,-3
27499574966,-7,-13,-32,-11,-2,-1,-1,-2
27499587942,-2,5,0,-3,-2,-3,-1,-2
27499587942,6,14,34,14,3,2,2,2
27499596074,-4,-8,-8,-2,0,-1,-1,1
27499596074,8,6,4,2,-1,-1,-1,4
27499611647,-1,0,-10,-5,-1,-4,-3,-13
27499611647,-6,-7,-10,-4,2,2,4,12
27499612429,-3,-3,-2,-1,-1,1,0,0
27499612429,6,-4,-4,-3,-1,-1,-1,8
27499634326,-8,-2,-4,-2,0,2,1,-6
27499634326,-1,0,4,2,-3,-5,-4,-6
27499634973,2,-4,-6,-5,-3,-4,-6,-4
27499634973,-5,0,5,6,1,-1,3,0
27499647875,9,6,11,0,1,3,3,9
27499647875,-7,-9,-14,-6,0,1,0,-4
27499656133,-2,-4,-27,-7,-4,-2,0,-2
27499656133,-4,-1,5,-3,-1,-1,-3,-6
27499671795,6,12,20,10,0,-2,-2,6
27499671795,-4,-5,-6,-1,1,1,0,-12
27499672434,-5,-3,-5,-1,-2,-3,-2,-1
27499672434,-2,-2,0,-1,-1,0,-4,-9
27499694268,-10,-5,-6,-4,-1,1,3,5
27499694268,9,2,-8,-5,-3,-4,-6,-1
27499695011,-11,-5,14,7,4,3,4,-12
27499695011,-4,3,0,0,-1,0,0,-4
27499707936,-2,-8,-3,-2,-2,-4,-5,-1
27499707936,-8,8,0,-2,0,3,3,-3
27499716035,5,1,5,-2,-3,-2,-3,-2
27499716035,-3,0,1,1,0,0,-3,-4
27499731739,-1,-1,-3,1,0,0,1,5
27499731739,-4,-8,-3,-3,-4,-6,-6,-7
27499733280,8,1,1,0,0,2,1,2
27499733280,-12,-13,-3,0,3,1,2,2
27499754164,-6,8,1,-3,-2,-3,-3,-4
27499754164,5,0,1,0,-1,-1,1,1
27499755807,1,2,4,1,-2,-2,-2,2
27499755807,4,0,-3,-2,-1,0,-2,2
27499778162,-4,-6,-2,1,0,3,4,2
27499778162,2,0,-3,-2,-2,-2,-2,-1
27499779836,-4,-5,-1,0,0,-2,-1,-2
27499779836,0,0,-1,-2,-3,-2,1,3
27499791737,1,-1,-1,0,-2,-4,-7,-5
27499791737,-2,5,9,-1,-1,2,2,3
27499793281,1,-2,-9,-3,-1,-2,-6,-1
27499793281,0,0,5,2,1,2,1,1
27499814309,0,-4,-5,-2,0,-1,-3,-14
27499814309,-7,-11,-7,-1,-3,0,-1,8
27499815820,1,7,9,2,2,0,0,2
27499815820,5,4,1,-3,-2,-2,-3,-2
27499827892,1,-1,1,0,-2,-3,-1,2
27499827892,4,-1,-5,0,1,3,1,-3
27499836810,-4,-5,-1,-2,0,0,3,0
27499836810,-1,2,-7,-3,0,1,0,2
27499851688,2,-5,-5,-2,-2,-2,-4,-3
27499851688,-2,-3,-1,-2,-2,-1,-2,-13
27499853263,-18,-1,-2,0,-2,1,3,8
27499853263,4,8,7,1,-1,-2,-1,-3
27499874273,4,-3,3,-2,-3,0,0,0
27499874273,6,-5,-3,-1,-1,-1,0,-1
27499875757,3,3,0,-1,-2,1,-3,-3
27499875757,-1,-5,-6,-2,-1,-2,-1,4
27499896837,2,7,-3,-1,-2,-1,0,-1
27499896837,6,1,-2,-2,0,-4,-5,4
27499898281,-2,-4,-3,-2,0,-1,0,0
27499898281,-4,-5,-3,-1,0,-1,1,-6
27499911752,8,1,1,1,0,-3,-1,6
27499911752,-3,1,2,2,-2,-5,-7,-1
27499913280,5,1,-4,-2,0,2,2,7
27499913280,2,-2,-3,-1,1,2,1,7
27499934218,-7,-3,1,-3,-2,2,2,-2
27499934218,-2,5,2,-3,0,-3,-4,-3
27499935763,1,-1,1,-1,-2,-7,-9,-2
27499935763,1,-3,-1,2,-3,0,0,-12
27499956738,-5,0,-8,1,-1,3,3,-2
27499956738,-8,-10,-10,-3,-2,-1,-2,1
27499958294,0,-7,3,2,-1,-5,-5,-6
27499958294,4,14,5,-1,-1,-2,-2,-1
27499972240,-10,-3,-4,-1,-3,-5,-11,-5
27499972240,-6,-3,-1,-3,1,6,8,0
27499973741,4,-1,-3,-2,-1,-1,3,-1
27499973741,-3,-5,-1,-3,0,-6,-7,-10
27499994248,3,-3,-7,-3,1,3,6,14
27499994248,0,1,4,1,-2,-3,1,9
27499995810,5,1,2,2,-1,-2,-3,4
27499995810,-4,2,3,1,-2,-6,-10,-6
27500016820,0,2,2,4,3,6,6,-7
27500016820,-6,-4,-8,-4,-1,6,8,-1
27500018282,8,1,2,-1,-2,2,5,7
27500018282,1,1,1,-4,-3,-4,-4,3
27500031130,-7,-3,6,1,-3,-5,-10,-12
27500031130,3,-4,-16,-4,-3,4,9,13
27500045425,-4,-2,1,-2,0,-1,2,-9
27500045425,-6,6,2,2,0,2,2,-2
27500054176,4,-2,1,-1,0,-4,-2,8
27500054176,-1,1,0,2,0,-3,-2,-1
27500055771,-12,-9,-8,-7,-2,-4,-6,-10
27500055771,2,-4,3,5,0,0,3,1
27500076769,-3,-4,-2,-4,-2,-2,-3,-5
27500076769,0,3,3,-1,-1,-7,-11,-8
27500078285,-2,-3,-6,-1,1,4,5,-5
27500078285,-3,-6,-9,-4,0,3,1,8
27500099252,2,8,11,1,-2,0,2,2
27500099252,2,5,2,-2,0,-4,-5,-7
27500100757,-6,2,6,2,-1,-3,-5,-5
27500100757,4,-5,-5,-2,-1,1,-1,8
27500113225,9,-7,-11,-2,-3,-1,1,-4
27500113225,-5,-2,-5,-2,-1,-1,-2,2
27500121945,-3,3,14,-1,0,-3,-4,-9
27500121945,-7,-4,-9,-1,-2,-1,3,-2
