28524336534,-1,-1,-2,-1,-1,-2,-2,-2
28524336534,-2,-3,-5,-2,0,-1,-3,-3
28524337384,0,-9,-6,-3,-1,-3,-3,-1
28524337384,-2,-4,2,2,4,1,1,-1
28524338187,0,10,0,1,-1,-1,-1,0
28524338187,-1,5,1,1,0,-1,1,0
28524341794,-3,-7,-5,-2,-1,-1,-3,-3
28524341794,-2,-4,-1,-2,-2,-2,-2,-1
28524348164,-4,-18,-11,-5,-1,0,-2,-2
28524348164,5,20,9,0,-3,-1,-1,-1
28524357588,-3,-2,3,2,-1,1,2,-2
28524357588,-1,1,-1,-1,-3,0,0,0
28524363169,-1,-17,-2,-2,-2,1,0,1
28524363169,-2,22,2,-1,-2,-1,-2,-2
28524379540,0,-4,-4,-2,-2,-1,0,0
28524379540,5,14,5,0,-2,-3,-2,0
28524386862,0,-2,-3,-1,-1,0,-1,-1
28524386862,-3,-17,-6,-2,-2,-1,-1,0
28524408940,-1,5,2,0,-2,-3,-3,-3
28524408940,-4,-1,-2,-1,0,0,-2,-2
28524409624,3,6,1,-1,-2,-3,-1,-1
28524409624,-4,-12,0,-2,0,-1,0,0
28524423037,0,3,0,0,-2,-1,-1,-1
28524423037,0,-6,-5,-2,-2,-1,-1,-2
28524464730,3,3,1,-3,-1,0,0,0
28524464730,-1,4,0,0,1,-2,1,0
28524465501,-3,-9,-4,-2,0,0,0,-1
28524465501,0,3,1,-1,-2,-2,-1,-1
28524468592,-2,6,4,0,0,-2,-2,-2
28524468592,-2,-7,-7,-3,-2,-1,-2,1
28524469316,0,9,6,-1,-2,-2,0,-1
28524469316,-2,-3,-3,-2,0,0,-1,-2
28524484451,-2,-2,-2,-1,-2,-3,-2,-2
28524484451,-2,-14,-8,-2,-3,-4,-2,-2
28524485907,2,18,5,-2,-2,-3,-2,-1
28524485907,-1,-5,-3,-1,-2,-1,-2,-1
28524498679,-1,-2,-2,2,1,-1,-2,0
28524498679,1,0,3,-2,-4,0,-2,-1
28524505520,-2,-10,-4,0,0,-3,-2,-2
28524505520,-1,-3,-4,-1,-1,-1,-1,-1
28524513652,-1,-3,-4,-2,-2,-1,-1,0
28524513652,-2,-1,0,1,-1,-1,0,-2
28524536901,-6,-13,-11,-1,0,-1,-1,-4
28524536901,-4,4,4,-1,-2,-3,-2,-1
28524538354,-2,-2,2,0,-1,-1,-1,-1
28524538354,0,5,1,-1,-1,0,-2,-2
28524559321,-1,0,-1,-1,-2,-2,-2,-1
28524559321,-2,-8,-3,-2,-1,-1,0,-1
28524560950,-2,-4,-4,-3,-2,0,-2,-2
28524560950,0,2,-1,-2,0,0,-1,-1
28524572946,-3,-8,-6,-1,-1,-2,0,-1
28524572946,-4,-13,-10,-3,-1,-1,-3,-2
28524581893,5,14,11,1,-1,-2,-1,-1
28524581893,-1,2,2,1,0,-1,0,0
28524596851,0,-3,-1,0,-3,-1,-1,-2
28524596851,-2,-2,-2,1,-1,0,-1,-1
28524598352,-1,-4,-6,-1,-2,-2,-1,-1
28524598352,-2,-2,-4,-2,-3,0,-2,-1
28524619355,0,0,2,-1,0,1,1,3
28524619355,0,5,3,0,0,0,1,1
28524620896,-5,-13,-8,-1,3,0,2,0
28524620896,2,11,7,3,3,2,1,-1
28524632956,2,1,3,1,0,1,0,-1
28524632956,0,2,4,-1,-1,-1,1,1
28524641900,0,4,2,-1,0,0,-1,-1
28524641900,-3,-12,-10,-2,-3,-1,-1,-1
28524656793,-2,-1,1,-2,1,0,-1,0
28524656793,3,1,-7,-2,0,-1,0,-1
28524658345,-1,3,8,1,-1,-1,0,-1
28524658345,-4,-2,-2,-2,0,-3,-3,-2
28524678470,-1,0,1,-2,-1,-2,-2,0
28524678470,-1,-5,-5,-1,-2,1,-1,-2
28524686906,-1,-11,-9,-2,-2,-2,-2,0
28524686906,-1,18,5,0,-1,-2,0,-2
28524693694,-2,-5,-1,-2,-2,-2,-2,-1
28524693694,1,11,7,2,1,-1,0,-1
28524700405,-3,-9,-6,0,-2,-1,0,-3
28524700405,1,-3,4,1,-1,0,-2,1
28524716769,1,6,0,-2,-1,0,0,1
28524716769,-3,-7,-2,-1,0,-1,0,-2
28524718368,-1,2,0,-1,-1,-1,-1,-1
28524718368,0,-2,-1,-1,1,-1,0,0
28524739446,-2,-1,-2,-3,-3,-1,-2,-2
28524739446,-3,-9,-3,-1,-2,-1,1,1
28524740898,4,13,3,-2,-2,-1,-2,0
28524740898,-1,-6,0,1,-1,0,0,-1
28524753448,-1,0,-1,-2,1,1,-1,-1
28524753448,-2,-10,0,1,-3,0,-3,-2
28524761906,1,10,4,-1,-1,0,-1,-1
28524761906,1,2,-3,-3,-3,0,-1,-2
28524776876,0,-5,-4,-1,0,0,0,0
28524776876,3,2,-5,-2,-2,-1,-1,0
28524778359,-2,-2,2,0,0,-1,-1,-2
28524778359,-2,0,2,-1,0,-1,-1,0
28524799315,-1,-1,-1,-1,-1,-1,-1,-3
28524799315,1,5,3,-1,0,-2,-1,0
28524800906,-2,-17,-7,-2,-2,-2,-1,1
28524800906,-2,1,-4,0,-2,0,1,0
28524813618,0,1,0,-1,-2,-3,-3,0
28524813618,-3,-5,-5,-1,0,-2,-1,-3
28524820503,2,10,-1,-2,-1,-1,-2,-2
28524820503,-3,-8,1,-1,-1,-2,-3,-1
28524836854,1,12,3,1,-2,-1,-1,-1
28524836854,0,4,2,-2,-1,0,-3,-1
28524838308,-3,-5,-4,-2,-2,-1,0,-1
28524838308,1,0,-2,0,-1,0,-1,0
28524859348,-1,-3,-3,-2,0,-1,0,-1
28524859348,-1,3,3,0,-1,0,0,0
28524860922,-1,-4,-3,-2,-1,0,0,-1
28524860922,-1,-4,-3,-3,-2,-1,-2,-1
28524873704,-1,-12,-5,-2,1,1,0,0
28524873704,-2,7,6,3,1,-1,-1,-2
28524880508,-4,-10,-8,-2,-1,1,-1,0
28524880508,-1,-8,2,0,0,-1,1,-1
28524896819,2,16,6,1,-2,-1,0,-2
28524896819,0,5,1,-2,-2,-2,-1,-1
28524898325,-1,-2,-1,0,-1,-1,-1,0
28524898325,-1,-5,-5,-2,0,-1,-1,-4
28524919386,-3,-8,-1,-1,-1,-2,-2,-1
28524919386,-1,-4,-3,-2,-3,-1,-1,-1
28524920903,-2,0,0,0,0,-3,-1,-2
28524920903,-1,0,-3,-1,-2,-2,-1,-1
28524933694,-1,-3,-4,-1,1,-1,-1,-1
28524933694,0,0,-2,-1,-1,-1,1,0
28524940602,-1,-3,-2,0,1,0,0,-2
28524940602,0,2,-3,-3,-2,1,0,0
28524956882,-2,-4,1,2,2,0,-1,-2
28524956882,-3,-3,-1,0,-1,0,-1,-3
28524958320,0,4,0,-4,-4,-3,-2,-2
28524958320,-3,-1,0,1,0,-2,-1,-2
28524979322,0,2,-5,-5,-4,-3,-1,-1
28524979322,-8,-13,-4,2,-2,-3,-4,-3
28524980821,-4,-16,-14,-5,-2,0,-1,0
28524980821,3,32,24,6,3,1,0,0
28524993693,0,-1,1,-1,-2,-1,0,0
28524993693,2,8,1,-2,-2,-3,-2,0
28525000449,-3,-11,-5,-1,-1,0,-1,-2
28525000449,-4,-24,-8,-3,-2,-3,-3,-3
28525016869,-2,11,-1,1,0,1,1,0
28525016869,3,6,1,0,2,4,1,1
28525018369,-3,-7,-1,1,-1,-3,-1,-2
28525018369,1,1,-1,-3,-1,-1,0,-1
28525039316,-1,-6,2,0,-2,-1,-1,-2
28525039316,-4,-7,-10,-5,-3,-4,-3,-1
28525040930,-4,8,12,2,-1,-2,-3,-4
28525040930,3,-12,-10,5,2,1,1,1
28525053054,-7,3,12,6,1,-1,-4,-3
28525053054,3,3,0,-5,-3,-1,-2,2
28525061899,-3,-13,-7,-9,-7,-2,-2,0
28525061899,-3,-4,-1,0,-3,-4,-1,-3
28525076800,-2,-19,-11,-5,-1,2,0,-2
28525076800,-1,-4,0,9,6,-3,-1,-2
28525078309,5,17,8,7,2,2,0,2
28525078309,1,10,7,2,4,6,1,-1
28525099220,-2,-14,-9,-5,-6,-2,-2,-2
28525099220,-1,2,4,-9,-4,0,0,-3
28525100894,1,2,-3,-3,-5,-2,0,0
28525100894,-2,-4,-2,5,6,-2,1,1
28525113394,-1,9,6,-1,-1,-1,0,-1
28525113394,-2,-16,-11,-3,-2,-2,-2,-1
28525121903,-3,4,1,1,-1,-4,-4,-3
28525121903,1,12,5,-5,-8,-5,-2,0
28525136728,-1,0,-6,-5,-6,-6,-1,-1
28525136728,-2,-18,-6,1,4,6,4,0
28525138347,1,15,2,-3,2,1,0,-1
28525138347,0,3,3,1,-2,-2,-1,-3
28525159376,4,3,0,-1,-1,-4,-2,0
28525159376,2,-1,0,-5,-4,-2,-1,-1
28525160911,0,-7,-5,0,-1,-1,-1,0
28525160911,1,-7,-7,-5,-5,-5,-4,-1
28525172974,5,3,-2,-4,0,3,3,1
28525172974,-2,5,7,9,2,1,0,0
28525181911,-9,-11,-2,0,2,3,0,-2
28525181911,-4,4,-4,-4,-2,0,-2,-1
28525196820,-6,-23,-8,-2,-3,-2,-3,1
28525196820,1,32,7,-6,-5,-4,-4,-1
28525198339,1,1,-4,-3,-3,-2,0,1
28525198339,-2,9,12,10,8,2,1,-2
28525219371,1,11,2,-6,-4,-4,-3,-2
28525219371,1,-2,-2,4,2,5,2,0
28525220900,0,-1,3,3,2,-2,-1,0
28525220900,-3,-11,-11,-10,-8,-2,-1,-2
28525233020,-4,-11,-4,3,-1,0,0,-1
28525233020,3,18,4,-2,-4,-5,-1,1
28525241905,1,-1,2,-2,1,4,1,0
28525241905,0,-8,-4,-4,-4,1,-2,-2
28525256845,-1,1,3,13,11,4,1,-4
28525256845,-4,-18,-10,-4,-4,-3,-3,-2
28525258337,-1,2,0,-3,-3,-1,-1,-1
28525258337,3,7,-11,-5,-2,-4,-2,0
28525279319,-2,-1,1,-2,-2,1,-1,-2
28525279319,-1,-2,0,0,-1,-2,-2,-1
28525280811,3,9,6,3,1,-1,-1,-1
28525280811,-7,-25,-8,-2,-2,1,-1,-1
28525293029,3,11,-4,-2,-3,-1,-3,1
28525293029,-1,3,2,0,1,-3,-2,-1
28525301909,-3,-10,-6,-1,-2,-5,-3,0
28525301909,-1,4,2,0,0,0,0,0
28525316839,1,-5,0,0,4,4,1,2
28525316839,-5,-5,-2,-2,-4,0,-1,-3
28525318351,3,9,3,2,3,0,0,0
28525318351,-4,-5,-4,-3,-1,-2,-1,-3
28525339319,-2,-5,-7,-5,-5,-4,-2,-3
28525339319,5,11,8,5,5,1,1,1
28525340841,-2,-6,-3,-4,-2,-1,-1,0
28525340841,3,-12,-9,-2,-4,-5,-1,0
28525353053,-1,11,11,7,1,0,1,-1
28525353053,-1,-6,0,7,8,5,1,-1
28525362558,-4,-5,-1,3,3,-1,0,-2
28525362558,-3,-2,-5,-8,-5,-2,-2,-1
28525376172,-6,-22,-12,-5,-5,-2,-3,-2
28525376172,1,12,11,4,0,-1,1,2
28525383109,1,6,-3,-2,1,1,0,0
28525383109,0,8,6,-4,-3,-1,-1,-2
28525399241,1,3,3,3,2,0,0,1
28525399241,-2,-5,-9,-10,-7,-4,-2,-2
28525400926,-1,-8,-6,-5,-6,-3,-2,-2
28525400926,0,-5,7,18,14,6,1,2
28525412901,0,6,2,-4,-3,-1,-2,0
28525412901,-1,-7,-4,-6,-3,-1,0,-2
28525421899,-6,-4,-1,-2,-8,-6,-2,-1
28525421899,4,23,8,3,-1,-3,-1,-2
28525444386,-2,-7,-1,1,7,8,4,-1
28525444386,-4,-6,-3,-2,0,-2,-1,-2
28525445826,0,7,-1,-9,-7,-3,-1,-2
28525445826,-3,-14,-3,3,0,-2,0,0
28525458022,-1,-1,-8,-4,-3,-3,-1,-2
28525458022,1,2,3,3,0,1,0,0
28525466907,0,-11,0,0,3,0,-1,-1
28525466907,-5,4,0,2,4,3,0,-1
28525481804,-3,-3,-1,-10,-8,-7,-2,-1
28525481804,2,17,3,-1,-2,-3,-1,0
28525483350,0,0,4,3,4,2,0,0
28525483350,-1,-6,-2,-2,-4,-2,-2,-3
28525504361,1,5,0,-2,-3,-4,0,-1
28525504361,-5,-13,-7,-4,1,0,-1,-2
28525505904,-4,-4,-5,-1,-4,-2,-2,-2
28525505904,-6,-22,-14,-10,-4,0,-1,-1
28525518078,0,7,7,2,3,1,0,0
28525518078,-2,-3,-4,-5,-7,-5,-3,-3
28525526906,2,2,6,6,4,4,1,0
28525526906,2,-13,-5,-4,0,-1,0,0
28525541941,-3,2,-1,2,-2,-2,-2,-1
28525541941,-3,-11,-4,1,2,2,-1,0
28525543311,0,9,0,-3,-3,-1,-1,-2
28525543311,-1,8,5,-1,-5,-2,-3,-1
28525564374,1,-4,0,3,4,-2,-1,-1
28525564374,-1,13,3,-2,1,4,-1,-1
28525565904,-1,-7,-5,-4,-2,-2,0,1
28525565904,-3,4,0,-6,-4,-3,-1,-2
28525577954,0,5,4,5,1,-2,-2,0
28525577954,-5,-19,-11,-4,-7,-4,-2,-2
28525586914,-1,-4,-2,3,3,3,0,0
28525586914,0,10,2,1,-2,-1,-1,-1
28525601676,-3,-7,-4,-4,-4,-2,-3,-2
28525601676,3,4,4,2,1,2,0,0
28525603313,2,-5,-1,-2,-3,-1,-2,-1
28525603313,-14,-8,-12,-7,-4,-3,1,-10
28525624474,-4,-6,-5,-3,-1,-1,-4,-8
28525624474,4,5,4,2,-3,-3,1,4
28525625929,-1,0,-1,0,0,-1,0,5
28525625929,0,-10,-4,0,1,1,-2,4
28525637942,4,24,5,-3,-5,-4,-7,-5
28525637942,-7,7,4,-2,-3,-4,-4,-4
28525646906,5,-18,-3,1,-1,-2,1,0
28525646906,1,19,5,-1,-1,-1,-2,-2
28525661884,-6,-12,-7,-2,0,-1,0,-4
28525661884,5,4,3,3,1,1,1,2
28525663339,-8,-3,-4,-3,-4,-4,-7,-8
28525663339,3,-11,-2,1,2,0,5,9
28525684297,-1,10,1,-4,-1,-3,-1,-2
28525684297,-1,-10,-9,-4,-2,-2,0,0
28525685816,0,14,12,5,5,3,1,-1
28525685816,-1,-13,-1,0,0,0,-2,-2
28525697951,-1,-8,-2,1,-2,-3,0,4
28525697951,-2,1,-4,-3,2,0,2,-2
28525706902,-1,1,-5,-3,-3,-2,1,-2
28525706902,-1,2,0,-1,-2,-2,-5,-5
28525721854,2,-3,2,1,1,2,3,3
28525721854,-1,-3,-3,-2,-1,-3,-1,-1
28525723352,0,2,-6,-5,-5,-2,-3,-1
28525723352,-3,-6,-4,0,0,-2,0,1
28525744288,-3,0,2,-1,-1,-1,0,0
28525744288,-1,-10,-6,0,0,0,-1,-2
28525745816,2,23,11,5,1,0,0,-1
28525745816,3,16,3,-1,-3,-1,-2,-3
28525758053,-4,-21,-6,-1,-1,2,1,3
28525758053,2,8,0,0,-1,0,-1,0
28525766922,-7,-19,-9,-4,-3,-1,0,-2
28525766922,5,24,12,2,0,0,-2,-1
28525781247,3,13,4,-1,-1,-1,1,-1
28525781247,0,-10,0,1,-1,-1,0,0
28525788072,-7,-17,-11,-3,-1,-2,-3,-3
28525788072,4,0,4,1,0,2,3,3
28525804405,2,-1,-1,-1,0,0,-2,2
28525804405,-2,-5,-3,-2,-2,-3,-1,1
28525805897,-3,7,0,-1,2,1,-2,-10
28525805897,1,-6,-4,-3,-1,-1,2,23
28525817952,-2,8,9,2,1,0,0,-10
28525817952,-7,-17,-15,-9,-4,-4,-5,-7
28525826909,0,1,4,3,2,1,8,6
28525826909,-3,1,-3,-1,-1,-3,-3,-5
28525841935,-1,9,-1,-4,-3,-4,0,2
28525841935,-1,4,2,-3,-4,-2,-2,-4
28525843327,-1,0,-2,-1,-2,-3,-4,-6
28525843327,-1,-9,1,1,2,1,2,-3
28525871884,-2,-3,-5,-3,-2,-1,-5,1
28525871884,-3,-5,-2,-2,0,-1,-1,-3
28525873328,6,4,-1,-4,-3,-5,-10,-6
28525873328,-2,-5,-5,0,0,2,7,6
28525878005,2,5,8,2,1,-1,-2,2
28525878005,-8,-3,-3,-5,-3,-2,-4,-7
28525886900,3,-6,-6,-5,-3,-4,-2,-1
28525886900,-2,-1,3,5,3,2,2,6
28525901093,-2,5,5,1,2,1,-3,-5
28525901093,-10,16,-1,-5,-6,-5,-1,-10
28525907973,2,-6,-2,-1,-3,-3,-1,1
28525907973,-11,-9,-4,-2,-1,-3,-2,-14
28525924366,7,1,2,3,3,3,7,12
28525924366,0,-7,-2,-2,1,-3,-2,-2
28525925904,-2,-8,-10,-3,0,0,0,9
28525925904,-6,-12,-7,-1,-1,-4,-4,-16
28525937919,-1,-4,-1,-2,-3,-3,-5,-5
28525937919,2,2,-3,0,1,1,4,6
28525946906,-4,-5,-3,-2,-1,0,-1,-2
28525946906,2,-1,1,-2,-2,-5,-13,-2
28525961148,-5,-24,-13,-4,-2,-1,0,-1
28525961148,1,16,17,3,1,1,7,13
28525967951,6,51,12,0,-2,0,0,0
28525967951,-7,-4,-5,-3,-2,-3,-11,-26
28525984361,3,-24,-13,-6,-4,-1,12,20
28525984361,-2,-15,5,5,2,2,-1,6
28525985816,-6,-7,-6,0,0,-2,-8,-11
28525985816,4,5,7,-2,-2,1,-3,-8
28526006844,-7,40,23,7,6,4,10,5
28526006844,26,48,27,4,0,1,8,13
28526008336,-4,3,1,-3,-3,-5,-1,-2
28526008336,-7,9,6,-3,-3,-6,-17,-10
28526021166,-7,-45,-29,-7,-3,-1,-2,-7
28526021166,8,8,-1,3,0,2,-1,-8
28526027948,14,7,13,5,4,4,2,11
28526027948,-16,4,-7,-4,-4,-3,10,6
28526044303,-5,-25,-16,-8,-3,-4,-7,-7
28526044303,-16,-30,-18,-10,-7,-9,-11,-17
28526045805,9,43,15,3,1,4,7,6
28526045805,5,-42,-13,3,2,-2,1,11
28526066843,-7,17,11,0,-3,-2,-1,-2
28526066843,4,15,1,0,1,-1,-4,-11
28526068382,2,-13,-4,0,-2,-4,-12,5
28526068382,4,8,2,-3,2,4,11,-3
28526081175,1,28,19,5,0,-1,-8,-13
28526081175,-5,-17,-19,-8,-5,-4,-1,7
28526088045,-26,-54,-19,-5,-2,-2,2,-5
28526088045,21,36,20,4,-1,1,0,11
28526104190,-2,-36,-27,-6,-1,-4,-10,-10
28526104190,-3,41,30,-2,-5,-3,-1,-5
28526105879,11,20,5,2,1,5,8,7
28526105879,2,1,-4,3,1,-1,-9,-4
28526126800,11,30,13,9,3,0,5,18
28526126800,-4,-35,-22,-13,-9,-7,-10,3
28526128310,-5,-15,-11,-7,-1,1,4,-4
28526128310,6,12,0,0,0,0,2,-2
28526149432,-12,-65,-32,-6,-3,-1,-5,-7
28526149432,28,102,86,23,8,4,5,9
28526150901,-10,-24,-15,-9,-6,-6,-13,-12
28526150901,-1,-38,-31,-15,-8,-3,2,-4
28526164327,18,19,20,15,7,9,9,15
28526164327,-34,-41,-29,-8,-4,-5,-14,-40
28526165809,-4,-10,-4,-1,-1,-2,6,9
28526165809,-25,-21,-13,-6,-3,0,7,10
28526186782,-6,11,-15,-14,-7,-6,-4,-14
28526186782,21,29,20,8,3,8,11,22
28526188278,-9,-24,-22,-6,-3,-6,-1,-3
28526188278,-8,7,1,-1,0,-4,-13,-6
28526201136,1,-10,1,4,2,3,8,8
28526201136,-4,-18,-16,4,4,1,0,8
28526207961,-1,-5,4,-4,-5,-4,-2,-17
28526207961,-4,-5,3,5,2,2,2,12
28526224326,1,41,12,-4,-3,-4,-6,5
28526224326,1,-10,-14,-1,-1,0,-6,-2
28526225904,-5,-14,-2,6,7,6,4,-5
28526225904,7,24,17,0,-4,-2,2,8
28526246793,-14,-35,-11,-2,-3,-2,-5,-22
28526246793,5,-11,-11,-7,-3,-4,-2,14
28526248304,-13,-52,-29,-3,-2,-2,-1,2
28526248304,10,44,23,3,4,4,-3,-10
28526260381,3,3,16,11,8,6,15,16
28526260381,-19,-50,-25,-8,-4,0,-1,-8
28526269304,22,32,6,-1,-5,-6,-9,-14
28526269304,-5,-12,-6,-1,-1,0,4,8
28526284356,-14,-16,-24,-19,-12,-10,-7,-8
28526284356,5,9,17,13,9,5,3,-3
28526285934,-11,-19,0,0,-2,-3,0,-8
28526285934,-2,10,-1,-6,-5,-1,3,6
28526306866,7,14,6,10,7,2,-8,-7
28526306866,-2,-45,-16,-13,-5,-4,5,7
28526308308,9,57,19,5,1,0,-1,-1
28526308308,-5,-10,-24,-13,-7,-7,-9,-10
28526320469,-7,-24,-6,0,-2,3,0,-6
28526320469,-4,-5,-11,-4,-3,-1,-1,-6
28526329320,-7,4,13,-3,-1,2,3,-7
28526329320,10,13,3,-3,-2,-6,-15,3
28526344236,8,14,-2,-4,-3,-1,4,0
28526344236,-9,-7,-21,-10,-11,-11,-4,3
28526345791,2,22,13,0,-1,0,-3,1
28526345791,0,1,5,4,2,1,2,-14
28526366792,-9,16,-5,-13,-11,-13,-21,-1
28526366792,-5,-42,-19,5,4,1,-9,-18
28526368327,0,12,-3,0,0,0,1,-12
28526368327,6,-20,6,7,6,7,21,30
28526380493,15,32,15,3,3,6,1,-1
28526380493,5,16,3,-2,-2,-2,-2,11
28526389329,-9,-21,-9,1,4,3,-1,-8
28526389329,17,25,15,3,1,-1,-15,-14
28526404293,-3,-48,-17,-6,2,7,21,18
28526404293,-2,39,36,15,5,2,6,7
28526405813,9,23,9,-7,-5,-4,1,14
28526405813,-7,-27,-11,-3,-4,-3,-8,-9
28526427157,-1,6,13,9,4,2,5,0
28526427157,2,15,-24,-21,-10,-8,-6,-8
28526428728,12,-27,8,6,0,-3,-12,21
28526428728,5,48,19,10,3,6,9,-15
28526440434,-22,-52,-40,-19,-10,-9,-7,-3
28526440434,-4,-47,-1,4,4,5,14,19
28526449357,2,9,-4,0,3,3,10,22
28526449357,-11,-10,11,8,6,8,20,-4
28526464305,-3,-12,-12,-7,-5,-2,-8,-13
28526464305,20,66,41,14,10,6,-3,-3
28526465822,-11,-32,-13,-2,3,1,-10,0
28526465822,-6,-24,-16,-2,-4,-5,-2,-14
28526486808,6,16,11,-2,-2,3,17,25
28526486808,3,-14,11,3,-3,-4,-3,0
28526488278,-16,-25,-20,-7,-4,-3,-5,0
28526488278,-2,0,-2,-6,-4,-6,-6,-7
28526500452,-8,-8,-2,4,2,-4,-10,-23
28526500452,-2,-63,-23,-14,-3,1,-1,1
28526509361,17,53,23,3,-7,-4,7,3
28526509361,-11,-17,6,11,9,3,-4,6
28526524322,3,7,-2,-8,-1,-2,-13,4
28526524322,-6,-16,-17,-6,-6,-3,12,4
28526525906,-1,5,15,7,2,0,-6,-14
28526525906,-5,8,-15,-20,-12,-11,-13,-4
28526546664,12,30,26,14,5,-1,-18,-9
28526546664,-24,-10,-21,-10,-7,-14,-39,-30
28526561113,0,-24,-19,-5,2,13,37,12
28526561113,6,15,2,-5,-9,-9,-9,-2
28526561848,4,26,24,11,6,5,5,21
28526561848,-5,13,1,-1,2,3,10,-4
28526569315,-9,-40,-15,-4,-7,-8,-12,15
28526569315,-11,-8,3,4,5,6,6,-6
28526584316,2,1,-1,-2,-5,-6,-3,-2
28526584316,-5,-30,-9,4,2,4,-3,-8
28526585904,10,49,20,5,1,1,2,4
28526585904,7,-2,8,5,3,2,6,9
28526606690,-18,-28,-41,-20,-12,-13,-15,-5
28526606690,-3,5,-2,-5,-3,2,11,-1
28526608289,11,8,0,-2,1,0,-4,0
28526608289,4,6,2,2,0,-2,-11,1
28526620443,10,17,4,4,-1,0,13,1
28526620443,2,-5,-9,-8,-2,0,1,0
28526629333,2,-21,-7,5,3,-1,-9,2
28526629333,-13,-26,-8,-3,-2,-2,-6,-15
28526645134,-1,-5,5,6,3,4,8,-8
28526645134,6,15,3,4,2,2,13,9
28526646516,-8,-9,-5,-9,-6,-3,-8,-11
28526646516,-2,-14,-12,2,0,0,-3,-2
28526666821,3,21,14,-2,-2,0,-5,-4
28526666821,-13,-46,-17,-2,0,-1,-4,-4
28526668342,5,39,24,6,-1,-2,-1,-9
28526668342,1,-5,-19,-10,-3,-3,6,17
28526680351,2,17,17,5,4,3,6,1
28526680351,-9,-6,-7,-2,-1,1,-4,-13
28526689311,7,29,0,4,3,2,8,9
28526689311,-5,-18,-8,-2,-3,-7,-9,-2
28526704630,7,-23,-7,-1,6,10,12,7
28526704630,18,52,32,9,0,-5,-10,14
28526706263,-34,-64,-21,-10,-4,0,8,-20
28526706263,5,29,17,4,2,2,2,-4
28526726693,2,-10,-7,1,-1,0,-3,0
28526726693,-9,-13,-2,-2,-3,-5,-8,-18
28526728322,11,18,6,3,1,0,2,11
28526728322,8,6,2,-7,-5,-5,-7,10
28526740450,-2,-3,-11,-9,-5,-2,4,-3
28526740450,6,19,0,-1,1,3,3,4
28526749361,3,5,9,7,4,1,1,1
28526749361,-5,-11,-10,-4,1,2,4,1
28526764451,-8,-15,-8,1,0,-6,-10,-6
28526764451,-11,-52,-18,-7,-4,-3,-4,-3
28526765825,15,97,59,11,5,4,5,-2
28526765825,-10,-45,-24,-9,-7,-5,-3,-1
28526786783,5,15,-3,-3,-4,-5,-7,-6
28526786783,-3,-7,-5,2,2,1,0,-3
28526788277,-8,-30,-17,-4,-3,-2,0,2
28526788277,-2,-7,-9,-8,-6,-1,5,-5
28526800445,1,3,3,-2,-5,-8,-14,2
28526800445,7,18,7,9,4,4,12,8
28526809364,-1,-38,-19,-11,-4,-6,-9,-6
28526809364,-3,-11,2,8,4,4,6,3
28526823622,-11,-1,-5,-8,-5,-4,-12,-12
28526823622,8,37,7,-2,-3,-1,6,13
28526830471,-9,16,2,-5,-7,-9,-17,-22
28526830471,11,25,10,-1,-4,-2,-1,6
28526846795,-2,19,12,3,0,2,10,-6
28526846795,4,-9,-6,4,2,4,5,15
28526848306,-6,-14,-16,-8,-3,-5,-8,-7
28526848306,-5,6,-3,-3,-3,-3,-3,-15
28526860439,-5,-22,-3,5,2,1,5,1
28526860439,5,-7,-7,-4,-2,1,-8,-5
28526869335,0,-10,5,2,0,-2,-9,-3
28526869335,11,27,11,-1,2,4,15,26
28526883579,-6,-9,-2,3,-2,-3,-5,0
28526883579,-4,-4,-4,-5,-1,-4,-4,-6
28526890497,-2,-31,-3,11,4,7,9,10
28526890497,3,9,-4,-6,-7,-5,-4,-1
28526906797,-9,-6,-1,-5,-4,-4,-4,-9
28526906797,-5,-27,-13,-3,0,-3,-7,-12
28526908282,-2,33,16,-3,-3,-1,3,15
28526908282,-16,-47,-34,-15,-7,-8,-7,-13
28526920491,5,26,14,3,0,0,2,-4
28526920491,1,4,3,0,-2,-2,-6,-3
28526929308,-9,-18,-13,-3,-1,-2,1,-13
28526929308,5,4,4,6,3,5,2,14
28526943678,-6,-27,-9,-1,4,3,7,3
28526943678,-7,16,0,-5,-5,-4,-2,-9
28526950510,9,19,10,0,-1,-1,0,-2
28526950510,2,4,2,2,1,1,2,12
28526966818,-9,-47,-26,-9,-3,-2,-4,-6
28526966818,19,102,43,12,3,2,9,4
28526968326,-3,-26,-31,-9,-5,-5,-8,-10
28526968326,-5,2,-5,-5,-4,-6,-8,-1
28526989283,9,29,19,-3,-5,-5,-5,2
28526989283,-12,-33,-17,-5,-1,-2,1,2
28526990794,5,21,11,1,0,0,4,4
28526990794,2,18,10,5,-1,-3,-8,-13
28527003912,7,19,10,5,4,2,5,8
28527003912,-2,-24,-11,-4,-2,-1,0,-7
28527011148,-1,40,14,3,4,3,5,14
28527011148,-3,0,12,3,0,3,-7,-18
28527026131,-5,-20,-6,-4,-3,-2,-3,-2
28527026131,6,-29,-3,0,-1,-2,5,32
28527026772,4,13,-5,-5,-2,2,1,-9
28527026772,-4,-18,6,6,6,5,2,3
28527048598,-3,-7,-21,-7,-3,-1,-3,-9
28527048598,-6,-1,4,-3,-5,-6,-9,-10
28527049343,-6,-47,-23,-7,-5,1,14,10
28527049343,3,8,8,4,1,-2,-3,-1
28527062919,-7,-29,-15,-1,1,-2,-10,-15
28527062919,6,43,17,6,3,4,8,7
28527071185,-4,-19,-3,-1,0,-4,-10,-9
28527071185,11,4,3,2,6,8,22,12
28527086115,-8,-12,-24,-11,-7,-5,-2,-4
28527086115,3,0,14,5,0,3,4,-4
28527086782,-16,-44,-27,-10,-7,-9,-25,-14
28527086782,8,-3,-16,-5,-1,0,5,7
28527108492,7,60,42,16,4,5,13,7
28527108492,7,60,38,-1,3,1,0,-3
28527109283,-2,-5,-14,-3,-3,-4,-8,-3
28527109283,-16,-41,-16,3,3,5,3,-8
28527122994,-3,-35,-11,1,4,4,3,6
28527122994,5,19,13,6,-2,-4,-20,-19
28527131145,1,-12,-9,-6,-3,-2,11,9
28527131145,0,25,9,-3,-4,-6,-15,-6
28527146152,4,-6,-2,1,2,2,5,0
28527146152,-17,-44,-22,-4,-2,2,3,8
28527146835,8,18,21,8,0,-3,-2,0
28527146835,1,-11,-12,-7,-4,-4,2,5
28527168618,-3,0,-2,-4,-4,-4,-4,8
28527168618,-6,-33,-21,-1,2,-1,-5,-5
28527169317,2,35,23,2,-3,-3,-4,-10
28527169317,4,4,12,6,2,4,8,11
28527182947,11,53,27,4,0,-2,2,4
28527182947,-9,-3,-13,-8,-3,-3,-5,-13
28527191233,4,0,16,13,8,3,5,18
28527191233,-9,-29,-15,-8,-5,-6,-7,-13
28527206120,4,14,11,3,-1,0,-6,-3
28527206120,-2,-19,-11,-4,-1,-1,5,3
28527206814,-14,-42,-24,-11,-7,-6,-13,-18
28527206814,-7,30,21,4,2,1,1,0
28527228682,-22,-69,-43,-11,-8,-4,-5,-8
28527228682,16,65,39,7,2,0,-4,-4
28527229290,7,23,14,8,5,5,7,13
28527229290,1,21,2,-4,-6,-6,0,-8
28527242973,-3,-16,-9,-6,-3,-3,-2,2
28527242973,-12,-31,-24,-4,-1,3,8,-6
28527251061,5,4,-9,-5,-3,-3,-6,-10
28527251061,-1,-6,4,3,0,-3,-1,0
28527266123,5,13,6,1,0,-4,-8,0
28527266123,-3,-21,-9,-4,-4,-4,-3,-2
28527266781,18,66,27,6,4,6,11,10
28527266781,-1,-15,-12,1,0,0,0,2
28527288596,0,-2,13,4,1,1,-4,-4
28527288596,-16,-55,-32,-13,-8,-7,-7,2
28527289298,6,33,14,5,5,6,8,3
28527289298,2,6,-1,-2,1,0,-6,-11
28527302979,-3,7,-6,-2,-3,-2,2,-3
28527302979,2,-13,6,0,3,-2,-5,0
28527311132,-8,-13,-11,-2,2,4,13,18
28527311132,-3,-21,-15,-5,-3,-3,-5,-7
28527326125,4,-1,1,-4,-1,1,-2,0
28527326125,-6,25,7,-2,-6,-6,-6,-10
28527326802,-10,-35,-15,-6,-5,-2,-3,-9
28527326802,8,16,4,0,1,2,5,2
28527348572,4,-3,-6,-3,-1,-1,-1,5
28527348572,7,22,-1,-2,-3,0,3,2
28527349315,-11,-22,-11,-5,-3,-6,-11,-15
28527349315,-4,-1,6,2,2,3,2,2
28527362973,-8,-14,-10,-6,-3,-5,-2,-3
28527362973,5,5,6,7,1,0,0,3
28527371107,-4,-17,-8,-1,0,2,6,5
28527371107,0,0,1,-1,-2,-2,-4,0
28527386097,1,-7,7,1,1,1,0,-2
28527386097,0,25,-1,1,2,3,3,0
28527386796,6,11,16,8,3,-1,-6,-6
28527386796,-9,-21,-12,0,5,7,17,16
28527408591,1,11,2,-5,-9,-6,-6,-4
28527408591,0,-9,5,4,5,4,0,-7
28527409267,-4,-22,-21,-8,-6,-5,-6,-21
28527409267,4,-1,13,7,-3,-5,-9,20
28527422947,8,25,-3,0,5,8,4,1
28527422947,-6,-23,-10,-6,-6,-5,2,5
28527431139,1,12,9,-1,-2,-1,1,0
28527431139,-12,-42,-25,-6,-5,-7,-13,-19
28527446142,4,17,20,7,-1,-2,-7,1
28527446142,-3,-13,-18,-2,3,3,12,8
28527446773,0,-7,-4,3,3,0,-2,-5
28527446773,0,-2,-6,-5,-5,-3,-3,-3
28527468565,-7,0,-7,-6,-5,-2,0,-6
28527468565,-3,5,7,-5,-5,-2,-4,-5
28527469274,-9,-31,-19,-7,-3,-2,-3,-2
28527469274,8,21,9,6,-1,-2,2,3
28527483600,5,4,6,6,6,3,8,6
28527483600,-7,0,-11,-11,-6,-7,-9,-3
28527484274,-1,-2,2,1,-3,-1,-8,0
28527484274,6,14,4,-5,-5,-2,4,-1
28527506095,-15,-21,-13,-8,-5,-3,1,-2
28527506095,0,-29,-5,2,0,-2,-5,-12
28527506772,6,27,15,5,2,5,9,16
28527506772,-8,-15,-6,-3,-1,0,0,-1
28527528545,4,25,3,0,-2,-4,-2,2
28527528545,-3,-22,-1,1,0,4,2,-3
28527529268,-7,-6,-10,-4,-5,-3,-9,-5
28527529268,1,5,5,-2,0,-3,-4,-9
28527542936,-2,-12,3,3,2,3,6,-2
28527542936,1,12,-1,-2,-1,-3,-4,2
28527551143,-1,2,8,3,-1,1,4,-4
28527551143,-2,3,1,-1,-3,-2,-4,0
28527566037,-5,-17,-11,-1,0,-1,-7,-4
28527566037,11,40,23,6,3,-3,-5,-5
28527566787,-7,-52,-41,-13,-3,-4,3,9
28527566787,0,25,21,5,0,-1,0,-4
28527588655,10,33,3,-5,-3,-3,-9,-10
28527588655,-8,-11,-1,2,0,4,19,29
28527589347,7,3,-3,-2,0,-1,1,-1
28527589347,-4,-14,-11,-8,-4,-4,-7,-7
28527602836,-1,-3,0,-1,-1,-1,-3,-4
28527602836,1,5,0,1,0,-3,-10,-9
28527611063,4,9,10,5,3,1,3,2
28527611063,-4,-6,-10,-7,-3,-2,-3,-3
28527626024,3,7,17,6,-1,1,5,8
28527626024,-2,-19,-19,-6,-3,1,3,-2
28527626811,-7,-22,-3,3,0,-2,0,0
28527626811,-2,1,-10,-8,-1,0,-5,-10
28527648683,3,26,28,9,0,-5,-1,3
28527648683,2,-5,-7,-2,-2,-1,-4,-1
28527649294,0,26,11,-2,-4,-2,-4,-6
28527649294,0,-2,3,6,5,4,2,1
28527662978,-9,-23,-17,-8,-5,-3,-8,-8
28527662978,4,4,4,0,0,-4,-6,5
28527671076,-4,1,-1,-8,-5,-8,-7,-8
28527671076,-6,-14,-8,-1,-5,-1,7,-2
28527686194,4,-9,-1,3,4,7,5,6
28527686194,-3,6,0,-1,-2,-5,-6,-6
28527686799,0,3,4,-6,-5,-3,-4,-4
28527686799,0,-6,-10,-3,-3,-2,-5,-2
28527708635,2,1,-5,-4,-2,-1,2,0
28527708635,1,10,4,2,2,2,-1,-5
28527709270,3,8,6,2,1,-2,1,5
28527709270,5,10,11,3,1,5,10,9
28527722967,-4,-3,-3,-2,-3,-2,-4,-5
28527722967,-8,-39,-14,-1,-2,0,2,-4
28527731116,1,18,4,-1,-4,-2,5,14
28527731116,1,-4,-5,5,3,0,-3,-1
28527746143,-7,-6,6,4,2,2,1,1
28527746143,2,3,-1,-4,-3,-3,-3,3
28527746784,-3,-10,1,6,5,6,3,-11
28527746784,-1,-4,-7,-7,-2,-2,4,8
28527768599,-1,-18,-13,-1,-1,-3,-1,0
28527768599,-7,-10,0,-1,-1,-1,-2,-6
28527769308,-4,-8,-9,-6,-5,-3,-6,-3
28527769308,0,-4,-2,1,2,-2,-6,-5
28527782893,2,15,16,2,-3,-2,4,4
28527782893,4,17,7,-5,-3,1,-1,-3
28527791145,-3,2,5,8,2,2,-5,-7
28527791145,0,-8,0,1,2,4,15,10
28527806099,3,-8,-10,-1,0,0,1,1
28527806099,0,3,-1,-2,-1,1,2,3
28527806801,0,0,-5,-8,-2,-1,-5,-2
28527806801,-4,19,14,2,-5,-5,-11,-8
28527828594,4,14,11,4,-2,-1,-5,2
28527828594,0,-3,-1,-2,0,2,8,0
28527829266,0,0,-1,3,1,1,3,1
28527829266,2,6,5,-3,-2,-4,-4,0
28527852346,-6,-13,-10,-7,-1,-1,-3,-4
28527852346,-4,0,0,4,1,-1,-6,-3
28527853772,-6,-22,-13,-5,-5,-4,2,0
28527853772,0,-5,-5,2,3,2,3,-1
28527866070,-2,5,6,2,1,-2,-5,-6
28527866070,1,6,1,-4,-3,2,4,3
28527866729,1,-2,12,8,2,1,2,7
28527866729,-1,4,-8,-9,-5,-5,-8,-5
28527888611,-6,-27,-13,-4,-1,-1,2,-6
28527888611,-2,-2,-7,1,0,1,-5,0
28527889293,1,17,5,0,-1,1,-1,-3
28527889293,5,21,11,1,-1,-3,-3,1
28527911737,-7,-15,-20,-5,-2,-3,-3,-3
28527911737,8,22,20,8,1,0,1,-1
28527912478,-6,-12,-8,-5,-1,0,-6,-7
28527912478,0,-3,6,5,1,1,1,2
28527926002,-8,-20,-28,-17,-7,-6,-5,-5
28527926002,-1,0,7,5,-2,-3,-4,-8
28527926820,-3,-1,4,0,-1,-2,1,9
28527926820,0,-3,-2,-3,-2,-2,-13,-10
28527948612,-3,-5,1,3,1,3,9,2
28527948612,6,9,-1,-8,-6,-7,1,11
28527949267,-5,-7,-5,-4,-3,-5,-11,-16
28527949267,-3,-36,-20,-5,0,4,15,11
28527971827,12,60,45,9,2,-1,-2,5
28527971827,-10,-37,-33,-8,-6,-4,-4,-4
28527972499,7,22,12,3,2,3,3,0
28527972499,-1,-9,-3,-1,-2,-3,-6,-1
28527986072,-7,-10,-5,-2,-1,1,3,-5
28527986072,1,1,3,2,2,1,-1,-1
28527986773,-5,-15,-12,-8,-7,-3,-1,-1
28527986773,-3,0,-3,0,-2,0,-4,-5
28528009139,-1,-18,-12,-6,0,-2,-1,1
28528009139,5,31,12,2,1,-1,-3,-3
28528009946,-8,-17,-8,-1,0,1,-1,-3
28528009946,-7,5,2,-5,0,-1,-7,-4
28528031738,9,37,25,13,1,2,3,3
28528031738,-3,-8,-2,0,0,0,1,1
28528032485,-1,-9,-11,1,0,-1,-3,-3
28528032485,-1,7,6,1,1,0,2,3
28528046027,-1,-11,-1,1,0,1,-4,-2
28528046027,-6,-3,-2,-1,-3,-5,-7,-3
28528046785,-2,-9,-6,-4,-3,-2,1,-6
28528046785,-2,0,-5,-1,-2,0,0,4
28528076782,0,-16,-14,-5,-3,-2,-1,-1
28528076782,0,35,20,2,-2,-2,-2,-3
28528077415,5,-1,2,-4,-2,-2,0,1
28528077415,-3,-6,-5,-1,-2,-2,-2,-4
28528091771,-2,-5,0,-3,-3,-1,-3,-2
28528091771,-3,-27,-17,-2,0,0,-2,-2
28528092476,0,18,11,-1,-3,-2,-1,1
28528092476,3,14,14,6,0,-1,1,-2
28528106005,-3,-14,-5,4,6,5,1,2
28528106005,-5,-8,-6,-2,-2,-1,0,-3
28528106777,1,3,-3,-2,0,-2,0,5
28528106777,-1,-1,0,-3,-4,-3,-3,-2
28528129295,-5,-27,-20,-10,-6,-6,-5,-4
28528129295,2,23,12,-2,-1,1,0,1
28528130001,8,23,12,10,4,1,1,3
28528130001,-3,-3,-4,-3,2,1,0,-4
28528151763,-1,-10,10,7,-2,-3,-4,0
28528151763,-6,-19,-9,-1,4,1,0,-2
28528152445,0,-5,-6,-6,-4,0,-1,-2
28528152445,-3,-3,-1,-1,-1,0,0,-2
28528166065,-3,5,-7,-6,-1,-3,-1,-1
28528166065,3,4,4,-3,-2,-2,0,0
28528166765,-3,0,2,2,-1,0,-2,-1
28528166765,1,-5,-2,-2,-2,-2,-4,-3
28528189139,-4,-3,-8,-4,-4,-2,0,-2
28528189139,-5,11,14,3,-2,-2,-2,-3
28528189944,-1,-9,-3,1,5,4,2,0
28528189944,1,6,8,0,0,-1,-1,-1
28528211737,1,14,2,1,-3,-3,-3,-1
28528211737,-3,-22,-13,-4,-2,-2,0,-1
28528212477,-2,4,1,-1,-1,-2,-1,-2
28528212477,3,6,1,-1,-2,-1,0,-1
28528226189,-3,-7,-6,-4,-2,-2,-2,-2
28528226189,1,-4,-6,-3,-4,-4,-1,1
28528226772,-2,-3,0,-1,-1,-1,-1,-2
28528226772,1,1,-2,0,-1,-1,1,-1
28528248504,-4,-8,-12,-4,-2,1,-1,-2
28528248504,3,14,6,3,3,0,-1,-1
28528249295,0,-4,-2,-3,-1,-2,-1,0
28528249295,0,1,0,0,-1,1,1,2
28528271739,2,1,0,-2,0,-1,-1,0
28528271739,-9,-20,-10,-2,-2,0,-2,-3
28528272462,-2,-7,-8,-2,-1,-1,0,-1
28528272462,2,20,9,2,-3,-2,-2,-3
28528286096,5,20,15,2,1,0,1,0
28528286096,2,-7,-2,0,2,2,1,1
28528286768,0,-1,0,1,-2,-4,-2,-2
28528286768,-2,-17,-12,-5,-1,0,-2,0
28528308444,-6,-18,-11,-4,-3,-3,0,0
28528308444,8,18,2,-2,0,-2,-2,-2
28528309218,0,-2,2,3,0,4,3,3
28528309218,-1,1,0,-1,0,0,-1,-3
28528331764,3,7,5,1,0,-1,-1,1
28528331764,-6,-23,-12,-6,-3,-2,-1,-2
28528332458,0,-2,-7,-2,-2,-2,-2,-1
28528332458,3,6,2,3,2,1,1,3
28528346048,1,9,6,1,3,3,3,1
28528346048,-4,-2,2,-1,-5,-2,-1,-2
28528346751,4,0,-6,-5,-4,-2,-2,1
28528346751,-8,-7,-5,0,0,-1,0,-2
28528369053,-2,-6,-3,-2,-1,-2,-2,-2
28528369053,-5,-5,3,2,1,0,-2,-2
28528369712,6,11,7,-1,0,-1,-1,2
28528369712,-8,-13,-7,-3,-3,-3,-1,-2
28528391771,5,4,-11,-9,-4,-3,-3,-2
28528391771,2,4,0,1,-1,-1,2,0
28528392448,-7,-10,-4,-4,-3,-3,-2,-4
28528392448,4,4,1,2,2,2,0,-1
28528406066,-7,-2,2,0,0,-2,-1,0
28528406066,5,9,-1,-2,1,4,1,1
28528406734,-13,-9,-3,2,-1,-1,-1,-2
28528406734,4,-2,-2,-5,-4,-3,-3,-2
28528429229,-1,-9,1,2,-1,-2,-2,-1
28528429229,6,23,2,1,1,1,0,1
28528429992,-2,-8,-3,-3,0,-2,-1,-1
28528429992,-6,10,3,3,0,0,0,-3
28528451830,-8,-24,-8,0,-1,0,0,-1
28528451830,8,20,1,-7,-3,-1,1,2
28528452400,-1,-1,-2,-3,-3,0,0,0
28528452400,-5,-5,-1,0,-5,-4,-4,-4
28528466094,0,8,7,0,-1,-2,-1,-1
28528466094,-6,-16,-8,-1,-2,-2,-1,-2
28528466800,0,0,-2,-1,-1,-1,-2,-2
28528466800,-1,-9,-2,-1,-1,-2,-1,0
28528489221,3,9,2,-2,0,0,0,-1
28528489221,-3,-6,-1,3,1,-3,-1,-2
28528489938,1,4,1,-1,-2,0,-2,-1
28528489938,0,-5,-4,-2,0,-1,0,-1
28528511798,0,10,1,1,-1,-1,-2,-1
28528511798,-5,-11,-2,-2,1,-1,-1,-1
28528512477,-2,-2,-2,0,0,1,-1,1
28528512477,0,-1,2,1,-1,0,-2,0
28528525380,-2,-4,-7,-4,-4,-4,0,-2
28528525380,-2,-5,-1,0,-1,-1,0,-3
