27457367818,-4,-4,-2,-2,-1,0,-1,-3
27457367818,-2,4,0,0,-2,-2,-3,-2
27457369596,-1,-2,-4,0,0,-1,0,1
27457369596,0,-3,-4,-2,-3,-2,-3,-6
27457373389,0,-2,-1,-1,-2,-2,0,-2
27457373389,-3,-8,-4,-2,-3,-1,-1,-1
27457374024,1,7,1,-2,-2,0,0,-2
27457374024,-1,-4,-3,-1,-2,-2,-2,0
27457375598,-7,2,-2,1,-1,-2,0,0
27457375598,4,-1,-2,0,0,0,0,-5
27457387515,-4,-6,-1,0,-2,-2,-2,-3
27457387515,-3,-5,-2,-1,-1,0,0,0
27457395259,3,7,3,0,-2,-1,-2,1
27457395259,-4,-24,-7,-1,0,0,-2,-1
27457402423,0,15,7,1,-1,-1,-1,-3
27457402423,-2,1,0,0,0,-2,-2,-3
27457420341,1,-4,-4,-2,-1,0,-1,5
27457420341,1,3,2,-2,-2,-2,-1,0
27457433923,-2,-6,-3,-2,-1,-2,-2,-2
27457433923,0,0,1,0,0,1,3,0
27457436792,-9,-3,-2,1,0,-1,0,1
27457436792,1,2,-2,0,-1,-1,-1,-1
27457453680,-3,-5,-4,-2,-1,-2,-2,-3
27457453680,-1,8,4,0,-1,-2,-2,2
27457486552,-1,-1,0,0,-1,-1,-2,-2
27457486552,4,6,5,0,0,-1,-2,2
27457493137,-3,-1,-1,0,0,0,-1,-1
27457493137,-2,-6,-4,0,0,0,0,-1
27457493919,-1,-6,-1,-1,1,1,0,-1
27457493919,1,8,2,0,-1,-1,-1,-3
27457494721,1,7,0,-1,-1,-3,-2,-2
27457494721,-5,-5,-1,-4,-3,-4,-3,-4
27457498609,-1,-5,-5,-2,-1,-2,-2,-1
27457498609,0,-6,-4,-2,-2,-2,-2,-6
27457514831,-1,-2,-1,-2,-2,-3,0,-1
27457514831,-6,-1,-3,-2,-3,0,-1,-2
27457521157,-1,1,-2,0,-3,-2,-1,-1
27457521157,-3,-1,-2,-1,-1,-2,-2,-2
27457528652,2,-2,0,-1,-2,0,-1,-2
27457528652,1,-2,-1,1,-2,-3,-1,0
27457544181,2,1,-1,-2,-3,-2,-3,2
27457544181,-4,-6,-2,1,1,-1,0,-2
27457559281,-4,-7,-6,-2,-2,-2,-2,-2
27457559281,4,2,1,0,0,-1,-2,0
27457566117,-5,-8,-2,-1,-3,-1,1,-2
27457566117,0,7,1,-1,-3,-3,-1,0
27457582672,-2,-4,0,0,-1,-1,1,-2
27457582672,3,1,-2,-1,-1,-1,-2,0
27457584017,1,1,-1,0,-1,-1,-1,-3
27457584017,-7,-11,-5,-3,-2,-1,-2,-2
27457605045,-4,-1,-1,0,0,0,0,0
27457605045,-1,-4,-1,-1,-1,-1,-3,-4
27457606530,-1,4,0,2,-2,-3,-1,-3
27457606530,0,1,3,0,-2,1,-1,2
27457619258,0,-1,-3,-1,-1,-1,-2,1
27457619258,2,0,-2,-2,-1,-1,0,0
27457626155,-3,-3,-5,-2,1,0,-2,-2
27457626155,0,-5,-6,-1,-1,-2,1,-1
27457642455,0,-2,1,-1,-3,-2,-2,-2
27457642455,-3,-3,-2,1,-1,-1,2,2
27457644006,-1,1,2,-2,1,3,2,2
27457644006,4,1,-3,-2,0,0,-1,2
27457665000,0,1,2,2,2,2,0,0
27457665000,-3,3,0,1,0,-1,-2,-2
27457666479,0,0,2,1,-1,-2,0,2
27457666479,2,-2,0,-1,-2,0,0,3
27457678538,0,1,-2,-1,-3,0,-1,-4
27457678538,1,-1,-2,-1,-1,1,0,0
27457686046,-1,1,1,0,0,-2,0,1
27457686046,-8,-2,1,-1,-1,0,1,-7
27457701698,11,2,0,0,1,0,-1,6
27457701698,-5,2,-4,-5,-1,-2,-2,-1
27457702505,7,-1,-2,-3,-1,-1,-1,3
27457702505,-9,-3,-1,-1,0,-1,-1,-9
27457724167,-8,-2,-2,-1,-1,0,-1,-7
27457724167,11,-4,1,-2,0,-3,0,7
27457724920,-3,2,-4,0,0,-1,-1,-6
27457724920,-1,0,-2,0,-1,-2,-2,-4
27457738621,-3,-4,-1,-1,-1,-2,-1,5
27457738621,1,3,0,-1,-2,1,-1,-7
27457746007,-2,-3,0,-2,-2,-1,-1,3
27457746007,4,-7,-4,0,-1,0,-1,3
27457761790,7,9,3,0,-1,-2,2,23
27457761790,-16,-7,-1,-2,1,1,-2,-19
27457762480,-2,-3,0,1,-2,-3,-3,-10
27457762480,8,5,0,3,1,1,4,16
27457784080,-5,-7,-3,-2,-2,-2,-2,-2
27457784080,-2,1,-1,-2,1,-2,-3,4
27457791866,0,-2,0,0,1,0,-4,-11
27457791866,-2,0,2,0,-1,-2,-3,-2
27457798644,-4,-1,-1,-2,-1,-1,-3,-9
27457798644,0,-3,0,0,-3,0,0,0
27457806150,-6,0,-3,-2,-1,-1,0,1
27457806150,-3,-3,-5,-5,-3,-3,-2,-2
27457821772,-1,-3,-2,0,0,0,0,-3
27457821772,-3,-2,0,0,-3,-2,-3,-4
27457822485,2,10,8,2,-1,-4,-1,8
27457822485,-1,-7,-1,-1,0,2,1,1
27457844288,-1,1,-4,-1,1,1,-2,-9
27457844288,-1,-4,-1,3,0,0,1,5
27457844993,2,-4,-7,-5,-1,-1,0,0
27457844993,0,0,2,1,0,-2,-2,1
27457858678,-9,-9,-3,-2,-2,-3,-2,-14
27457858678,-3,-10,-8,-2,0,-2,0,2
27457866152,8,14,9,-1,-2,-1,-1,1
27457866152,-3,0,-3,-3,-4,-2,-3,-6
27457881725,2,6,4,-1,-3,0,-1,2
27457881725,-1,-2,-1,-2,-3,-2,-1,1
27457882513,-6,-1,-4,-1,-3,-1,0,-4
27457882513,0,-7,-7,-6,-5,-4,-2,-1
27457904330,1,2,-1,-4,-3,-5,-1,-4
27457904330,1,-3,2,11,6,5,1,1
27457905023,-2,-12,-2,2,2,2,0,1
27457905023,-6,4,2,0,-4,-4,-1,-6
27457918784,3,7,1,0,1,0,2,1
27457918784,-2,-5,-6,-5,-4,-3,0,-2
27457926186,-5,2,4,2,0,0,1,0
27457926186,2,-2,-3,-2,2,-1,0,-1
27457943209,0,-5,-3,-4,-4,-3,-1,-3
27457943209,-1,-1,-2,-4,-4,-3,-1,-1
27457944043,-2,-9,-9,-6,-8,-4,-2,0
27457944043,-2,-7,0,1,-3,-3,-1,-1
27457964324,2,9,3,11,12,8,3,3
27457964324,2,12,5,2,1,0,-2,0
27457965021,-4,-10,-2,-5,-3,-1,-1,-1
27457965021,-3,-7,0,-5,-6,-6,-2,-2
27457978675,-5,-6,-2,2,-1,-1,-3,-2
27457978675,-2,-19,-12,-1,1,2,0,0
27457986149,6,22,12,3,0,1,1,1
27457986149,4,11,6,2,3,3,1,0
27458001741,-2,-4,1,-3,-5,-5,-3,-2
27458001741,-3,-14,-9,-8,-3,-2,-2,-2
27458002507,-4,-1,-9,-4,-2,-3,-2,0
27458002507,-4,-4,-4,1,-1,-4,-1,-6
27458024324,0,-5,1,-3,-1,2,0,2
27458024324,3,5,5,0,2,4,1,1
27458024998,0,-5,-2,1,3,3,1,1
27458024998,-2,3,0,0,3,2,0,1
27458038780,5,-3,-6,-5,-7,-6,-2,-1
27458038780,-5,13,2,-6,-5,-6,-1,0
27458046198,1,-2,2,6,4,6,2,0
27458046198,0,-1,-1,1,0,0,1,0
27458061772,-4,-7,-1,-3,-3,-2,-1,-2
27458061772,0,3,3,-1,-2,-3,0,3
27458062526,-1,-7,-4,-4,-1,-2,-2,-3
27458062526,-4,-10,-9,-10,-10,-6,-3,-2
27458084321,-4,6,2,-2,-5,-7,-2,0
27458084321,-1,0,-4,-1,-6,-4,-2,-3
27458085079,-1,0,3,10,18,14,4,0
27458085079,2,-1,6,4,10,10,2,1
27458106716,-5,-16,-7,-2,0,-1,-2,-2
27458106716,2,18,6,-5,-9,-8,-4,-4
27458107493,-5,-12,-7,-9,-8,-8,-5,-4
27458107493,3,10,2,1,0,-1,0,0
27458121798,6,4,-1,0,-2,-2,-2,0
27458121798,-1,-1,0,2,0,0,-1,0
27458122513,0,0,-1,-1,-3,-3,-1,1
27458122513,-2,-3,-6,-4,-1,-2,-1,1
27458144335,-6,1,-5,-4,-3,-2,-1,-5
27458144335,-3,-8,-9,-14,-9,-5,-2,-4
27458145017,-3,0,-2,-1,-8,-3,-2,-3
27458145017,4,12,14,23,17,4,1,3
27458166829,0,0,3,4,7,8,5,2
27458166829,-1,-1,-2,-1,-2,0,-2,-1
27458167500,-3,-9,-5,-8,-9,-11,-2,-3
27458167500,-3,-10,-7,-5,1,4,1,-1
27458181768,-4,-5,-5,-8,-9,-5,-3,-2
27458181768,-1,2,-2,-3,-9,-6,-4,-1
27458182502,1,1,5,7,2,1,1,-1
27458182502,2,0,-3,10,9,5,2,0
27458212375,-1,8,3,2,6,1,1,-1
27458212375,-2,-8,-6,-5,-4,-3,-3,0
27458213140,-2,-2,-4,-5,-7,-6,-5,-1
27458213140,0,-3,-2,-7,-8,-5,-3,-2
27458226651,-1,-5,-9,-9,-8,-4,-2,-1
27458226651,0,14,11,5,5,0,-1,0
27458227420,4,7,3,5,6,4,1,1
27458227420,-3,-22,-10,-7,-4,-4,-2,-3
27458241762,-3,-7,8,10,4,-2,-1,-3
27458241762,0,11,2,2,6,6,2,1
27458242451,-1,-2,-3,0,4,5,2,0
27458242451,-3,2,1,-1,-3,-2,-2,-1
27458264218,1,-3,-2,-2,-3,-3,-2,0
27458264218,-3,-8,-3,8,6,4,0,-1
27458264964,-2,-3,-3,-8,-4,-3,-2,1
27458264964,-5,-14,-12,-12,-11,-6,-4,-3
27458286794,5,20,6,-5,-3,-2,-1,0
27458286794,-1,-1,4,5,4,2,1,-1
27458287470,0,2,1,3,2,-2,-3,-1
27458287470,-2,2,3,1,-1,-3,-1,0
27458301828,-3,-8,-7,7,7,5,0,0
27458301828,-4,-3,-5,-10,-5,-4,1,-3
27458302454,1,-10,-6,-7,-10,-6,-3,1
27458302454,6,18,12,5,-4,-1,-1,0
27458324273,2,-3,0,4,7,9,2,1
27458324273,-2,-2,0,4,3,3,0,-1
27458324981,-8,-10,-9,-7,-6,-6,-3,-3
27458324981,-8,-10,-2,-1,-1,-2,-1,-2
27458346779,-6,5,-2,-6,-6,-6,-3,-3
27458346779,0,-9,-6,0,3,1,0,2
27458347461,2,11,8,11,8,2,1,0
27458347461,-3,-5,-6,-10,-9,-5,-3,-2
27458361817,0,-4,-2,-6,-7,-2,-1,-1
27458361817,-2,-9,-1,5,3,1,1,-2
27458362490,1,11,3,0,3,1,1,-2
27458362490,3,9,-3,-4,-4,-2,0,-1
27458384317,-3,-7,0,1,1,0,-1,-1
27458384317,1,4,-2,1,3,-1,0,0
27458384968,1,-7,-9,-7,-7,-4,-3,0
27458384968,-5,-1,-2,-6,-5,-4,-2,-7
27458406809,1,0,-1,-5,-7,-7,-2,-1
27458406809,-1,-8,-2,2,4,5,2,1
27458407540,0,4,5,3,3,0,-1,-1
27458407540,0,0,-6,-6,-2,-2,-1,0
27458421803,2,-4,4,7,2,2,1,2
27458421803,1,14,13,11,6,1,-2,-1
27458422476,-4,-13,-7,-1,-1,-2,-3,-4
27458422476,-1,6,-4,-6,-2,1,1,1
27458444320,-2,-5,-6,-11,-9,-7,-2,-2
27458444320,1,-3,2,9,4,2,-1,1
27458445039,1,2,0,-4,0,0,0,1
27458445039,-1,-1,4,2,-5,-3,-2,-1
27458466730,-3,0,3,7,8,3,-1,-1
27458466730,0,-2,-2,-10,-8,-4,-2,-3
27458467469,-5,-5,-8,-14,-10,-5,-3,-4
27458467469,-1,-11,-11,-13,-11,-7,-3,-3
27458489320,0,5,0,7,5,3,0,0
27458489320,6,6,11,1,4,5,2,1
27458489990,-1,-2,0,4,-1,-2,0,1
27458489990,-3,-7,3,2,7,8,1,1
27458503693,-2,-8,-5,2,1,1,-2,-3
27458503693,-2,7,-5,-8,-7,-6,-3,-1
27458511767,-2,-1,-2,-2,1,-1,-1,-2
27458511767,0,4,0,4,-2,-2,-1,1
27458526815,0,-8,-3,-5,-2,1,-1,-4
27458526815,-1,0,1,-1,-1,0,0,-1
27458527547,-2,0,-3,-7,-8,-3,-1,-1
27458527547,0,-4,-4,-1,-2,-1,-3,0
27458549228,0,3,5,7,6,1,2,-1
27458549228,0,-5,-2,3,0,0,0,0
27458549924,0,0,6,5,4,2,0,0
27458549924,0,2,2,1,3,-1,-1,-1
27458563521,-1,2,-4,-7,-4,-4,-2,1
27458563521,-4,-9,-11,-13,-13,-7,-3,-3
27458571937,0,3,3,-1,-2,1,0,-1
27458571937,0,4,9,10,5,2,1,0
27458586823,0,4,0,-1,-1,1,0,0
27458586823,-3,-6,-10,-3,-2,-4,-2,-3
27458587497,0,-5,-1,1,0,-2,-1,-1
27458587497,3,13,9,3,1,0,5,6
27458609262,-3,-8,-7,-1,-1,-2,-3,0
27458609262,0,-5,-3,-3,0,-3,-1,1
27458609965,-4,1,-5,-7,-5,-6,-3,-3
27458609965,-1,-10,-10,-2,0,3,-1,-3
27458623644,1,10,13,-3,-7,-3,1,3
27458623644,-4,-1,8,16,12,7,1,-1
27458631857,5,8,8,4,2,1,0,3
27458631857,-2,-6,-11,-6,-5,-5,-2,-3
27458646710,-1,-5,-7,-5,-1,-2,-2,-1
27458646710,2,6,4,-8,-10,-7,-7,-6
27458647531,-5,-15,-8,-3,-4,-4,0,0
27458647531,3,15,11,4,5,3,-3,-7
27458669397,-2,-14,-14,-8,-7,-4,2,-2
27458669397,-2,3,-7,-13,-10,-5,-2,1
27458669949,-3,-3,-4,5,4,3,-1,0
27458669949,3,5,4,2,2,-2,-1,3
27458692366,-1,7,7,5,4,3,2,1
27458692366,-6,-12,-16,-6,-5,-2,-2,-2
27458693160,-4,-7,-4,4,4,1,0,-3
27458693160,3,7,6,-3,-6,-2,-2,-2
27458706681,0,0,-3,5,5,0,-1,-4
27458706681,2,5,5,-5,-2,-3,-7,2
27458707461,-3,-5,-6,-4,-5,0,6,-5
27458707461,1,-13,-15,-3,1,-1,0,0
27458729180,-2,-7,6,2,-3,-1,-4,-5
27458729180,12,18,8,2,2,2,10,11
27458729941,1,2,-3,-2,-1,-5,-15,-10
27458729941,2,9,11,3,2,1,4,0
27458752414,-3,-6,6,5,5,5,4,9
27458752414,-8,-15,-12,-4,0,-5,-4,-7
27458753206,4,3,8,2,1,1,2,3
27458753206,-1,3,-4,-6,-4,-3,-4,-3
27458766827,-1,-9,-21,-9,-4,-3,-6,-5
27458766827,2,7,18,10,1,1,3,0
27458767490,-4,-10,-4,-2,-4,-2,-6,-3
27458767490,-6,-11,-16,-7,0,-1,0,-5
27458789349,-2,5,-4,6,1,-1,2,1
27458789349,-1,-4,0,3,2,2,-7,-10
27458789967,9,12,1,-2,-3,1,11,13
27458789967,-11,-12,-3,-6,-7,-2,-4,-3
27458820127,-3,-3,-4,-5,-4,-6,-12,-3
27458820127,-2,-5,-8,-9,-2,2,17,4
27458820586,0,2,4,5,6,3,-5,1
27458820586,3,7,6,8,4,2,2,3
27458826763,-1,1,-2,-9,-6,-4,-10,-11
27458826763,-8,-18,-24,-5,-3,-1,5,6
27458827450,-3,6,16,3,-2,-2,-1,-7
27458827450,-5,-3,6,8,5,1,-4,-1
27458850010,12,34,14,-3,-3,-1,5,4
27458850010,-7,-25,-17,-5,-2,-2,-8,-12
27458850670,3,-2,-15,-5,1,1,3,12
27458850670,-2,-2,-4,-3,-4,-1,3,-4
27458872441,1,-4,11,4,0,-1,-2,0
27458872441,-1,1,-4,-4,-4,-5,1,1
27458873188,2,6,5,9,8,2,-10,-8
27458873188,3,-5,9,11,2,0,6,3
27458886774,-4,-1,-10,-11,-7,-6,-5,-9
27458886774,-7,0,9,5,4,4,10,7
27458887467,-3,-4,12,3,1,4,11,0
27458887467,-1,-5,-14,-6,1,-1,-1,3
27458910028,12,3,9,6,-1,-6,-19,-3
27458910028,-10,0,-8,3,0,-2,4,-3
27458910620,4,-6,4,-11,-7,-1,7,15
27458910620,-2,30,38,14,5,3,-7,-10
27458932556,-8,-37,-47,-14,-2,0,7,1
27458932556,9,36,53,5,-1,-4,-17,-8
27458933202,-4,1,-9,0,-2,-1,1,-4
27458933202,-5,-24,-34,-14,-5,-3,1,4
27458946714,0,4,17,15,9,6,0,2
27458946714,-4,-5,-2,-1,-2,-3,-8,-9
27458947458,-2,3,-19,-12,0,-1,6,1
27458947458,-5,-10,20,4,-2,-2,-7,-8
27458970060,-18,-31,-66,-33,-10,-5,-15,-3
27458970060,15,3,13,20,8,9,18,17
27458970657,-7,2,6,2,-3,-3,-7,-14
27458970657,2,4,13,2,2,1,8,13
27458992471,-6,-5,-24,2,6,3,3,-9
27458992471,11,-3,-10,-11,-3,-1,-7,11
27458993167,-5,-3,7,4,6,4,1,-11
27458993167,-4,-21,-32,-9,-7,-2,3,0
27459006773,0,16,40,20,5,-1,-6,-8
27459006773,7,14,8,1,-5,-8,-18,-5
27459007493,1,-10,-4,4,-2,-1,12,11
27459007493,4,15,5,-4,1,3,-1,-1
27459030101,-8,-22,-50,-32,-7,2,15,-2
27459030101,9,8,39,21,-2,-6,-13,7
27459030687,-4,-2,-3,-4,-9,-7,-12,-11
27459030687,14,30,15,-9,-5,-4,-9,5
27459052463,1,7,15,4,1,2,11,3
27459052463,-15,-37,-55,-17,0,0,-3,-15
27459053156,5,16,27,5,-4,-8,-15,-1
27459053156,1,2,8,1,2,-1,-2,-6
27459066794,-1,4,14,-2,-7,-4,7,3
27459066794,0,8,2,4,2,2,3,-2
27459067493,-1,-7,-27,-12,-5,-3,-11,-12
27459067493,-2,-20,-32,-13,-7,-1,11,12
27459089995,12,12,21,9,4,3,-2,1
27459089995,-21,0,3,2,1,4,8,10
27459090637,-8,-15,1,1,1,-2,-2,-3
27459090637,-5,-6,-2,-13,-3,1,-1,-10
27459112505,-5,-7,2,11,4,1,2,4
27459112505,13,25,45,29,1,-4,-8,-11
27459113193,-9,-21,-57,-33,-8,-4,-14,2
27459113193,-7,-14,-17,1,5,4,10,1
27459126770,-1,19,46,15,3,0,5,4
27459126770,9,1,2,-6,-5,-3,-9,-10
27459127461,-30,-19,-30,-20,-4,-3,-14,-17
27459127461,8,10,56,52,4,-5,-10,12
27459149987,10,1,-16,-6,1,10,26,19
27459149987,-15,-9,-13,-10,-1,0,6,-9
27459150648,11,17,33,5,2,2,4,-3
27459150648,-5,-11,-23,-8,-2,-2,-16,-1
27459171554,-12,-14,-33,-22,-6,-2,14,-5
27459171554,6,0,2,13,7,6,4,7
27459179502,19,32,49,22,6,6,12,15
27459179502,-1,21,50,23,8,0,-4,-14
27459186664,1,-13,-52,-38,-11,-7,-13,-7
27459186664,-9,-7,-32,-25,-10,-3,0,-7
27459187467,6,7,-6,-11,-10,-11,-6,0
27459187467,-8,-7,-47,-19,-3,-5,-4,-5
27459209898,-1,15,68,35,4,-3,-16,-7
27459209898,3,-3,-6,-11,-5,-8,-5,3
27459210626,8,10,23,14,4,-12,-19,-1
27459210626,3,-6,-42,-42,-18,-15,-30,-9
27459232318,-17,-11,3,22,10,21,38,8
27459232318,-16,-21,-30,-21,-6,-7,-7,-7
27459233118,11,-12,-24,19,5,13,18,18
27459233118,2,24,29,2,3,10,18,1
27459255077,5,26,9,-11,-9,-14,-23,-5
27459255077,-5,-12,-10,1,6,3,3,-3
27459255695,6,-1,7,-4,-7,-15,-22,-4
27459255695,-12,-32,-65,-32,-11,-11,-4,-8
27459270078,3,6,23,5,-3,-5,-5,-3
27459270078,1,2,-36,-24,-7,-1,1,3
27459270669,0,2,12,19,9,4,-1,-4
27459270669,5,8,34,18,9,9,6,5
27459292491,1,-4,-11,-18,-7,-4,8,10
27459292491,6,-5,-5,4,-3,-9,-21,-5
27459293979,-15,-8,-12,-1,5,2,-4,-5
27459293979,4,-9,-4,14,1,13,36,0
27459306159,5,17,37,6,-5,-7,-14,5
27459306159,0,10,20,4,-4,-6,-14,-7
27459314979,12,-20,-42,-19,-4,13,26,35
27459314979,-6,-7,-13,16,7,5,18,-3
27459329941,-4,-14,6,14,6,3,-1,-4
27459329941,-3,-3,-4,-19,-9,-7,0,-5
27459331480,0,7,-2,-9,-4,-5,-15,-6
27459331480,14,21,34,25,6,-2,2,4
27459352375,-2,-9,-11,-11,-3,-5,-7,-2
27459352375,2,15,45,23,8,6,7,1
27459353984,6,3,15,31,6,1,5,-2
27459353984,-6,-1,46,11,-2,-4,-9,0
27459366243,0,9,-16,-19,0,-9,-19,-10
27459366243,-5,-4,23,29,-11,-16,-8,-19
27459375001,-1,1,-10,-14,11,38,48,33
27459375001,0,1,32,19,-2,-6,-9,1
27459389977,-2,2,10,22,7,5,1,0
27459389977,-5,-17,-48,-29,-3,-4,-12,-5
27459391469,-2,-5,-4,-8,-8,-14,-8,-14
27459391469,11,-3,-32,-35,-8,1,14,8
27459412518,-4,0,22,17,4,1,-2,0
27459412518,-6,-3,1,-8,4,5,6,4
27459413985,-18,-19,-23,7,-5,-8,-4,-17
27459413985,0,-11,-54,-31,1,-1,-14,5
27459426097,0,-4,-10,-12,-9,-9,-12,-13
27459426097,14,35,26,9,6,11,16,14
27459435003,-1,-4,9,-3,-1,1,-4,-5
27459435003,-8,1,-10,-6,-2,-9,-14,-12
27459449113,-12,-21,-20,-7,-2,-4,-11,-7
27459449113,12,7,25,5,7,15,24,20
27459457509,-8,10,23,18,-3,-24,-47,-29
27459457509,5,-2,-18,-17,-3,22,57,27
27459480149,7,-1,-13,1,-2,1,2,4
27459480149,-7,-3,-4,-31,-8,-22,-28,-2
27459481527,10,29,36,26,8,21,15,-4
27459481527,-9,-14,-5,-3,-4,-5,-9,-11
27459486127,-1,-12,-29,-17,0,11,18,6
27459486127,7,-9,-32,-7,0,0,6,4
27459494982,-6,6,30,3,3,-1,-1,0
27459494982,-14,-14,4,5,-8,-13,-32,-20
27459510073,6,10,6,1,0,2,11,8
27459510073,-18,-37,-77,-23,-11,-5,-10,-9
27459511511,-2,-2,13,-29,-1,2,4,-2
27459511511,5,9,9,30,8,4,0,0
27459532486,1,17,53,36,3,-7,-11,0
27459532486,-3,-12,-21,-14,0,5,4,-1
27459533982,-4,-9,-11,2,1,-2,-4,-5
27459533982,-5,-11,-24,-17,-5,-12,-22,-2
27459546207,7,12,40,28,10,13,24,6
27459546207,12,20,41,22,2,6,8,6
27459554986,-2,-7,-32,-18,-8,-6,8,1
27459554986,-5,-9,-1,-11,0,-2,-15,-7
27459569950,1,-1,-24,-7,-2,-7,-22,-14
27459569950,-3,-15,-37,-23,0,5,20,9
27459571449,-6,1,23,15,-5,-6,-2,-1
27459571449,-3,0,-18,-13,-3,-2,3,-1
27459592501,3,-9,-2,-1,-3,0,-5,-3
27459592501,13,20,13,11,-1,1,9,9
27459593976,-9,-4,12,11,0,-4,-5,-4
27459593976,3,17,8,4,0,-5,-2,-1
27459606153,-5,-12,-33,-27,-12,-19,-28,-9
27459606153,1,13,35,16,5,15,28,-2
27459615011,1,-7,-41,-26,-4,-5,2,10
27459615011,-12,-15,-8,-10,-6,2,-7,-15
27459629974,6,3,3,-1,2,9,23,12
27459629974,-11,-19,-21,-4,-5,-10,-25,-12
27459631470,4,9,-23,-35,-9,-1,4,0
27459631470,-1,-1,2,3,-6,-8,-3,0
27459652521,-2,7,-14,-21,-11,-17,-27,-13
27459652521,-8,-9,4,-14,-7,-1,2,-2
27459654091,6,7,16,30,6,8,7,4
27459654091,2,-3,-11,8,5,-2,-11,0
27459674973,-10,-3,-2,-14,3,4,-5,-7
27459674973,4,11,12,22,2,-2,4,-2
27459676460,-1,-16,-39,-35,-22,-15,-5,6
27459676460,8,14,51,21,5,2,0,3
27459689850,-2,-1,11,9,1,10,22,9
27459689850,-16,-10,-21,-38,-20,-16,-18,-16
27459691483,-5,-6,26,27,11,7,4,-11
27459691483,10,17,34,21,8,5,4,20
27459712360,4,4,7,1,0,5,11,3
27459712360,-10,-25,-18,7,-6,-11,-17,-9
27459714010,-5,1,4,-4,0,0,-11,-10
27459714010,-3,2,23,19,-1,-2,7,5
27459734812,6,9,28,58,2,-12,-18,-6
27459734812,2,2,28,17,10,11,9,8
27459736426,-4,-14,-33,-29,-5,-1,-1,1
27459736426,-2,5,18,26,2,-6,-14,-4
27459749948,-1,-1,-9,-7,-8,-9,7,1
27459749948,1,6,14,17,6,14,13,11
27459751446,-2,2,8,4,-5,-25,-48,-22
27459751446,-14,-27,-49,-25,-7,14,36,1
27459772523,-3,-9,-31,-15,4,13,14,1
27459772523,2,-2,4,0,2,-3,-1,0
27459773997,-7,4,27,13,2,1,6,-3
27459773997,-15,-18,-34,-16,-13,-19,-33,-19
27459794912,15,12,18,-2,2,-1,2,10
27459794912,-5,-2,25,7,8,6,5,-2
27459796463,3,-4,-5,7,5,3,0,7
27459796463,-2,15,13,-4,3,-3,-11,-11
27459809271,-2,4,19,4,-11,-7,6,6
27459809271,7,21,4,-1,-3,-11,-31,-17
27459816143,1,-11,-33,-29,-7,-1,-11,1
27459816143,4,-5,19,13,5,9,41,21
27459832528,-5,-9,-27,-16,0,-2,-13,-6
27459832528,-1,13,22,15,2,-9,-20,-6
27459833973,-3,-6,-1,6,1,-11,-22,-13
27459833973,-2,-10,-35,-29,2,29,58,28
27459854877,1,-11,-21,-23,-3,-1,-4,-1
27459854877,1,-14,-30,-8,-1,-1,3,5
27459856442,4,-7,-36,-22,-2,2,12,6
27459856442,3,23,30,-1,2,-11,-30,-14
27459869295,-3,-29,-32,-16,-2,0,5,5
27459869295,-8,10,10,-3,1,2,1,-2
27459876076,8,5,8,-7,-5,2,10,5
27459876076,3,-4,-46,-45,-16,-15,-15,-8
27459892449,-13,-10,-19,-5,-2,0,-3,-9
27459892449,-2,-13,-7,-3,0,-4,-6,-3
27459893928,-1,2,-7,-4,-1,4,21,7
27459893928,-5,-7,2,6,-1,-8,-21,-9
27459914956,-11,-15,-38,-21,-20,-17,-20,-16
27459914956,5,21,24,6,4,8,15,6
27459916588,0,-8,-22,-6,-4,-1,5,4
27459916588,6,15,25,2,-11,-19,-40,-17
27459929299,-1,-7,16,37,16,19,40,12
27459929299,8,-1,-7,-5,-1,3,14,22
27459936113,-10,-2,17,4,-8,-2,9,3
27459936113,-1,-6,-20,-20,-1,-2,-13,-7
27459952465,1,13,26,4,1,-3,-12,-7
27459952465,4,-6,-15,-3,-5,-2,1,-1
27459953951,4,16,30,14,2,2,5,6
27459953951,-2,-6,8,24,7,-2,-10,-6
27459975039,3,-4,-20,10,8,5,-2,1
27459975039,-4,-2,-15,-26,-11,-3,3,0
27459976474,0,-1,-20,-18,-4,-3,-4,-2
27459976474,2,2,8,18,3,2,8,1
27459989292,3,20,37,17,14,1,-8,-2
27459989292,-12,-21,-32,-9,-2,-2,-3,-8
27459996104,13,27,59,58,16,5,-5,-5
27459996104,-8,-14,-27,-26,-10,-2,25,1
27460012598,7,4,13,-5,-1,1,7,18
27460012598,1,14,47,40,11,1,-14,-7
27460013992,-2,-5,-17,-21,-5,-4,-2,3
27460013992,-5,-2,-2,7,8,7,-1,-5
27460034918,-5,0,22,0,-9,-4,-8,-8
27460034918,0,3,-5,1,8,2,6,-5
27460036431,-8,-16,-32,-8,-6,2,7,1
27460036431,8,21,30,15,8,1,-10,3
27460049334,-3,-1,4,0,-9,-8,6,-2
27460049334,3,1,-15,-25,-3,1,1,1
27460056132,-1,6,33,32,7,0,-2,-2
27460056132,-5,-18,-31,-17,-4,0,1,-2
27460072534,1,2,3,3,2,0,-4,-2
27460072534,-4,-10,-3,-3,1,-5,-13,-4
27460073991,-2,-4,-5,9,8,3,16,1
27460073991,-2,-1,4,9,-12,-13,-36,-9
27460094951,4,7,4,-1,3,17,48,11
27460094951,6,0,-3,0,-6,-2,8,14
27460096458,-17,-14,-32,-17,0,-4,-10,-7
27460096458,8,18,59,26,5,-1,1,2
27460109279,-7,-2,-28,-29,-6,-10,-23,-11
27460109279,0,-13,-22,-2,2,5,3,3
27460116146,-1,-8,-10,-14,-8,2,21,2
27460116146,0,-3,-3,3,7,4,1,-2
27460132438,-10,-10,-7,-12,-4,-6,-17,-7
27460132438,-8,-1,-17,-7,-2,0,4,-9
27460133986,-9,-10,-4,-3,-3,-6,-20,-2
27460133986,10,12,5,6,4,5,15,9
27460155014,2,2,-15,-26,-6,-1,5,-1
27460155014,1,-1,35,32,6,1,1,2
27460156529,7,20,17,2,-2,-8,-28,-14
27460156529,-6,-22,-32,-18,-7,8,27,6
27460168643,5,10,6,9,-1,-1,12,5
27460168643,-6,-9,-28,-28,-17,-30,-42,-20
27460177487,-3,-10,-13,-4,1,23,46,20
27460177487,-8,0,-27,-34,-1,1,12,1
27460192357,-1,0,5,18,7,-3,-21,-11
27460192357,-2,-6,-8,-4,4,13,22,5
27460193953,1,10,18,-8,0,-10,-25,-13
27460193953,-7,-31,-33,-22,-11,-7,-6,2
27460214849,-12,-4,-26,-7,4,8,3,-1
27460214849,4,-3,19,17,2,-7,-10,-6
27460216495,9,21,45,14,2,0,-3,3
27460216495,-7,-13,-6,8,4,3,4,-3
27460228566,0,2,9,-10,-7,-11,-16,-4
27460228566,0,3,1,3,0,2,-3,-2
27460237482,-2,-3,6,22,9,2,2,-1
27460237482,-3,-4,-4,-2,-4,-4,-15,-8
27460252352,1,-10,0,2,-3,3,30,13
27460252352,1,4,-7,-22,-3,4,4,4
27460253973,3,-1,-13,1,-2,-1,16,7
27460253973,-3,12,28,21,1,-11,-18,-6
27460275029,-6,-7,-17,-21,-10,-9,-24,-18
27460275029,0,-12,-6,7,5,7,16,12
27460276472,2,9,12,-8,-3,-5,-8,-2
27460276472,-6,-8,6,14,7,0,-4,-10
27460289045,-1,-6,-25,-8,-2,-1,-3,11
27460289045,1,-3,3,0,-4,0,4,-5
27460297516,-13,-15,-15,-29,-9,-5,-8,-12
27460297516,8,9,-2,-4,-1,-2,-1,7
27460312484,0,-9,-16,-2,-7,-9,-17,-8
27460312484,-5,5,36,14,3,-2,-7,-4
27460313960,-14,-25,-43,-22,-8,-7,-20,-26
27460313960,12,5,1,6,6,22,43,37
27460334840,-5,10,15,8,0,-1,-2,-5
27460334840,3,-15,-19,-4,0,-2,1,6
27460336426,-12,-3,-5,-9,-8,-5,-10,-7
27460336426,3,7,9,-10,-2,-3,-5,-6
27460348520,-5,-6,14,12,-3,-4,-8,-9
27460348520,8,11,-18,7,5,1,-7,1
27460363596,1,12,23,17,3,0,5,2
27460363596,-5,-11,-15,-10,-9,-8,-13,-6
27460372368,0,-4,-10,-7,2,3,6,6
27460372368,0,12,33,22,0,-2,1,-3
27460373935,9,2,15,8,1,3,8,11
27460373935,-9,-7,-14,-15,-5,-5,-3,-9
27460394956,-1,-1,5,-7,0,-5,-17,-3
27460394956,-6,-6,-30,-17,-6,-8,-11,-14
27460396468,5,16,24,8,4,16,32,25
27460396468,-5,-18,-31,-22,-13,-11,-6,-2
27460408569,6,3,2,-4,1,4,9,9
27460408569,-2,-7,-6,-11,-2,3,7,2
27460417482,-4,-12,-33,-7,-2,-8,-15,-6
27460417482,1,8,23,2,0,0,-3,-10
27460432462,-1,2,6,7,3,1,-12,-5
27460432462,-8,3,-6,-11,-3,0,11,11
27460433966,0,-9,4,18,11,0,-13,-10
27460433966,0,16,37,25,0,8,36,12
27460454973,13,10,4,12,4,3,-2,0
27460454973,-8,-15,-15,-18,-7,-1,4,-1
27460456470,-1,-12,-28,-10,-5,-4,-4,-2
27460456470,1,9,14,-1,4,-3,-14,-2
27460468624,-4,-9,2,11,-2,-1,3,-1
27460468624,1,9,2,0,3,2,1,-2
27460477512,-1,3,1,-3,-6,-5,-3,0
27460477512,5,-1,9,24,10,1,-6,-5
27460492573,2,11,17,16,2,3,1,-4
27460492573,3,-7,-12,-5,-4,-4,-10,11
27460493955,1,-16,-16,-13,-4,1,24,6
27460493955,4,10,-11,-12,-5,-6,-16,-1
27460514854,-8,-6,0,-6,1,0,6,-1
27460514854,4,9,19,7,2,1,-2,-5
27460516480,-4,0,-3,10,6,1,-11,-6
27460516480,4,-1,-10,-1,4,-1,-8,5
27460528598,-8,-3,-1,1,0,0,23,-1
27460528598,-16,-30,-32,-26,-13,-10,-14,-12
27460537513,5,10,25,14,5,5,1,6
27460537513,-11,-21,-29,-12,-9,-6,-9,-11
27460552483,0,-13,-9,-15,-3,0,-7,1
27460552483,6,7,17,4,0,2,2,2
27460554006,0,15,26,24,1,0,-5,-2
27460554006,-3,4,4,5,-1,-3,-5,-3
27460574984,6,0,13,3,1,0,-6,3
27460574984,-2,13,-13,-18,-7,-6,9,-10
27460576435,0,-18,-24,-15,-6,-3,-6,6
27460576435,1,4,15,12,5,4,-1,-5
27460597486,0,-3,-19,-10,-6,-11,-27,0
27460597486,-2,1,16,13,9,16,38,13
27460599015,2,9,13,13,-4,-6,-11,0
27460599015,4,1,1,4,6,12,20,3
27460612488,5,4,17,3,1,-2,-12,0
27460612488,4,32,24,11,3,0,-7,-7
27460613987,-7,-24,-50,-28,-6,-5,-1,-5
27460613987,-2,3,8,-2,-2,-3,-9,-9
27460634972,1,-6,1,21,1,3,19,11
27460634972,-1,4,7,3,2,1,-7,-3
27460636427,4,16,25,8,2,1,2,2
27460636427,-7,-12,-13,-9,-10,-12,-19,-11
27460657408,-1,-17,-46,-20,-5,2,8,1
27460657408,4,19,52,17,-4,-3,-8,-2
27460659057,-2,-6,-10,-15,-2,-4,-5,-4
27460659057,-6,-8,-14,-4,-2,-1,5,1
27460672443,-2,9,7,0,1,2,-3,-4
27460672443,-5,-16,-8,1,-3,-5,-12,-21
27460673948,9,13,3,0,-1,-2,-5,21
27460673948,0,6,15,17,2,0,5,5
27460694877,-6,-3,13,-6,-1,2,8,-2
27460694877,-6,-12,-21,2,1,-3,-9,-10
27460696431,-2,-10,-28,-34,-2,4,7,-5
27460696431,0,-1,7,14,6,-1,-15,0
27460717314,9,26,32,21,7,5,22,7
27460717314,-12,-35,-26,-5,-4,-6,-16,-3
27460718944,2,-4,-8,-12,-6,0,8,2
27460718944,0,3,0,-14,-5,-2,-1,2
27460731709,-13,-28,-44,-10,-3,-4,-14,-12
27460731709,4,22,6,-8,5,1,2,5
27460738618,-8,-1,19,23,3,3,4,-5
27460738618,-7,-5,-31,-22,-5,-9,-13,-12
27460755667,7,3,23,9,2,-6,-36,-25
27460755667,10,-5,-19,-14,-5,7,47,53
27460757162,7,6,-4,-9,-2,1,-7,-8
27460757162,-12,-8,-4,7,2,-5,-6,-4
27460777577,-2,5,14,1,1,8,7,4
27460777577,-8,-4,-3,2,1,-2,-2,-6
27460778945,9,-4,-13,-16,2,3,6,2
27460778945,10,22,33,18,7,6,7,7
27460791762,-21,-22,-23,5,-10,-11,-10,-9
27460791762,4,1,-4,11,5,4,-8,-9
27460798511,-2,12,24,7,-1,0,6,6
27460798511,-1,-13,-8,-6,-6,-1,5,-2
27460815433,-6,-7,-20,-21,-10,-9,-6,1
27460815433,-1,0,4,-4,-2,-2,-7,-7
27460816899,2,-6,1,14,1,-2,-4,-3
27460816899,-13,-5,11,7,-7,2,-1,-6
27460837473,6,26,37,17,1,-1,7,-1
27460837473,15,8,2,1,-3,-4,-11,13
27460838978,-2,5,5,-1,-1,4,11,-5
27460838978,2,-4,-7,-10,-2,-3,-6,1
27460851832,1,12,7,-4,1,9,22,6
27460851832,-11,-10,4,9,-2,-6,-16,-10
27460858594,-3,-3,3,-3,-3,-2,5,3
27460858594,4,7,3,0,1,1,-1,-1
27460874936,-5,-8,-14,-11,-1,-3,-7,2
27460874936,-6,-6,-15,-7,0,-1,-3,-5
27460876462,-2,-1,0,5,-2,-4,-6,-2
27460876462,2,8,-3,-7,-1,-1,2,-1
27460897399,2,-2,-8,-8,-1,-1,-2,2
27460897399,-1,3,11,5,0,0,3,1
27460898929,-7,-12,-12,1,4,2,-10,-12
27460898929,3,5,12,-6,1,3,8,5
27460911769,-3,-7,10,25,7,2,1,0
27460911769,1,0,-8,-3,-1,0,-2,0
27460918669,-1,4,6,-3,-3,-5,-4,-3
27460918669,2,-7,-21,-19,-5,0,2,7
27460935045,-3,-9,-17,-15,-5,-4,-3,-5
27460935045,-2,-2,2,10,2,1,-1,-9
27460936479,-3,3,3,4,0,-1,-5,-4
27460936479,1,-3,1,4,2,1,5,4
27460957478,-1,-3,-1,-7,-1,-1,-4,2
27460957478,-5,-12,-5,-1,-5,-3,-3,-3
27460958939,-4,0,-11,-6,-1,-4,-3,0
27460958939,2,3,-4,-6,-7,-4,-2,-2
27460971806,2,2,10,6,8,4,2,1
27460971806,-2,-2,-3,-5,4,0,1,-3
27460978572,-1,-7,-6,2,0,0,-1,0
27460978572,3,-2,-1,-4,-3,-3,0,-1
27460994923,-1,-1,-11,-9,-3,-2,-2,-2
27460994923,1,6,9,2,0,-1,1,0
27460996426,-1,-2,3,-2,-2,0,-4,0
27460996426,-5,-9,-11,-3,0,0,0,-2
27461017445,0,-5,3,-1,0,-1,1,1
27461017445,5,18,8,2,0,1,-2,0
27461018952,-4,-3,2,2,-1,-1,-4,-3
27461018952,1,-8,-14,-9,-4,-2,-1,-2
27461031799,-3,-9,-3,-1,-4,-2,-2,0
27461031799,-1,-3,2,0,-1,-1,1,-1
27461046120,-1,-3,-5,0,-1,-4,-2,0
27461046120,2,-11,-5,0,-2,1,2,3
27461054954,0,9,-1,-3,-3,0,-4,-1
27461054954,-1,4,3,1,1,-2,0,0
27461056421,0,3,1,0,0,-1,0,-2
27461056421,-5,-10,-3,1,2,2,1,-1
27461077477,2,9,-2,-4,-2,-2,0,1
27461077477,-2,-6,-6,-6,-5,-2,-4,-3
27461078949,-2,-11,-9,-1,1,0,1,2
27461078949,-1,18,17,3,-2,-1,-2,-5
27461091072,-1,0,-1,4,7,3,1,-1
27461091072,2,-1,-1,-2,-1,-1,0,0
27461099987,-4,-5,-4,-1,4,-1,0,-2
27461099987,-2,-3,1,2,-2,-2,0,0
27461114034,-1,10,-2,-3,-4,-2,-4,-3
27461114034,-4,-15,-6,-3,-3,0,-1,-3
27461122475,5,7,4,0,-2,-1,2,1
27461122475,2,6,0,-3,-2,-3,-1,1
27461137439,-4,-18,-8,-3,-2,0,0,-1
27461137439,-3,-8,-4,-2,-1,-3,-2,-1
27461138933,2,10,5,-3,-4,-2,0,-2
27461138933,1,1,2,3,0,-1,-2,0
27461151127,0,-1,1,-3,-3,-3,-1,-2
27461151127,-6,-6,-3,1,0,-1,0,0
27461159958,-3,-11,-4,-1,-4,-2,-3,-1
27461159958,2,1,-1,1,1,-1,0,1
27461174954,1,7,-2,-4,-3,-3,-2,-1
27461174954,0,-3,-1,1,3,0,1,-2
27461176410,-1,4,0,-5,-5,-3,-1,-2
27461176410,-3,-6,1,10,9,4,1,-2
27461197440,3,1,-1,-4,-3,-1,0,2
27461197440,2,1,-1,0,-2,-1,-2,0
27461198973,-2,-2,-5,-2,-1,-1,-1,-2
27461198973,0,0,0,-2,-3,-3,-2,-1
27461211029,-7,-27,-5,2,-1,-2,0,-3
27461211029,2,26,6,-1,-2,-1,0,-1
27461219961,-1,-9,-1,0,-1,-1,-1,-2
27461219961,-1,15,2,-3,-2,-2,-1,-1
27461234889,1,-8,2,1,3,2,0,2
27461234889,-2,-14,-7,-3,-1,-1,0,-1
27461236422,1,6,1,-2,0,-1,-2,4
27461236422,2,3,-5,-4,-1,-2,-2,-4
27461257447,-1,6,9,2,0,0,1,4
27461257447,-2,-6,1,1,-2,1,0,-1
27461258952,-2,-5,-4,0,-1,-1,-1,-1
27461258952,-7,-31,-11,-7,-5,-2,-2,-4
27461271086,1,22,-2,-4,-3,-5,-4,-3
27461271086,6,20,6,5,4,0,-1,1
27461279988,-2,4,7,3,1,2,-1,0
27461279988,-1,-6,-10,-3,-4,-1,0,1
27461294286,-2,-5,-3,-4,-1,0,-1,-2
27461294286,-4,-4,0,-3,-2,-2,-1,-1
27461301091,-3,-4,-4,0,0,-1,0,-4
27461301091,0,7,4,0,-1,-1,0,2
27461317415,1,-3,-6,1,-3,-2,-1,0
27461317415,-3,-11,-10,-2,1,1,-1,-2
27461318922,8,19,26,11,2,-2,-1,0
27461318922,-5,-17,-12,-4,3,0,-1,-1
27461331098,-5,4,0,-2,-1,1,1,-2
27461331098,5,0,1,-2,-3,-2,-1,1
27461339958,-11,-3,-8,-5,-2,0,0,-7
27461339958,1,2,-2,0,0,0,-1,1
27461354952,0,-8,-4,-1,-3,0,-1,-3
27461354952,-3,-2,2,-1,-2,1,0,0
27461356402,-3,-5,-5,-6,-5,-2,-2,0
27461356402,-3,-24,-10,3,1,0,-2,-2
27461377460,5,29,16,2,0,0,0,-1
27461377460,-2,2,0,0,-3,-2,0,1
27461378961,1,-3,-2,1,-1,-2,1,-1
27461378961,-2,0,0,-3,-3,-3,-1,-2
27461391144,-3,-7,-6,-4,-2,-3,-1,-2
27461391144,0,-1,0,-2,-1,-2,-2,0
27461400023,0,1,-4,1,0,0,-1,-1
27461400023,-4,6,0,-2,-2,0,-2,-1
27461422506,-2,-11,-2,0,-1,-1,-1,-1
27461422506,4,8,5,1,-1,-2,0,-2
27461423955,-1,-11,-5,-4,-4,0,-2,0
27461423955,2,19,5,1,0,-2,-1,0
27461437420,-1,-2,-4,-1,0,0,-1,-1
27461437420,-8,-11,-1,-2,-3,-3,-1,-1
27461438960,0,-9,-7,1,0,-1,-2,-4
27461438960,4,13,6,1,0,1,1,0
27461451065,0,-3,-1,-1,-3,-1,-1,2
27461451065,-4,2,-6,-4,-1,-2,0,-2
27461459984,-2,-4,-4,-3,-2,-3,-2,-1
27461459984,-2,2,0,-2,-2,-2,-1,-1
27461474237,-2,-7,-3,-2,-2,-1,-1,-3
27461474237,0,-5,1,0,-3,0,-2,-2
27461481113,2,9,3,4,4,2,1,1
27461481113,-2,-7,-3,-3,0,1,-1,-2
27461497522,3,-4,-3,1,-1,-1,-2,0
27461497522,3,17,7,0,0,-1,0,1
27461498920,-1,-1,-2,-6,-4,-1,-2,0
27461498920,-4,-14,-7,-3,-1,-2,-1,-2
27461511103,-2,2,-2,-4,0,0,0,-1
27461511103,2,1,1,3,1,-1,-2,-2
27461519930,0,3,3,1,1,1,2,-3
27461519930,-2,-5,-1,-1,-3,-1,-1,-1
27461534270,-3,-6,-5,-4,-3,-2,-3,-1
27461534270,0,0,-3,-1,0,-1,0,-1
27461541141,-1,1,-4,-3,-1,-2,-1,0
27461541141,-1,-4,7,1,-1,-3,-3,1
27461557483,2,10,3,1,-2,0,1,-2
27461557483,-4,-3,-8,-4,-2,0,-2,-1
27461558961,0,-4,2,1,1,0,0,1
27461558961,0,1,1,1,0,0,-1,-1
27461579914,-2,-6,-1,0,0,-3,-4,0
27461579914,-5,-8,-7,-7,-5,-1,-1,-4
27461581433,1,-5,-1,5,4,3,0,1
27461581433,2,14,6,-1,0,1,1,-1
27461602437,5,-1,-4,-4,-4,-2,-3,1
27461602437,-1,-6,-8,-1,-3,-2,0,-1
27461603953,-7,2,1,-5,-4,-5,-3,-7
27461603953,-2,1,3,2,1,1,-1,0
27461617450,-3,-9,-4,-1,0,0,-1,0
27461617450,1,-3,2,1,0,-1,1,-2
27461618959,-2,-3,-4,-3,-6,-3,1,1
27461618959,3,-2,-2,0,3,3,1,-1
27461639922,-1,9,0,-2,-3,-1,0,-2
27461639922,-4,-9,2,3,3,-1,-2,-2
27461641416,0,1,1,-2,-2,0,-2,1
27461641416,-3,2,-2,-5,-6,-4,-1,-2
27461654182,-1,-3,-3,-4,0,-2,1,-1
27461654182,1,8,4,1,0,0,-4,1
27461661138,-2,-11,-6,0,-1,1,-1,0
27461661138,1,8,1,-1,-2,-2,-1,0
27461677505,-6,-3,2,1,1,2,0,-1
27461677505,2,2,-2,-5,-4,-2,-3,-3
27461678954,0,0,-1,0,0,-2,-1,-1
27461678954,-1,-2,-5,-4,-2,-2,-2,-2
27461699893,0,-6,1,6,5,3,0,1
27461699893,-5,-5,-1,-2,-2,-1,-1,-3
27461701439,-2,4,-3,-4,-1,-1,-1,-3
27461701439,-1,-9,-9,-5,-3,-1,-2,2
27461714189,-1,-2,5,1,2,2,0,-2
27461714189,3,9,2,1,1,2,1,3
27461721098,-3,-10,-7,0,-1,-3,-1,1
27461721098,-1,10,1,-1,-2,0,-1,1
27461737737,-2,-5,-3,-2,0,-2,0,0
27461737737,3,-3,-1,3,1,0,0,-1
27461743436,-1,-3,-8,-4,-2,0,-1,2
27461743436,-1,-1,7,4,0,0,-1,0
27461759904,-1,-3,-3,-1,-2,-4,-1,-2
27461759904,-2,-6,-3,-3,-2,-2,0,0
27461761456,0,4,0,-2,-1,-1,-2,0
27461761456,1,-3,-4,-1,-1,0,-1,-1
27461773540,-2,-4,-5,-5,-4,-1,0,-1
27461773540,-3,-5,-4,-4,-5,-3,-2,-3
27461782483,2,10,7,6,4,4,2,0
27461782483,1,1,2,1,-1,-3,-2,-1
27461797464,-1,-5,2,2,1,0,-3,0
27461797464,-1,-5,-2,0,0,-1,0,1
27461798933,-3,-6,-4,-7,-7,-4,-2,-3
27461798933,2,8,3,3,6,4,2,1
27461820000,-2,3,-1,2,0,1,-1,-4
27461820000,-3,1,3,0,-2,-2,-1,-1
27461821398,0,-2,-6,-1,0,0,-1,-2
27461821398,2,-3,9,1,-4,-2,-2,0
27461833575,-5,-8,-10,-5,-2,-1,-2,-2
27461833575,0,11,4,2,3,-1,-1,0
27461842487,-4,-15,-5,-3,-2,-1,-1,-4
27461842487,-1,-5,-7,-2,-2,-2,-2,-3
27461857476,0,8,8,4,2,2,2,1
27461857476,1,-10,-7,-3,-2,-2,-1,-1
27461858969,2,7,2,-1,-3,-3,0,1
27461858969,-4,-8,-7,-1,0,0,-1,-2
27461879844,-1,-7,-4,-3,-3,-1,-2,-1
27461879844,1,11,6,0,1,-2,-1,-1
27461881473,-2,5,1,0,2,-1,-2,0
27461881473,-1,11,5,-1,-3,-2,-1,-2
27461902303,0,-5,-4,-1,-1,-1,0,0
27461902303,1,4,-5,-3,-1,0,-1,0
27461903907,2,-1,-1,1,-2,-2,-3,-2
27461903907,-6,-8,1,-1,-3,-1,0,0
27461916538,-3,-4,-3,-4,-3,-4,-2,-1
27461916538,-2,-4,0,-3,-2,-2,-2,-3
27461924986,0,6,0,-3,0,0,-2,-1
27461924986,-3,-2,-4,2,3,-1,0,-1
27461940019,4,3,-3,-2,-3,-2,0,1
27461940019,1,-1,-2,-3,0,-2,0,0
27461941430,-1,-2,-5,-4,-4,-1,0,0
27461941430,0,-4,-2,0,0,0,0,1
27461953573,-2,1,-1,-2,-2,-2,-1,-2
27461953573,-1,-8,3,3,0,2,2,2
27461962462,1,1,3,-2,-4,-2,0,-1
27461962462,0,6,0,-4,-1,-1,1,0
27461977330,-3,-7,-3,-1,0,-1,-3,-2
27461977330,-4,-16,-13,-4,-4,-2,-2,-1
27461978931,0,5,9,1,-1,-2,-1,1
27461978931,0,-4,-4,0,-1,-1,-1,-2
27461999944,3,12,6,3,0,-1,0,1
27461999944,-3,-4,-4,-4,0,-1,-1,0
27462001477,-4,-13,-3,0,1,-2,-1,-1
27462001477,0,2,-6,-4,-2,-1,0,-2
27462013537,-2,2,2,-3,-3,-1,0,0
27462013537,-1,-1,-1,4,4,2,0,-1
27462022481,-1,-6,-8,-6,-6,-5,-1,-2
27462022481,1,7,4,-1,-3,-1,-2,0
27462037451,0,-1,-3,-2,1,-1,-1,-3
27462037451,-5,-8,-2,2,0,0,0,-2
27462038974,0,5,0,1,1,0,-2,-3
27462038974,2,-1,-2,-3,-4,-1,-1,-1
27462059914,3,-1,2,1,-2,-1,1,4
27462059914,-2,-2,-2,0,-1,-1,1,0
27462061406,3,2,1,3,5,2,-1,1
27462061406,-4,-7,-5,-3,-1,-3,-2,-1
27462073478,-5,5,-2,-9,-7,-3,-2,-3
27462073478,4,7,3,4,5,1,1,0
27462082484,-7,-9,1,2,2,1,-2,-4
27462082484,13,15,2,1,0,2,1,3
27462097330,-14,-2,-1,0,0,-3,-4,-7
27462097330,-5,8,10,-4,-6,-3,-2,-2
27462098973,0,-3,-6,-5,-4,-1,-1,0
27462098973,-5,-9,-3,0,1,-3,-3,-3
27462119918,2,-4,-5,0,2,0,0,0
27462119918,-2,3,4,2,1,-1,-1,0
27462121405,5,4,-1,1,2,1,1,2
27462121405,-2,-7,-7,-6,-8,-4,-2,-4
27462133573,0,-1,2,1,1,-1,0,2
27462133573,0,0,-3,-4,-2,-2,-3,-1
27462142429,2,6,5,-1,-2,-2,0,0
27462142429,-13,-5,-3,0,0,-1,0,-1
27462157402,6,-2,-5,-2,-2,-2,-1,1
27462157402,-4,-9,-5,-6,-5,-3,-1,0
27462158955,3,4,2,4,5,3,1,1
27462158955,0,-1,4,4,2,2,-2,-2
27462179787,-3,-3,0,1,1,1,0,-1
27462179787,0,-5,-6,-5,-4,-2,-1,-1
27462181416,-6,-8,-8,-5,-7,-6,-4,-3
27462181416,-4,-12,-4,-5,-4,-4,-1,-2
27462193595,6,20,4,1,0,3,1,1
27462193595,1,-1,0,3,0,0,-1,-1
27462202459,-3,7,9,4,0,0,1,1
27462202459,-3,-4,-1,-2,-1,-4,-2,-4
27462217416,2,-1,-2,-4,-4,-3,-2,-2
27462217416,-4,2,-3,-1,-1,-1,-2,-5
27462218959,-7,-10,-5,-3,-2,-1,-1,-3
27462218959,7,3,0,0,-2,-1,-1,3
27462239815,-12,-7,-1,2,0,1,0,-2
27462239815,4,-10,-2,-2,0,-2,1,2
27462241481,-4,-1,-4,-1,0,-1,-1,-3
27462241481,2,2,-3,0,3,-1,0,-3
27462253417,4,13,8,4,0,0,0,0
27462253417,-2,-2,-4,-1,-1,-2,-3,-1
27462262429,0,8,5,-1,-1,-2,-3,0
27462262429,-3,-2,-2,-4,-1,1,-1,-1
27462277390,3,-12,-5,-1,-2,-1,0,3
27462277390,1,13,5,1,-1,0,-2,-1
27462278994,-2,-5,-4,-4,-1,-1,0,0
27462278994,-1,-7,-4,0,2,0,-2,1
27462299863,2,0,2,-1,-1,-1,-1,-3
27462299863,-2,-1,-1,-1,-4,-3,0,-3
27462301390,2,-6,0,0,-2,-2,-1,-1
27462301390,-1,-16,-10,-3,-2,-1,0,1
27462313566,-2,23,11,0,-1,-1,-1,-3
27462313566,0,-9,-7,-2,-1,0,0,2
27462322456,-1,6,3,2,0,-1,-1,-3
27462322456,-4,-4,-1,0,-2,-1,1,0
27462336802,-3,-14,-6,-1,-1,-3,-1,-3
27462336802,4,14,2,-2,0,-1,0,1
27462343467,-6,-3,-4,-5,-5,-3,-2,-3
27462343467,-2,-2,-4,-3,-3,-1,-3,-3
27462359567,1,0,0,2,3,1,1,1
27462359567,-5,-3,3,2,1,1,-1,-2
27462365984,6,-9,-12,-8,-5,-3,-4,0
27462365984,-4,18,9,3,-1,0,-1,0
27462373425,-2,-1,3,2,2,-1,-2,-2
27462373425,-2,-8,-5,-3,-2,-2,0,0
27462382452,3,9,3,2,0,2,1,1
27462382452,-7,-17,-10,-6,-1,-1,-2,-3
27462396723,2,10,2,-1,-3,-3,-4,-1
27462396723,-3,-4,-3,1,-1,-1,-2,-2
27462403542,2,10,1,-1,-3,0,0,-2
27462403542,3,-3,2,0,-1,-2,-1,-1
27462419906,-4,-14,-10,-6,-4,-1,-2,-2
27462419906,1,-3,-1,-1,1,-2,0,-1
27462421420,-2,-4,-2,-1,-2,-2,-2,1
27462421420,-2,4,0,0,1,0,0,0
27462433603,0,0,-3,-2,-4,-2,-2,-3
27462433603,1,9,6,0,-1,-1,0,0
27462442442,-4,-5,1,1,0,-1,1,1
27462442442,3,1,2,2,0,1,0,1
27462457397,-4,-7,-7,-5,-3,-1,-2,0
27462457397,1,-11,-12,-5,-3,-2,0,0
27462458898,1,5,4,4,4,0,2,1
27462458898,-1,4,4,0,-1,1,0,-2
27462479787,-1,0,0,-2,2,-1,1,0
27462479787,-1,-9,-5,-4,-3,-2,-2,-2
27462481435,-2,-6,-5,-1,-2,-2,-1,-1
27462481435,3,2,0,2,-2,-1,0,3
27462502369,-5,11,6,2,-1,1,0,-6
27462502369,-4,-4,-4,-3,-3,-2,-5,-4
27462503894,-1,-1,5,0,-2,0,0,1
27462503894,0,-3,2,2,1,-1,-1,-1
27462517270,0,-4,-5,-1,-2,0,-2,1
27462517270,-3,0,-1,-5,-2,-1,0,-1
27462518945,-3,4,-4,-4,-4,-4,-2,-4
27462518945,1,-7,-5,2,3,4,0,-2
27462539920,3,4,8,4,0,0,0,3
27462539920,1,4,1,-1,1,-1,0,1
27462541484,-1,-10,-5,-5,-2,-2,-3,-2
27462541484,-4,-4,-2,-3,-1,-2,-2,-2
27462562330,3,16,-1,-2,0,-3,-2,-3
27462562330,0,1,3,1,-1,-1,1,0
27462563948,2,-8,-9,-3,0,-1,0,2
27462563948,-2,6,2,-2,-1,-2,-2,-3
27462576739,1,-7,-2,0,0,1,-1,1
27462576739,-3,-3,-2,1,1,0,0,-1
27462583614,-2,2,0,-2,-1,-3,-3,-2
27462583614,-1,-5,-2,1,-1,-1,1,0
27462599831,-1,-10,-7,-3,0,0,0,1
27462599831,4,1,1,-1,-2,0,-1,1
27462601469,-6,-8,0,0,0,1,0,-2
27462601469,-1,1,6,-2,-1,-1,0,-1
27462621631,-3,7,2,-2,-3,-2,-1,-1
27462621631,1,-3,-1,0,-2,-1,0,-1
27462622350,-1,-2,-4,-1,0,1,0,-2
27462622350,-1,3,3,-1,-2,-2,-1,0
27462636077,-3,-14,-7,-3,-2,-2,-4,-2
27462636077,3,0,0,-2,1,0,-1,-1
27462644223,-4,5,4,3,0,0,0,-1
27462644223,-1,1,-1,1,3,1,0,-2
27462659249,-1,-13,-8,-4,-1,0,1,0
27462659249,0,10,1,0,-1,0,-2,0
27462659920,0,0,4,-2,-4,-2,0,-3
27462659920,0,1,0,-2,-2,-2,-2,1
27462681617,-3,-10,-9,-1,0,-1,-2,-1
27462681617,-2,3,5,-2,-1,-1,-1,1
27462682357,4,12,5,-3,-3,-1,-2,3
27462682357,-2,1,-1,-7,-4,-5,-3,-5
27462696118,-1,-5,0,1,-1,1,0,-2
27462696118,-1,3,-1,1,-1,0,1,0
27462704137,0,-10,-6,0,0,1,-1,0
27462704137,0,6,1,1,-2,1,1,2
27462719084,1,-8,-3,-3,-4,-4,-2,0
27462719084,-4,6,-1,1,-2,-2,-1,-4
27462719983,-2,-4,-3,-1,-1,0,1,0
27462719983,3,6,-2,0,0,-1,1,0
27462741565,-2,7,6,1,0,-1,-1,-1
27462741565,-3,-9,-3,0,-2,-1,-2,-1
27462742364,-2,-12,-11,-1,1,0,-1,-1
27462742364,-1,9,5,0,-3,-3,-4,-1
27462755907,0,2,4,0,-1,-2,-1,-1
27462755907,-1,-4,-2,-2,0,-1,-1,-2
27462764180,-1,3,0,1,-1,-2,-1,-4
27462764180,-1,-5,-3,-1,0,1,-1,2
27462779051,-5,-12,-9,-5,-4,-3,0,-2
27462779051,-1,8,2,2,0,0,-2,0
27462786795,0,1,-3,1,2,0,-1,0
27462786795,-5,-11,-6,-1,-2,-3,-1,-2
27462801434,1,3,2,0,0,2,-1,1
27462801434,-1,-2,0,-1,-2,0,-1,0
27462809168,0,-1,2,-1,-1,-3,-1,0
27462809168,0,-6,-8,-3,-2,-3,-2,-2
27462816715,0,9,7,-2,-1,-3,0,0
27462816715,-4,-16,-6,-2,0,-1,0,-2
27462817394,6,30,13,1,-2,1,0,0
27462817394,-4,-2,2,0,1,0,1,0
27462839167,-2,-7,-6,-1,-1,-1,0,-3
27462839167,-4,-4,-2,-2,0,-1,-1,-3
27462839935,-4,-8,-1,0,-1,-1,0,0
27462839935,0,0,-2,-3,-3,-1,-1,-2
27462861764,-1,3,-3,1,0,2,0,-1
27462861764,0,0,-2,0,0,-2,0,1
27462862475,-5,-12,-6,-2,0,-1,-3,-2
27462862475,-2,-4,1,-1,0,-1,-1,1
27462876548,-1,-2,1,-1,-5,-1,-2,0
27462876548,0,1,1,0,-2,-1,-3,0
27462877363,0,2,0,-3,-2,-1,-2,-2
27462877363,0,0,0,0,-1,0,0,0
27462899157,-4,-8,-6,-1,0,-1,-1,-2
27462899157,1,5,0,-1,0,0,1,1
27462899991,0,-3,-3,-2,-2,-1,0,2
27462899991,-2,4,2,-2,-1,-1,-3,-4
27462921733,0,-4,-3,0,1,0,0,1
27462921733,-2,-7,-6,-1,-2,-2,-2,-3
27462922456,0,2,4,0,-2,0,-1,0
27462922456,-2,-9,-3,-4,0,1,-1,-1
27462936686,-1,5,2,-2,-1,0,-1,-1
27462936686,1,-1,-1,-1,0,0,-1,0
27462937396,-2,-1,-2,0,0,1,1,-1
27462937396,1,-9,-5,-2,-3,-2,-1,-1
27462959319,1,17,5,2,0,0,0,0
27462959319,-2,0,-2,-3,-2,0,-2,-1
27462959926,-1,-4,-3,1,1,1,-1,-2
27462959926,0,4,0,0,-3,0,1,1
27462981660,3,-3,-3,-1,-1,-1,0,1
27462981660,-6,-4,0,-1,-1,-2,0,-1
27462982432,-1,-3,-1,-2,0,0,0,-3
27462982432,0,-1,-1,0,0,-1,-1,1
27462996677,1,-2,-2,-3,-1,-2,-2,-2
27462996677,0,3,0,0,-2,-2,-2,-1
27462997369,-3,-3,1,-2,-2,-1,-2,-3
27462997369,2,2,1,-2,-1,-1,-2,0
27463019281,-3,-3,-5,-1,-1,0,-1,-1
27463019281,2,5,1,0,-1,0,0,1
27463019911,-1,-3,-1,-1,-4,-2,-1,0
27463019911,2,-4,-2,-1,-1,-2,-1,1
27463041618,-5,12,2,0,-1,-3,-2,-5
27463041618,-2,3,4,0,1,0,-2,-3
27463042461,-2,-4,-3,-3,-1,-2,-1,-2
27463042461,-3,3,1,0,-1,-1,0,-1
27463064974,-1,-9,-2,0,-1,-3,-2,-3
27463064974,-1,-4,-3,1,0,1,-1,0
27463065615,0,0,-4,-2,0,-1,-1,-1
27463065615,-5,-1,-3,0,0,-1,0,1
27463079209,1,-6,-3,-2,-1,0,-1,-4
27463079209,-1,-1,-1,0,0,-2,0,-1
27463079985,2,2,0,-1,-1,-1,0,0
27463079985,-2,-1,-2,-1,-2,-1,-1,0
27463101718,1,-4,-4,0,0,1,-1,1
27463101718,2,5,4,0,1,2,0,-1
27463102354,-1,-2,-2,0,-1,0,0,1
27463102354,0,1,1,0,0,-2,-3,-5
27463116063,-4,-2,-1,-2,-2,-2,1,-4
27463116063,7,-3,-4,-1,0,-3,0,3
27463124239,-1,-8,-5,-2,-2,-2,-3,-3
27463124239,0,-2,1,0,-1,1,0,-3
27463139196,-1,1,2,0,0,-1,-3,-2
27463139196,-3,-6,-3,0,1,1,-1,-3
27463139919,-1,-1,-2,1,-1,-2,-1,0
27463139919,2,3,-2,-2,0,0,0,1
27463161688,-7,-2,-1,-1,-3,0,0,-1
27463161688,-3,-1,1,-2,-4,0,-1,-1
27463162429,2,-1,-2,-3,-1,-2,-1,-2
27463162429,0,-2,-2,0,-1,-3,-1,0
27463175901,-1,0,0,-1,-2,-1,-1,1
27463175901,-1,-7,-5,-2,-3,-1,-2,0
