27494360655,-0.118041992188,0.130981445312,-0.698059082031,0.693969726562
27494384430,-0.117858886719,0.130920410156,-0.698120117188,0.693969726562
27494399532,-0.117065429688,0.131042480469,-0.697998046875,0.694213867188
27494420705,-0.114807128906,0.136779785156,-0.697082519531,0.694396972656
27494443218,-0.116088867188,0.13525390625,-0.697509765625,0.694030761719
27494465812,-0.114135742188,0.139404296875,-0.69677734375,0.694274902344
27494480746,-0.110778808594,0.145263671875,-0.695678710938,0.694763183594
27494504474,-0.111083984375,0.144409179688,-0.695861816406,0.694702148438
27494519463,-0.111938476562,0.142700195312,-0.696166992188,0.694580078125
27494573451,-0.110534667969,0.146118164062,-0.695617675781,0.694641113281
27494574114,-0.107482910156,0.151428222656,-0.694580078125,0.695007324219
27494583554,-0.107971191406,0.150146484375,-0.69482421875,0.695007324219
27494600780,-0.110107421875,0.144836425781,-0.695922851562,0.694641113281
27494623270,-0.109252929688,0.14453125,-0.696350097656,0.694458007812
27494650346,-0.109191894531,0.143859863281,-0.696533203125,0.694396972656
27494699963,-0.109252929688,0.143737792969,-0.696594238281,0.694396972656
27494700711,-0.109313964844,0.143676757812,-0.696594238281,0.694396972656
27494722572,-0.109252929688,0.143676757812,-0.696594238281,0.694396972656
27494723424,-0.106079101562,0.143981933594,-0.69677734375,0.694580078125
27494743772,-0.106262207031,0.14404296875,-0.69677734375,0.694580078125
27494759445,-0.10595703125,0.144958496094,-0.696594238281,0.694580078125
27494780615,-0.105163574219,0.146545410156,-0.6962890625,0.694702148438
27494803106,-0.105285644531,0.14599609375,-0.696411132812,0.694702148438
27494820981,-0.108947753906,0.138916015625,-0.697875976562,0.694091796875
27494840413,-0.108215332031,0.141418457031,-0.697570800781,0.694030761719
27494863221,-0.104919433594,0.14794921875,-0.696472167969,0.694274902344
27494880979,-0.1064453125,0.144714355469,-0.697143554688,0.694030761719
27494900656,-0.109680175781,0.139343261719,-0.698364257812,0.693420410156
27494923107,-0.112487792969,0.139038085938,-0.6982421875,0.693176269531
27494940912,-0.11181640625,0.139038085938,-0.698364257812,0.693176269531
27494960549,-0.111328125,0.139404296875,-0.698425292969,0.693054199219
27494983048,-0.110778808594,0.139953613281,-0.698486328125,0.692993164062
27495000908,-0.110107421875,0.140991210938,-0.698486328125,0.69287109375
27495020644,-0.109741210938,0.142822265625,-0.698364257812,0.692749023438
27495043096,-0.109558105469,0.145385742188,-0.698059082031,0.692504882812
27495060912,-0.109619140625,0.148254394531,-0.697814941406,0.692138671875
27495080572,-0.109741210938,0.151550292969,-0.697692871094,0.691528320312
27495103105,-0.109130859375,0.154418945312,-0.697937011719,0.690795898438
27495120896,-0.107788085938,0.157043457031,-0.698364257812,0.68994140625
27495140539,-0.105773925781,0.159729003906,-0.699035644531,0.68896484375
27495163074,-0.103698730469,0.162719726562,-0.699584960938,0.68798828125
27495180938,-0.101135253906,0.165161132812,-0.700256347656,0.687133789062
27495201924,-0.0971069335938,0.166564941406,-0.700866699219,0.686767578125
27495223109,-0.0912475585938,0.167846679688,-0.701477050781,0.686584472656
27495240958,-0.0863647460938,0.169982910156,-0.701599121094,0.686584472656
27495261923,-0.0822143554688,0.173095703125,-0.700866699219,0.687072753906
27495283143,-0.077392578125,0.17626953125,-0.699951171875,0.687744140625
27495300915,-0.072265625,0.179809570312,-0.698791503906,0.688537597656
27495322586,-0.0668334960938,0.183532714844,-0.697631835938,0.689331054688
27495342913,-0.0609130859375,0.187622070312,-0.696105957031,0.690307617188
27495360862,-0.0543212890625,0.191711425781,-0.694091796875,0.691772460938
27495381947,-0.0471801757812,0.195678710938,-0.692077636719,0.693176269531
27495403046,-0.0393676757812,0.19921875,-0.690124511719,0.694641113281
27495420917,-0.0314331054688,0.203002929688,-0.687927246094,0.696044921875
27495441914,-0.02294921875,0.206970214844,-0.685485839844,0.697631835938
27495463119,-0.0134887695312,0.210205078125,-0.683227539062,0.699157714844
27495480904,-0.00262451171875,0.213012695312,-0.681091308594,0.700500488281
27495501919,0.00823974609375,0.215393066406,-0.679443359375,0.701354980469
27495530523,0.018310546875,0.219482421875,-0.677368164062,0.701904296875
27495540920,0.0279541015625,0.224731445312,-0.674743652344,0.702392578125
27495562032,0.0379028320312,0.230285644531,-0.671813964844,0.702941894531
27495582964,0.0476684570312,0.236877441406,-0.669006347656,0.702880859375
27495600903,0.0570068359375,0.244262695312,-0.666198730469,0.702331542969
27495630912,0.0652465820312,0.252746582031,-0.662841796875,0.701782226562
27495643070,0.073486328125,0.261413574219,-0.658996582031,0.701416015625
27495660076,0.0833129882812,0.268676757812,-0.656005859375,0.700378417969
27495682553,0.094482421875,0.275146484375,-0.653869628906,0.698425292969
27495705065,0.10546875,0.281860351562,-0.651611328125,0.6962890625
27495726221,0.115295410156,0.289184570312,-0.648742675781,0.6943359375
27495757553,0.123840332031,0.297302246094,-0.6455078125,0.692504882812
27495765041,0.131469726562,0.305297851562,-0.642639160156,0.690307617188
27495786228,0.139343261719,0.312377929688,-0.640319824219,0.687683105469
27495808791,0.147827148438,0.318237304688,-0.638854980469,0.6845703125
27495824781,0.156188964844,0.323425292969,-0.637634277344,0.681457519531
27495846085,0.163879394531,0.328857421875,-0.635375976562,0.67919921875
27495862934,0.169982910156,0.334899902344,-0.632507324219,0.677368164062
27495885076,0.175964355469,0.340576171875,-0.630004882812,0.675354003906
27495906150,0.182922363281,0.345458984375,-0.627563476562,0.673278808594
27495922528,0.189880371094,0.350463867188,-0.624877929688,0.671264648438
27495953237,0.19677734375,0.355773925781,-0.621643066406,0.669494628906
27495966167,0.203674316406,0.361083984375,-0.617858886719,0.668090820312
27495981942,0.210693359375,0.366577148438,-0.613891601562,0.666625976562
27496005018,0.218078613281,0.372009277344,-0.609680175781,0.6650390625
27496033741,0.225219726562,0.377380371094,-0.605407714844,0.663513183594
27496041923,0.232788085938,0.382263183594,-0.601196289062,0.661987304688
27496065048,0.240112304688,0.38720703125,-0.596740722656,0.660522460938
27496087547,0.246948242188,0.392028808594,-0.592407226562,0.659057617188
27496101919,0.25341796875,0.396545410156,-0.588439941406,0.657470703125
27496125071,0.259643554688,0.400634765625,-0.584716796875,0.655822753906
27496147523,0.265686035156,0.404357910156,-0.581359863281,0.654174804688
27496161921,0.271301269531,0.407531738281,-0.578125,0.652709960938
27496185055,0.276123046875,0.410827636719,-0.575012207031,0.6513671875
27496213705,0.280700683594,0.41357421875,-0.572448730469,0.64990234375
27496221903,0.285339355469,0.415710449219,-0.570251464844,0.648498535156
27496245076,0.289733886719,0.417236328125,-0.567687988281,0.647766113281
27496267543,0.293334960938,0.418701171875,-0.564453125,0.648071289062
27496290043,0.295166015625,0.420837402344,-0.560852050781,0.648986816406
27496305043,0.296447753906,0.423095703125,-0.557189941406,0.650085449219
27496327675,0.2978515625,0.42529296875,-0.553771972656,0.650939941406
27496348568,0.299743652344,0.427124023438,-0.550903320312,0.651306152344
27496364995,0.301574707031,0.428405761719,-0.548583984375,0.651550292969
27496387522,0.303283691406,0.428955078125,-0.546447753906,0.652160644531
27496408663,0.304870605469,0.4296875,-0.544372558594,0.652709960938
27496425070,0.306274414062,0.430603027344,-0.542236328125,0.653259277344
27496447281,0.307250976562,0.431274414062,-0.540344238281,0.653869628906
27496461922,0.308166503906,0.431701660156,-0.538757324219,0.654479980469
27496485671,0.309204101562,0.432006835938,-0.537414550781,0.654907226562
27496515048,0.310241699219,0.432373046875,-0.536315917969,0.655090332031
27496521927,0.311218261719,0.432922363281,-0.535095214844,0.655212402344
27496545048,0.311828613281,0.433898925781,-0.533630371094,0.655517578125
27496567525,0.312255859375,0.434448242188,-0.532531738281,0.65576171875
27496590043,0.312805175781,0.434814453125,-0.53173828125,0.655944824219
27496605069,0.3134765625,0.435119628906,-0.530944824219,0.656066894531
27496628221,0.313903808594,0.435485839844,-0.530090332031,0.656311035156
27496649136,0.314086914062,0.435791015625,-0.529174804688,0.656799316406
27496665022,0.31396484375,0.436340332031,-0.528381347656,0.657104492188
27496687554,0.314270019531,0.436584472656,-0.527587890625,0.657470703125
27496708726,0.314331054688,0.436645507812,-0.526489257812,0.658264160156
27496725029,0.314208984375,0.43701171875,-0.525207519531,0.659057617188
27496747563,0.31396484375,0.4375,-0.52392578125,0.659912109375
27496768615,0.314147949219,0.437805175781,-0.5224609375,0.660827636719
27496785059,0.314208984375,0.438049316406,-0.520874023438,0.661804199219
27496807967,0.314392089844,0.438232421875,-0.519470214844,0.662719726562
27496829128,0.31494140625,0.438354492188,-0.518127441406,0.663391113281
27496844999,0.315124511719,0.4384765625,-0.516967773438,0.664123535156
27496867511,0.314697265625,0.438354492188,-0.51611328125,0.665161132812
27496890043,0.314086914062,0.43798828125,-0.515808105469,0.665832519531
27496905676,0.313720703125,0.437683105469,-0.515563964844,0.666442871094
27496933675,0.3134765625,0.437438964844,-0.515075683594,0.667053222656
27496948742,0.313110351562,0.437255859375,-0.514709472656,0.667663574219
27496965422,0.312927246094,0.436645507812,-0.514526367188,0.668273925781
27496989439,0.312622070312,0.436157226562,-0.514465332031,0.668823242188
27497008678,0.3125,0.43603515625,-0.514404296875,0.669006347656
27497025071,0.312133789062,0.435913085938,-0.514282226562,0.669311523438
27497047534,0.311584472656,0.435791015625,-0.514343261719,0.669677734375
27497070014,0.311401367188,0.435302734375,-0.514892578125,0.669677734375
27497085041,0.311218261719,0.435302734375,-0.515502929688,0.669189453125
27497115700,0.310729980469,0.434997558594,-0.515869140625,0.669372558594
27497129789,0.3095703125,0.434814453125,-0.516357421875,0.669616699219
27497144995,0.309143066406,0.434143066406,-0.517395019531,0.669494628906
27497168174,0.309204101562,0.433837890625,-0.517944335938,0.669250488281
27497190000,0.308227539062,0.433959960938,-0.517883300781,0.669677734375
27497205706,0.307373046875,0.43359375,-0.518127441406,0.670104980469
27497227544,0.307373046875,0.432983398438,-0.518493652344,0.670166015625
27497250019,0.307250976562,0.4326171875,-0.5185546875,0.670471191406
27497265049,0.306640625,0.432312011719,-0.518432617188,0.671020507812
27497287551,0.306091308594,0.431762695312,-0.518615722656,0.671447753906
27497325065,0.306091308594,0.431518554688,-0.51904296875,0.671325683594
27497327368,0.305541992188,0.431274414062,-0.519165039062,0.671630859375
27497347486,0.3046875,0.431091308594,-0.519165039062,0.672119140625
27497369975,0.304321289062,0.430603027344,-0.519653320312,0.672241210938
27497384982,0.304504394531,0.430053710938,-0.520080566406,0.672180175781
27497407926,0.303955078125,0.429931640625,-0.519897460938,0.672668457031
27497429994,0.303344726562,0.429565429688,-0.519714355469,0.673278808594
27497444348,0.30322265625,0.428894042969,-0.520202636719,0.673400878906
27497467547,0.303466796875,0.428466796875,-0.520385742188,0.673400878906
27497490019,0.302734375,0.428405761719,-0.520202636719,0.673950195312
27497504382,0.3017578125,0.427978515625,-0.520385742188,0.674438476562
27497527528,0.301696777344,0.427429199219,-0.520935058594,0.674377441406
27497550025,0.301452636719,0.427124023438,-0.521301269531,0.674438476562
27497571187,0.300720214844,0.4267578125,-0.521240234375,0.675109863281
27497587482,0.299926757812,0.426330566406,-0.521423339844,0.675537109375
27497610039,0.299987792969,0.42578125,-0.521728515625,0.675598144531
27497631277,0.299865722656,0.42529296875,-0.521850585938,0.675903320312
27497647514,0.299255371094,0.424865722656,-0.521911621094,0.676391601562
27497670435,0.298767089844,0.424560546875,-0.522155761719,0.676574707031
27497691139,0.298706054688,0.423889160156,-0.522705078125,0.676635742188
27497707495,0.298034667969,0.423461914062,-0.52294921875,0.677001953125
27497730045,0.296752929688,0.423034667969,-0.523071289062,0.677734375
27497752459,0.29541015625,0.422485351562,-0.523864746094,0.678100585938
27497767538,0.294616699219,0.42138671875,-0.524719238281,0.678405761719
27497790030,0.293701171875,0.420837402344,-0.525146484375,0.678833007812
27497828140,0.292358398438,0.419799804688,-0.525634765625,0.6796875
27497830452,0.290283203125,0.418884277344,-0.526000976562,0.680847167969
27497850062,0.289428710938,0.417175292969,-0.527221679688,0.681274414062
27497871908,0.28857421875,0.415832519531,-0.528381347656,0.681579589844
27497888150,0.286315917969,0.414978027344,-0.529479980469,0.682189941406
27497910044,0.284545898438,0.413208007812,-0.5302734375,0.683410644531
27497931187,0.282653808594,0.411743164062,-0.53125,0.684326171875
27497953673,0.281921386719,0.40966796875,-0.53271484375,0.684692382812
27497970060,0.281433105469,0.407470703125,-0.534057617188,0.685180664062
27497991158,0.279968261719,0.405883789062,-0.535278320312,0.685791015625
27498006850,0.277770996094,0.404174804688,-0.536376953125,0.686828613281
27498030031,0.27490234375,0.401977539062,-0.538024902344,0.68798828125
27498052492,0.271850585938,0.399536132812,-0.540405273438,0.688781738281
27498066922,0.268920898438,0.396789550781,-0.543212890625,0.689270019531
27498090018,0.265319824219,0.394287109375,-0.546264648438,0.689697265625
27498112517,0.261901855469,0.390869140625,-0.549194335938,0.690612792969
27498126960,0.257629394531,0.387451171875,-0.551879882812,0.692077636719
27498134370,0.2529296875,0.384094238281,-0.554809570312,0.693298339844
27498155501,0.248046875,0.380676269531,-0.558166503906,0.694213867188
27498178042,0.242797851562,0.377136230469,-0.561706542969,0.695190429688
27498201914,0.237670898438,0.373291015625,-0.565185546875,0.696228027344
27498215540,0.232238769531,0.369262695312,-0.568603515625,0.697387695312
27498245943,0.226684570312,0.365478515625,-0.572082519531,0.698364257812
27498255801,0.221374511719,0.361511230469,-0.575805664062,0.699035644531
27498284335,0.21630859375,0.357360839844,-0.57958984375,0.699645996094
27498307493,0.210876464844,0.35302734375,-0.583068847656,0.700622558594
27498314345,0.205261230469,0.348937988281,-0.58642578125,0.701538085938
27498335527,0.200073242188,0.344482421875,-0.589782714844,0.702453613281
27498358056,0.194763183594,0.340209960938,-0.593078613281,0.703247070312
27498381807,0.189208984375,0.336120605469,-0.596374511719,0.703979492188
27498405828,0.184020996094,0.331787109375,-0.599914550781,0.704345703125
27498427295,0.1787109375,0.327392578125,-0.603637695312,0.70458984375
27498435837,0.173278808594,0.322814941406,-0.607482910156,0.704772949219
27498458791,0.167785644531,0.318054199219,-0.611267089844,0.704956054688
27498481233,0.162475585938,0.313293457031,-0.615173339844,0.704956054688
27498500527,0.157043457031,0.308410644531,-0.619201660156,0.704772949219
27498515375,0.151794433594,0.303527832031,-0.623352050781,0.704406738281
27498538187,0.146484375,0.29833984375,-0.627807617188,0.703857421875
27498555913,0.141540527344,0.292724609375,-0.632080078125,0.703369140625
27498578939,0.136291503906,0.287231445312,-0.635986328125,0.703125
27498598024,0.130310058594,0.281860351562,-0.639709472656,0.703063964844
27498614349,0.124145507812,0.276428222656,-0.6435546875,0.702880859375
27498635472,0.118347167969,0.270874023438,-0.647399902344,0.702453613281
27498660813,0.112670898438,0.265014648438,-0.651245117188,0.702026367188
27498681953,0.107299804688,0.258728027344,-0.655029296875,0.701721191406
27498703065,0.1015625,0.25244140625,-0.658813476562,0.701354980469
27498726153,0.0958862304688,0.246154785156,-0.66259765625,0.700805664062
27498734334,0.0900268554688,0.239685058594,-0.66650390625,0.7001953125
27498755457,0.0843505859375,0.233215332031,-0.670471191406,0.69921875
27498788967,0.0790405273438,0.226623535156,-0.674621582031,0.698059082031
27498794381,0.0734252929688,0.220275878906,-0.678649902344,0.69677734375
27498815490,0.067138671875,0.21435546875,-0.682556152344,0.695434570312
27498838135,0.0607299804688,0.208618164062,-0.686340332031,0.694091796875
27498855785,0.0545043945312,0.202514648438,-0.690002441406,0.692687988281
27498875488,0.0482788085938,0.196472167969,-0.693786621094,0.691162109375
27498897941,0.0416259765625,0.190795898438,-0.697448730469,0.689514160156
27498914317,0.0350952148438,0.184936523438,-0.700988769531,0.687866210938
27498935555,0.0289916992188,0.1787109375,-0.704406738281,0.686279296875
27498960790,0.02294921875,0.172485351562,-0.707824707031,0.684631347656
27498975770,0.0170288085938,0.166076660156,-0.711181640625,0.682922363281
27498995476,0.0108642578125,0.159973144531,-0.71435546875,0.68115234375
27499018151,0.00439453125,0.154296875,-0.71728515625,0.679504394531
27499035815,-0.00213623046875,0.148803710938,-0.719787597656,0.678039550781
27499055526,-0.00799560546875,0.143493652344,-0.72216796875,0.676574707031
27499078054,-0.0133056640625,0.138549804688,-0.724487304688,0.675109863281
27499095783,-0.0186157226562,0.134582519531,-0.726501464844,0.673583984375
27499115443,-0.0242919921875,0.131591796875,-0.728210449219,0.672180175781
27499138048,-0.0299682617188,0.129638671875,-0.7294921875,0.6708984375
27499161924,-0.0352172851562,0.128479003906,-0.730651855469,0.669616699219
27499183195,-0.0401000976562,0.127502441406,-0.731872558594,0.668212890625
27499198046,-0.0439453125,0.12744140625,-0.733459472656,0.666198730469
27499215798,-0.048583984375,0.127807617188,-0.734558105469,0.664611816406
27499238311,-0.052978515625,0.128784179688,-0.735473632812,0.6630859375
27499258148,-0.0568237304688,0.129760742188,-0.736206054688,0.661804199219
27499275818,-0.0601196289062,0.130859375,-0.736633300781,0.660766601562
27499295497,-0.062744140625,0.131591796875,-0.736938476562,0.660034179688
27499318135,-0.0647583007812,0.1318359375,-0.737243652344,0.659484863281
27499335789,-0.0665893554688,0.131958007812,-0.737487792969,0.658996582031
27499357232,-0.068359375,0.131652832031,-0.737670898438,0.65869140625
27499373233,-0.0699462890625,0.130737304688,-0.737854003906,0.658508300781
27499395783,-0.0714111328125,0.129577636719,-0.738037109375,0.658325195312
27499416831,-0.0725708007812,0.127746582031,-0.738342285156,0.658264160156
27499433293,-0.0737915039062,0.125793457031,-0.738647460938,0.658142089844
27499455824,-0.074951171875,0.1240234375,-0.738891601562,0.658081054688
27499475487,-0.076171875,0.122314453125,-0.738952636719,0.658203125
27499493279,-0.0774536132812,0.120788574219,-0.739013671875,0.658264160156
27499515768,-0.0789184570312,0.119506835938,-0.739074707031,0.658203125
27499536920,-0.0805053710938,0.118347167969,-0.739196777344,0.658081054688
27499553328,-0.0823364257812,0.117309570312,-0.739318847656,0.657958984375
27499575785,-0.084228515625,0.116149902344,-0.739379882812,0.657836914062
27499596797,-0.086181640625,0.114379882812,-0.739562988281,0.65771484375
27499613244,-0.087890625,0.111938476562,-0.739929199219,0.657470703125
27499635780,-0.0889892578125,0.109313964844,-0.740234375,0.657348632812
27499656826,-0.0901489257812,0.107116699219,-0.740478515625,0.657348632812
27499673306,-0.091552734375,0.105651855469,-0.740539550781,0.657348632812
27499695810,-0.093017578125,0.104919433594,-0.740295410156,0.657531738281
27499716869,-0.0941772460938,0.1044921875,-0.739929199219,0.657836914062
27499732511,-0.0949096679688,0.103759765625,-0.739501953125,0.658325195312
27499754942,-0.0952758789062,0.102966308594,-0.739135742188,0.658752441406
27499778970,-0.0953979492188,0.101989746094,-0.738952636719,0.6591796875
27499792483,-0.0955810546875,0.101135253906,-0.738647460938,0.659545898438
27499815018,-0.0960083007812,0.100830078125,-0.738220214844,0.660034179688
27499836188,-0.0952758789062,0.100280761719,-0.738037109375,0.660461425781
27499852501,-0.0951538085938,0.101501464844,-0.73779296875,0.660522460938
27499874968,-0.0960693359375,0.10302734375,-0.7373046875,0.660766601562
27499897522,-0.09716796875,0.104187011719,-0.73681640625,0.660949707031
27499912500,-0.0984497070312,0.105590820312,-0.736328125,0.661010742188
27499934932,-0.0997924804688,0.107238769531,-0.73583984375,0.6611328125
27499957497,-0.100524902344,0.108581542969,-0.7353515625,0.661376953125
27499972966,-0.101135253906,0.109802246094,-0.73486328125,0.661560058594
27499994994,-0.101684570312,0.111083984375,-0.734436035156,0.661804199219
27500017494,-0.102478027344,0.1123046875,-0.734008789062,0.661926269531
27500031795,-0.103393554688,0.113525390625,-0.733581542969,0.661987304688
27500054952,-0.104309082031,0.114807128906,-0.733154296875,0.662109375
27500077474,-0.10498046875,0.115783691406,-0.732727050781,0.662292480469
27500099945,-0.10546875,0.116455078125,-0.732360839844,0.662536621094
27500121125,-0.105895996094,0.116882324219,-0.732055664062,0.662719726562
