27808537732,-0.0753173828125,0.148559570312,-0.832214355469,0.52880859375
27808554228,-0.0753173828125,0.148559570312,-0.832214355469,0.52880859375
27808575366,-0.0753784179688,0.148559570312,-0.832214355469,0.52880859375
27808599146,-0.0751342773438,0.147094726562,-0.832397460938,0.528991699219
27808614030,-0.0779418945312,0.144653320312,-0.832824707031,0.528625488281
27808635566,-0.0786743164062,0.14404296875,-0.832885742188,0.528503417969
27808659122,-0.0780639648438,0.145141601562,-0.832702636719,0.528625488281
27808674121,-0.0768432617188,0.146606445312,-0.832458496094,0.52880859375
27808695568,-0.0771484375,0.145874023438,-0.832580566406,0.528747558594
27808734798,-0.078369140625,0.144409179688,-0.832824707031,0.528564453125
27808736932,-0.077392578125,0.146728515625,-0.83251953125,0.528625488281
27808756826,-0.072021484375,0.152709960938,-0.831420898438,0.529418945312
27808771785,-0.0722045898438,0.152099609375,-0.83154296875,0.529357910156
27808801763,-0.0750122070312,0.152587890625,-0.831359863281,0.529113769531
27808828374,-0.0757446289062,0.151977539062,-0.831298828125,0.529235839844
27808833345,-0.07568359375,0.151977539062,-0.831298828125,0.529235839844
27808867781,-0.07568359375,0.151977539062,-0.831298828125,0.529235839844
27808878568,-0.07568359375,0.151916503906,-0.831298828125,0.529235839844
27808891529,-0.0763549804688,0.152282714844,-0.831481933594,0.528869628906
27808912713,-0.07666015625,0.154235839844,-0.831115722656,0.52880859375
27808935223,-0.0792846679688,0.151550292969,-0.831665039062,0.5283203125
27808953540,-0.0768432617188,0.154846191406,-0.831176757812,0.528503417969
27808972728,-0.071533203125,0.160034179688,-0.830200195312,0.529174804688
27808995197,-0.0723876953125,0.156921386719,-0.830810546875,0.529052734375
27809013077,-0.0770263671875,0.150085449219,-0.832153320312,0.5283203125
27809032786,-0.0758666992188,0.151733398438,-0.831787109375,0.528564453125
27809055252,-0.070556640625,0.157592773438,-0.83056640625,0.529479980469
27809073062,-0.071044921875,0.155700683594,-0.830749511719,0.529663085938
27809092721,-0.0669555664062,0.156494140625,-0.830444335938,0.530517578125
27809115259,-0.0654907226562,0.158386230469,-0.829467773438,0.531616210938
27809133054,-0.0620727539062,0.16015625,-0.828491210938,0.533020019531
27809152766,-0.057373046875,0.160583496094,-0.827514648438,0.534912109375
27809175246,-0.0509033203125,0.161193847656,-0.826232910156,0.537414550781
27809193055,-0.0440063476562,0.161743164062,-0.824584960938,0.540344238281
27809212744,-0.0360107421875,0.161865234375,-0.822631835938,0.543884277344
27809235171,-0.0280151367188,0.16259765625,-0.820739746094,0.546997070312
27809253055,-0.0205688476562,0.164733886719,-0.818237304688,0.550415039062
27809280336,-0.0130004882812,0.1669921875,-0.815551757812,0.553955078125
27809295249,-0.00421142578125,0.169006347656,-0.812744140625,0.557556152344
27809313098,0.0054931640625,0.170715332031,-0.809875488281,0.561157226562
27809334095,0.0159912109375,0.172119140625,-0.806945800781,0.564819335938
27809355121,0.0264892578125,0.17431640625,-0.803771972656,0.568176269531
27809379040,0.0369262695312,0.177185058594,-0.800415039062,0.571472167969
27809394086,0.04736328125,0.180786132812,-0.796875,0.574523925781
27809415240,0.0585327148438,0.184326171875,-0.793395996094,0.5771484375
27809433003,0.06982421875,0.188720703125,-0.789855957031,0.579406738281
27809455588,0.0812377929688,0.193359375,-0.786010742188,0.58154296875
27809475255,0.0931396484375,0.197631835938,-0.782287597656,0.583374023438
27809493063,0.10693359375,0.20068359375,-0.778686523438,0.584716796875
27809514096,0.120849609375,0.203918457031,-0.775634765625,0.585021972656
27809535223,0.13427734375,0.208435058594,-0.772583007812,0.58447265625
27809553042,0.148620605469,0.21240234375,-0.769409179688,0.583801269531
27809580305,0.161987304688,0.216369628906,-0.766174316406,0.5830078125
27809595171,0.174011230469,0.220825195312,-0.7626953125,0.582397460938
27809613037,0.184204101562,0.225952148438,-0.758972167969,0.582214355469
27809634137,0.19384765625,0.229736328125,-0.755615234375,0.581970214844
27809655132,0.204284667969,0.230285644531,-0.753234863281,0.581298828125
27809673044,0.216186523438,0.227416992188,-0.751220703125,0.580627441406
27809695551,0.227111816406,0.223266601562,-0.750183105469,0.579467773438
27809715276,0.236267089844,0.219116210938,-0.749572753906,0.578186035156
27809733075,0.245361328125,0.2138671875,-0.748901367188,0.577270507812
27809755533,0.255249023438,0.207153320312,-0.748046875,0.576477050781
27809782730,0.265502929688,0.200256347656,-0.7470703125,0.575561523438
27809797820,0.275329589844,0.19482421875,-0.746154785156,0.573974609375
27809815561,0.2841796875,0.190307617188,-0.745788574219,0.571655273438
27809835251,0.293029785156,0.184936523438,-0.745971679688,0.568725585938
27809858487,0.300842285156,0.180053710938,-0.747009277344,0.564819335938
27809874729,0.309020996094,0.176086425781,-0.748229980469,0.56005859375
27809897242,0.318481445312,0.172607421875,-0.748718261719,0.55517578125
27809918437,0.327331542969,0.171325683594,-0.747680664062,0.551818847656
27809934754,0.332885742188,0.172058105469,-0.745971679688,0.550537109375
27809957215,0.336242675781,0.175964355469,-0.743591308594,0.550476074219
27809978484,0.340454101562,0.180236816406,-0.740600585938,0.550537109375
27809994747,0.347595214844,0.184692382812,-0.736633300781,0.549987792969
27810017218,0.355041503906,0.189208984375,-0.732116699219,0.549682617188
27810038379,0.357971191406,0.198303222656,-0.727111816406,0.551208496094
27810054192,0.361022949219,0.204467773438,-0.721740722656,0.554016113281
27810077274,0.366943359375,0.204650878906,-0.716918945312,0.556335449219
27810098432,0.372192382812,0.208068847656,-0.714233398438,0.554992675781
27810114087,0.37255859375,0.220153808594,-0.711730957031,0.553283691406
27810137246,0.370422363281,0.235046386719,-0.709167480469,0.551818847656
27810159778,0.363952636719,0.251159667969,-0.708190917969,0.550354003906
27810174096,0.355651855469,0.263366699219,-0.709533691406,0.54833984375
27810197240,0.353210449219,0.269897460938,-0.711608886719,0.544067382812
27810219725,0.354248046875,0.273071289062,-0.71435546875,0.538146972656
27810234094,0.353881835938,0.277648925781,-0.716857910156,0.532775878906
27810257246,0.351135253906,0.284851074219,-0.718139648438,0.528991699219
27810279729,0.34619140625,0.294372558594,-0.718444824219,0.526611328125
27810302219,0.339660644531,0.305725097656,-0.718872070312,0.523803710938
27810317727,0.332336425781,0.318237304688,-0.719421386719,0.520263671875
27810347279,0.324462890625,0.331298828125,-0.718688964844,0.51806640625
27810354071,0.318054199219,0.343078613281,-0.71728515625,0.516357421875
27810377234,0.314086914062,0.352233886719,-0.716491699219,0.513671875
27810399677,0.310913085938,0.360046386719,-0.716247558594,0.510559082031
27810420734,0.307739257812,0.368347167969,-0.715393066406,0.507690429688
27810437188,0.304992675781,0.376708984375,-0.713317871094,0.506164550781
27810459712,0.303649902344,0.385131835938,-0.710632324219,0.50439453125
27810488358,0.302124023438,0.393981933594,-0.708068847656,0.502136230469
27810497227,0.299011230469,0.40380859375,-0.704528808594,0.501159667969
27810519749,0.296142578125,0.412353515625,-0.700500488281,0.501586914062
27810540935,0.295104980469,0.418579101562,-0.697021484375,0.501892089844
27810557255,0.293762207031,0.4248046875,-0.693298339844,0.502563476562
27810579746,0.294616699219,0.425903320312,-0.691467285156,0.503601074219
27810600801,0.295715332031,0.427307128906,-0.68896484375,0.505187988281
27810616572,0.295532226562,0.43115234375,-0.685546875,0.506713867188
27810639756,0.294677734375,0.43505859375,-0.681884765625,0.508850097656
27810662196,0.294006347656,0.438537597656,-0.678161621094,0.511169433594
27810691018,0.293823242188,0.440856933594,-0.675048828125,0.513366699219
27810699728,0.293762207031,0.443481445312,-0.672241210938,0.514831542969
27810722254,0.295043945312,0.443481445312,-0.670959472656,0.515747070312
27810736589,0.2978515625,0.439758300781,-0.672180175781,0.515808105469
27810759722,0.300415039062,0.438781738281,-0.671508789062,0.515930175781
27810780927,0.30078125,0.440795898438,-0.669982910156,0.516052246094
27810797195,0.299926757812,0.443664550781,-0.66796875,0.516723632812
27810820400,0.298645019531,0.445068359375,-0.666687011719,0.517883300781
27810840921,0.299072265625,0.447326660156,-0.6650390625,0.517822265625
27810857242,0.300964355469,0.447814941406,-0.665405273438,0.515808105469
27810879768,0.302673339844,0.448669433594,-0.665283203125,0.514282226562
27810900748,0.304077148438,0.449523925781,-0.664184570312,0.514099121094
27810917184,0.304443359375,0.451171875,-0.663269042969,0.513610839844
27810939696,0.304321289062,0.452392578125,-0.6630859375,0.512817382812
27810968306,0.304016113281,0.452758789062,-0.66357421875,0.512084960938
27810977247,0.302612304688,0.452819824219,-0.663635253906,0.512756347656
27810999712,0.300598144531,0.452819824219,-0.663635253906,0.513977050781
27811020790,0.298767089844,0.452575683594,-0.664123535156,0.514587402344
27811037248,0.297485351562,0.4521484375,-0.664672851562,0.515014648438
27811059711,0.295959472656,0.451599121094,-0.664733886719,0.516235351562
27811080905,0.29443359375,0.450988769531,-0.66455078125,0.517944335938
27811097202,0.293212890625,0.450256347656,-0.664489746094,0.519348144531
27811119729,0.292053222656,0.448547363281,-0.665344238281,0.520385742188
27811142257,0.291687011719,0.445129394531,-0.667053222656,0.521301269531
27811156551,0.291870117188,0.439758300781,-0.669982910156,0.522033691406
27811179750,0.292602539062,0.431823730469,-0.674560546875,0.522338867188
27811202307,0.293395996094,0.4228515625,-0.679931640625,0.522277832031
27811216531,0.293212890625,0.41357421875,-0.685424804688,0.522644042969
27811239707,0.290649414062,0.404235839844,-0.691589355469,0.523254394531
27811262216,0.285095214844,0.394836425781,-0.698974609375,0.523620605469
27811276583,0.277160644531,0.385131835938,-0.707458496094,0.523742675781
27811299702,0.267150878906,0.374938964844,-0.717041015625,0.523315429688
27811322314,0.255737304688,0.364440917969,-0.727661132812,0.521789550781
27811343285,0.242797851562,0.352600097656,-0.739685058594,0.519165039062
27811359724,0.229309082031,0.339904785156,-0.752319335938,0.515686035156
27811382498,0.215393066406,0.326416015625,-0.76513671875,0.511474609375
27811403257,0.201293945312,0.312622070312,-0.777587890625,0.507019042969
27811421148,0.186401367188,0.298583984375,-0.789489746094,0.502807617188
27811450217,0.169799804688,0.285400390625,-0.800231933594,0.499267578125
27811463260,0.151672363281,0.273071289062,-0.809692382812,0.496765136719
27811479716,0.132873535156,0.261108398438,-0.818359375,0.494384765625
27811502263,0.114074707031,0.248107910156,-0.826904296875,0.491638183594
27811523299,0.09619140625,0.233459472656,-0.835083007812,0.488830566406
27811539720,0.0792846679688,0.217468261719,-0.843078613281,0.485473632812
27811562248,0.0643920898438,0.2001953125,-0.85107421875,0.481140136719
27811583400,0.0517578125,0.182983398438,-0.85791015625,0.477355957031
27811600199,0.0390625,0.166076660156,-0.86328125,0.475036621094
27811622284,0.0269775390625,0.152465820312,-0.867248535156,0.473266601562
27811644019,0.015869140625,0.142578125,-0.8701171875,0.471496582031
27811659815,0.0068359375,0.135864257812,-0.872253417969,0.469787597656
27811682232,-0.000244140625,0.130920410156,-0.873901367188,0.468139648438
27811703393,-0.00634765625,0.128112792969,-0.875305175781,0.46630859375
27811719623,-0.0113525390625,0.127746582031,-0.876342773438,0.46435546875
27811748406,-0.0157470703125,0.128723144531,-0.877380371094,0.461975097656
27811763379,-0.0195922851562,0.130920410156,-0.878295898438,0.45947265625
27811779717,-0.0228271484375,0.134338378906,-0.878601074219,0.457702636719
27811802199,-0.0252685546875,0.138488769531,-0.878540039062,0.45654296875
27811823393,-0.0274047851562,0.142639160156,-0.878234863281,0.455688476562
27811839711,-0.0294189453125,0.146240234375,-0.877868652344,0.455078125
27811862197,-0.031494140625,0.149719238281,-0.87744140625,0.454650878906
27811883654,-0.033203125,0.152648925781,-0.877136230469,0.454162597656
27811899663,-0.0313720703125,0.154113769531,-0.876586914062,0.454833984375
27811922184,-0.0267333984375,0.1533203125,-0.876403808594,0.455810546875
27811943040,-0.0201416015625,0.152160644531,-0.877258300781,0.454895019531
27811959034,-0.018310546875,0.152282714844,-0.877075195312,0.455200195312
27811982219,-0.0179443359375,0.154479980469,-0.875427246094,0.457702636719
27812003260,-0.0201416015625,0.158996582031,-0.87353515625,0.459655761719
27812018998,-0.02392578125,0.166381835938,-0.871398925781,0.460876464844
27812042636,-0.0287475585938,0.175109863281,-0.869262695312,0.46142578125
27812064702,-0.0333862304688,0.183227539062,-0.867370605469,0.461547851562
27812079052,-0.0364990234375,0.189392089844,-0.865661621094,0.461975097656
27812102175,-0.0393676757812,0.195617675781,-0.863952636719,0.46240234375
27812124723,-0.0418701171875,0.201782226562,-0.861999511719,0.463134765625
27812139043,-0.0439453125,0.206604003906,-0.860107421875,0.464294433594
27812162201,-0.0458984375,0.210083007812,-0.858520507812,0.465576171875
27812184726,-0.0476684570312,0.21240234375,-0.857238769531,0.466674804688
27812199062,-0.0491333007812,0.213134765625,-0.8564453125,0.467651367188
27812222226,-0.05029296875,0.213623046875,-0.855773925781,0.468505859375
27812244711,-0.0513305664062,0.213684082031,-0.855224609375,0.469360351562
27812259058,-0.0521850585938,0.213684082031,-0.854736328125,0.47021484375
27812282698,-0.0531005859375,0.213684082031,-0.854125976562,0.47119140625
27812304710,-0.0541381835938,0.2138671875,-0.853576660156,0.471923828125
27812319021,-0.05517578125,0.214172363281,-0.85302734375,0.472717285156
27812342210,-0.0560302734375,0.214477539062,-0.8525390625,0.473327636719
27812364700,-0.0567016601562,0.215148925781,-0.85205078125,0.473815917969
27812379070,-0.0570678710938,0.21533203125,-0.851806640625,0.474182128906
27812386898,-0.0573120117188,0.215637207031,-0.851440429688,0.474670410156
27812407602,-0.0577392578125,0.216064453125,-0.851135253906,0.474975585938
27812430198,-0.0584716796875,0.216613769531,-0.850769042969,0.475219726562
27812446554,-0.0593872070312,0.217346191406,-0.850402832031,0.475524902344
27812467680,-0.0602416992188,0.218078613281,-0.849975585938,0.475769042969
27812490211,-0.0609130859375,0.218383789062,-0.849792480469,0.475891113281
27812506571,-0.0614013671875,0.218566894531,-0.849609375,0.476135253906
27812527707,-0.0615844726562,0.21826171875,-0.849426269531,0.476501464844
27812553014,-0.0614624023438,0.217651367188,-0.849365234375,0.476867675781
