28306926962,-0.0870971679688,0.240905761719,-0.947326660156,0.192443847656
28306949802,-0.0872802734375,0.242492675781,-0.946716308594,0.193298339844
28306973123,-0.0906982421875,0.243469238281,-0.946105957031,0.193420410156
28306988068,-0.0853271484375,0.247192382812,-0.945190429688,0.195556640625
28307009492,-0.0804443359375,0.250427246094,-0.944396972656,0.197387695312
28307024480,-0.0751953125,0.253967285156,-0.943481445312,0.199401855469
28307048124,-0.0781860351562,0.252685546875,-0.943664550781,0.199035644531
28307062989,-0.0845947265625,0.248840332031,-0.944458007812,0.197387695312
28307084712,-0.08251953125,0.249877929688,-0.944213867188,0.198059082031
28307130675,-0.0763549804688,0.254028320312,-0.943237304688,0.199951171875
28307139577,-0.0781860351562,0.254272460938,-0.943115234375,0.199523925781
28307147024,-0.084716796875,0.251220703125,-0.943725585938,0.197692871094
28307167566,-0.0807495117188,0.252197265625,-0.943725585938,0.1982421875
28307183304,-0.0796508789062,0.252563476562,-0.943725585938,0.198181152344
28307221498,-0.0797119140625,0.252624511719,-0.943725585938,0.198120117188
28307266892,-0.0797729492188,0.252197265625,-0.94384765625,0.198181152344
28307267613,-0.0798950195312,0.251831054688,-0.943908691406,0.198181152344
28307269295,-0.0800170898438,0.251403808594,-0.943908691406,0.198608398438
28307287371,-0.0784912109375,0.251892089844,-0.94384765625,0.199035644531
28307303084,-0.0736694335938,0.254028320312,-0.943359375,0.200439453125
28307324350,-0.067626953125,0.257385253906,-0.942565917969,0.202087402344
28307346724,-0.068115234375,0.257385253906,-0.942504882812,0.201965332031
28307363058,-0.0752563476562,0.253356933594,-0.943481445312,0.199951171875
28307384094,-0.07666015625,0.252014160156,-0.94384765625,0.199462890625
28307408083,-0.0707397460938,0.2548828125,-0.943176269531,0.201110839844
28307423070,-0.070556640625,0.254699707031,-0.943237304688,0.201171875
28307444141,-0.0780029296875,0.25048828125,-0.944213867188,0.199096679688
28307466722,-0.0842895507812,0.248168945312,-0.944641113281,0.197509765625
28307483069,-0.0833129882812,0.247314453125,-0.945007324219,0.197143554688
28307504275,-0.084228515625,0.246398925781,-0.945190429688,0.197143554688
28307526707,-0.0847778320312,0.245361328125,-0.945434570312,0.196899414062
28307543092,-0.0851440429688,0.244812011719,-0.945617675781,0.196594238281
28307564314,-0.0856323242188,0.244384765625,-0.945739746094,0.196411132812
28307586684,-0.0858764648438,0.243774414062,-0.945922851562,0.196166992188
28307604546,-0.0860595703125,0.243347167969,-0.946044921875,0.195983886719
28307624224,-0.086181640625,0.242858886719,-0.946228027344,0.195739746094
28307646704,-0.0863037109375,0.242309570312,-0.946350097656,0.195739746094
28307664539,-0.0864868164062,0.241577148438,-0.946472167969,0.19580078125
28307684390,-0.0867309570312,0.240661621094,-0.946716308594,0.19580078125
28307706774,-0.0869750976562,0.239807128906,-0.946899414062,0.195739746094
28307724573,-0.0869140625,0.2392578125,-0.947082519531,0.195678710938
28307744270,-0.0869140625,0.239196777344,-0.947082519531,0.195678710938
28307766740,-0.0869750976562,0.239379882812,-0.947021484375,0.195617675781
28307784511,-0.087158203125,0.239562988281,-0.947021484375,0.195434570312
28307804293,-0.087158203125,0.239562988281,-0.947021484375,0.195434570312
28307826746,-0.0872192382812,0.239562988281,-0.947021484375,0.195434570312
28307844586,-0.0872802734375,0.239562988281,-0.947021484375,0.195434570312
28307864095,-0.0872802734375,0.239562988281,-0.947021484375,0.195434570312
28307886584,-0.0875244140625,0.239379882812,-0.947082519531,0.195190429688
28307912107,-0.087646484375,0.239074707031,-0.947204589844,0.195068359375
28307924252,-0.0877075195312,0.23876953125,-0.947265625,0.194885253906
28307946711,-0.0877685546875,0.238464355469,-0.947387695312,0.194702148438
28307964585,-0.087158203125,0.237854003906,-0.94775390625,0.194091796875
28307984220,-0.0858764648438,0.2392578125,-0.947692871094,0.193115234375
28308006717,-0.0845336914062,0.242248535156,-0.947204589844,0.1923828125
28308030573,-0.083251953125,0.24560546875,-0.946533203125,0.192016601562
28308044136,-0.0816650390625,0.248657226562,-0.945861816406,0.192138671875
28308066766,-0.0799560546875,0.251525878906,-0.945129394531,0.192687988281
28308084546,-0.0782470703125,0.253967285156,-0.944396972656,0.193603515625
28308104240,-0.0765991210938,0.255859375,-0.94384765625,0.194580078125
28308126762,-0.0751342773438,0.2578125,-0.943298339844,0.1953125
28308144537,-0.0740966796875,0.259460449219,-0.942810058594,0.195678710938
28308165565,-0.0733642578125,0.260620117188,-0.942504882812,0.195922851562
28308186797,-0.0726928710938,0.260681152344,-0.942504882812,0.196044921875
28308204567,-0.0720825195312,0.259826660156,-0.942810058594,0.196044921875
28308233079,-0.0714721679688,0.258666992188,-0.943176269531,0.196044921875
28308248723,-0.0711059570312,0.257141113281,-0.943603515625,0.196228027344
28308263122,-0.0709228515625,0.255920410156,-0.943908691406,0.196350097656
28308286230,-0.07080078125,0.2548828125,-0.944152832031,0.196594238281
28308316266,-0.0706176757812,0.254211425781,-0.944274902344,0.19677734375
28308323077,-0.0703735351562,0.253479003906,-0.944458007812,0.196960449219
28308346245,-0.0700073242188,0.25244140625,-0.944763183594,0.197021484375
28308368673,-0.0695190429688,0.251403808594,-0.945129394531,0.196838378906
28308383062,-0.069091796875,0.250915527344,-0.9453125,0.196533203125
28308413692,-0.0686645507812,0.250732421875,-0.945434570312,0.1962890625
28308429349,-0.0682983398438,0.250427246094,-0.945617675781,0.196166992188
28308443044,-0.0678100585938,0.25,-0.945739746094,0.196166992188
28308466249,-0.0673828125,0.249450683594,-0.945922851562,0.196166992188
28308488725,-0.0669555664062,0.248962402344,-0.946105957031,0.196166992188
28308503032,-0.06640625,0.24853515625,-0.946228027344,0.196228027344
28308526191,-0.0658569335938,0.248291015625,-0.9462890625,0.196472167969
28308548719,-0.0651245117188,0.248413085938,-0.946166992188,0.197021484375
28308563071,-0.0643310546875,0.24853515625,-0.946044921875,0.19775390625
28308593687,-0.0633544921875,0.248596191406,-0.945922851562,0.19873046875
28308608489,-0.0620727539062,0.248779296875,-0.945739746094,0.199645996094
28308629702,-0.060546875,0.249328613281,-0.945434570312,0.200744628906
28308646201,-0.0587768554688,0.250061035156,-0.945129394531,0.202026367188
28308668748,-0.0567016601562,0.2509765625,-0.944702148438,0.203430175781
28308689877,-0.054443359375,0.252075195312,-0.944213867188,0.204956054688
28308706202,-0.0513305664062,0.252746582031,-0.94384765625,0.206481933594
28308728702,-0.047607421875,0.252502441406,-0.943725585938,0.208190917969
28308749900,-0.04296875,0.251342773438,-0.943908691406,0.2099609375
28308766188,-0.0381469726562,0.250732421875,-0.943725585938,0.212341308594
28308788669,-0.0332641601562,0.251647949219,-0.943115234375,0.21484375
28308809970,-0.0283813476562,0.25390625,-0.942077636719,0.217346191406
28308825592,-0.0234985351562,0.254699707031,-0.941528320312,0.219360351562
28308848716,-0.017578125,0.254028320312,-0.94140625,0.22119140625
28308869748,-0.0118408203125,0.254028320312,-0.94091796875,0.223571777344
28308893693,-0.005615234375,0.253479003906,-0.940490722656,0.226318359375
28308908771,0.00146484375,0.249572753906,-0.941101074219,0.228088378906
28308929804,0.0087890625,0.24609375,-0.941589355469,0.229797363281
28308945616,0.0150146484375,0.244689941406,-0.94140625,0.231628417969
28308968696,0.0219116210938,0.244812011719,-0.940734863281,0.233703613281
28308989929,0.0284423828125,0.246154785156,-0.939697265625,0.235778808594
28309005508,0.0350341796875,0.247680664062,-0.938598632812,0.237731933594
28309028663,0.0420532226562,0.248657226562,-0.9375,0.239868164062
28309051227,0.0494384765625,0.248901367188,-0.936462402344,0.242248535156
28309065554,0.0574340820312,0.2490234375,-0.935302734375,0.244689941406
28309089359,0.0657348632812,0.248291015625,-0.934387207031,0.246887207031
28309118699,0.07470703125,0.247497558594,-0.933288574219,0.249267578125
28309125578,0.0840454101562,0.246337890625,-0.932189941406,0.251647949219
28309148684,0.0935668945312,0.245544433594,-0.930786132812,0.254211425781
28309171254,0.103271484375,0.245788574219,-0.928955078125,0.2568359375
28309192374,0.113037109375,0.246826171875,-0.9267578125,0.259704589844
28309208723,0.122985839844,0.248291015625,-0.924133300781,0.263000488281
28309231157,0.133117675781,0.249694824219,-0.921447753906,0.266357421875
28309252506,0.143676757812,0.251037597656,-0.918518066406,0.269592285156
28309268933,0.154357910156,0.252136230469,-0.915588378906,0.272583007812
28309298687,0.1650390625,0.252746582031,-0.912719726562,0.275512695312
28309312350,0.175537109375,0.253051757812,-0.90966796875,0.278747558594
28309328689,0.185852050781,0.253479003906,-0.906311035156,0.282409667969
28309351693,0.196228027344,0.254089355469,-0.902709960938,0.286499023438
28309373683,0.206176757812,0.255065917969,-0.89892578125,0.29052734375
28309388690,0.2158203125,0.256042480469,-0.894958496094,0.294738769531
28309426922,0.225158691406,0.256652832031,-0.891052246094,0.299072265625
28309432355,0.234252929688,0.2568359375,-0.88720703125,0.303344726562
28309449253,0.243225097656,0.256958007812,-0.88330078125,0.307495117188
28309471158,0.25244140625,0.256774902344,-0.87939453125,0.311462402344
28309492353,0.261596679688,0.256530761719,-0.875366210938,0.3154296875
28309508672,0.270568847656,0.256530761719,-0.871215820312,0.319396972656
28309531201,0.279113769531,0.257080078125,-0.866882324219,0.3232421875
28309554146,0.287414550781,0.257690429688,-0.862670898438,0.326721191406
28309576220,0.295715332031,0.25830078125,-0.8583984375,0.330078125
28309598677,0.303649902344,0.25927734375,-0.854064941406,0.333312988281
28309612298,0.311401367188,0.260314941406,-0.849792480469,0.336303710938
28309628648,0.318908691406,0.26123046875,-0.845703125,0.338806152344
28309651200,0.325744628906,0.26171875,-0.841979980469,0.341247558594
28309672255,0.331848144531,0.262268066406,-0.838317871094,0.343933105469
28309688703,0.337341308594,0.263366699219,-0.834655761719,0.346740722656
28309711210,0.342529296875,0.265197753906,-0.830871582031,0.349304199219
28309732387,0.348022460938,0.266174316406,-0.827209472656,0.351806640625
28309756126,0.354064941406,0.26611328125,-0.823547363281,0.354309082031
28309771220,0.360473632812,0.265319824219,-0.820129394531,0.3564453125
28309792218,0.366882324219,0.263732910156,-0.816955566406,0.358276367188
28309808087,0.373474121094,0.261779785156,-0.813781738281,0.360168457031
28309831214,0.380615234375,0.259582519531,-0.810424804688,0.361938476562
28309852377,0.387817382812,0.257385253906,-0.806884765625,0.363647460938
28309868065,0.395202636719,0.255249023438,-0.80322265625,0.365356445312
28309891218,0.402526855469,0.25341796875,-0.799377441406,0.367004394531
28309912383,0.410095214844,0.251281738281,-0.795532226562,0.368530273438
28309928753,0.417602539062,0.2490234375,-0.791625976562,0.370056152344
28309951658,0.4248046875,0.247375488281,-0.78759765625,0.371459960938
28309973649,0.431640625,0.246032714844,-0.78369140625,0.372741699219
28309988001,0.438110351562,0.244262695312,-0.780029296875,0.3740234375
28310012633,0.4443359375,0.242553710938,-0.776550292969,0.375061035156
28310033641,0.449768066406,0.241149902344,-0.773498535156,0.375732421875
28310056256,0.454162597656,0.240173339844,-0.770812988281,0.376708984375
28310078698,0.45751953125,0.239624023438,-0.768188476562,0.378295898438
28310093511,0.460815429688,0.23876953125,-0.765930175781,0.379455566406
28310108000,0.464416503906,0.237365722656,-0.763977050781,0.379821777344
28310131158,0.468078613281,0.2353515625,-0.76220703125,0.380249023438
28310154180,0.471374511719,0.233703613281,-0.760314941406,0.380981445312
28310168041,0.474609375,0.232788085938,-0.758239746094,0.381530761719
28310197294,0.477966308594,0.232116699219,-0.756286621094,0.381713867188
28310213733,0.481262207031,0.231079101562,-0.75439453125,0.381896972656
28310234781,0.484558105469,0.230285644531,-0.752502441406,0.381958007812
28310251157,0.487731933594,0.2294921875,-0.750732421875,0.3818359375
28310273637,0.490966796875,0.228942871094,-0.748840332031,0.381713867188
28310294749,0.493713378906,0.228515625,-0.746948242188,0.382141113281
28310311457,0.49560546875,0.228881835938,-0.745056152344,0.383117675781
28310333707,0.4970703125,0.229370117188,-0.743408203125,0.384155273438
28310348006,0.498718261719,0.229614257812,-0.741882324219,0.384948730469
28310371131,0.500671386719,0.229248046875,-0.740356445312,0.385559082031
28310393671,0.502502441406,0.228759765625,-0.738586425781,0.386840820312
28310414862,0.50390625,0.228881835938,-0.736877441406,0.38818359375
28310431133,0.505249023438,0.228820800781,-0.7353515625,0.389404296875
28310454079,0.506408691406,0.228515625,-0.733947753906,0.390625
28310474679,0.507629394531,0.228149414062,-0.732666015625,0.391723632812
28310491235,0.508972167969,0.228149414062,-0.731323242188,0.392456054688
28310513705,0.510314941406,0.228088378906,-0.730224609375,0.392883300781
28310534818,0.51171875,0.227783203125,-0.729064941406,0.393310546875
28310558703,0.513122558594,0.227600097656,-0.727966308594,0.393676757812
28310573697,0.514343261719,0.227478027344,-0.72705078125,0.393859863281
28310594902,0.515319824219,0.227294921875,-0.726379394531,0.393920898438
28310611163,0.515991210938,0.227416992188,-0.725830078125,0.393981933594
28310633667,0.516540527344,0.227661132812,-0.725280761719,0.394104003906
28310654787,0.516845703125,0.227661132812,-0.724853515625,0.394409179688
28310671192,0.517028808594,0.227783203125,-0.724670410156,0.394470214844
28310693635,0.517333984375,0.227600097656,-0.724365234375,0.394714355469
28310714764,0.517333984375,0.228271484375,-0.723754882812,0.395446777344
28310738656,0.516906738281,0.229125976562,-0.723266601562,0.396423339844
28310754098,0.516296386719,0.229797363281,-0.722900390625,0.3974609375
28310782286,0.515258789062,0.230529785156,-0.722778320312,0.398620605469
28310791159,0.514526367188,0.231506347656,-0.722473144531,0.399597167969
28310813678,0.514221191406,0.232299804688,-0.722045898438,0.400329589844
28310834877,0.514038085938,0.23291015625,-0.721435546875,0.401306152344
28310851138,0.513793945312,0.233520507812,-0.720886230469,0.402221679688
28310879820,0.513610839844,0.234130859375,-0.720336914062,0.403076171875
28310894745,0.513427734375,0.234375,-0.719909667969,0.403930664062
28310911255,0.513305664062,0.234436035156,-0.719604492188,0.404602050781
28310933635,0.513244628906,0.234375,-0.719299316406,0.405212402344
28310956200,0.513122558594,0.234680175781,-0.718994140625,0.405822753906
28310971171,0.512939453125,0.234802246094,-0.71875,0.406372070312
28310993706,0.512878417969,0.23486328125,-0.718688964844,0.406494140625
28311016176,0.512878417969,0.234741210938,-0.718566894531,0.406799316406
28311031168,0.512451171875,0.235229492188,-0.718322753906,0.407470703125
28311061168,0.511352539062,0.236267089844,-0.718200683594,0.408508300781
28311076173,0.509704589844,0.237121582031,-0.71826171875,0.409912109375
28311090522,0.5078125,0.238037109375,-0.718322753906,0.41162109375
28311113635,0.505737304688,0.238830566406,-0.718322753906,0.413757324219
28311136168,0.503601074219,0.239868164062,-0.718139648438,0.415954589844
28311150526,0.501525878906,0.240600585938,-0.718078613281,0.418273925781
28311173670,0.499572753906,0.241271972656,-0.717956542969,0.42041015625
28311179116,0.497802734375,0.242126464844,-0.717712402344,0.42236328125
28311201805,0.496398925781,0.242919921875,-0.717468261719,0.424011230469
28311217997,0.495483398438,0.243408203125,-0.717224121094,0.425170898438
28311239176,0.495056152344,0.243713378906,-0.716979980469,0.425964355469
28311261680,0.494995117188,0.244262695312,-0.716613769531,0.426391601562
28311278020,0.494934082031,0.244873046875,-0.716125488281,0.426818847656
28311299151,0.49462890625,0.245422363281,-0.7158203125,0.427429199219
28311321648,0.494384765625,0.245300292969,-0.715576171875,0.42822265625
28311338042,0.493957519531,0.245178222656,-0.715148925781,0.429382324219
28311366667,0.493469238281,0.244995117188,-0.71484375,0.430603027344
28311389796,0.493225097656,0.244445800781,-0.714599609375,0.431640625
28311405519,0.492736816406,0.244140625,-0.714477539062,0.432495117188
28311419203,0.492431640625,0.244018554688,-0.714538574219,0.432800292969
28311441674,0.492431640625,0.243896484375,-0.714721679688,0.4326171875
28311465492,0.4921875,0.243957519531,-0.714965820312,0.432434082031
28311486615,0.49169921875,0.244262695312,-0.715393066406,0.43212890625
28311501639,0.491271972656,0.244873046875,-0.715759277344,0.431640625
28311518052,0.490783691406,0.245300292969,-0.716064453125,0.431457519531
28311541981,0.489685058594,0.246215820312,-0.71630859375,0.431823730469
28311561749,0.488891601562,0.247009277344,-0.716247558594,0.432373046875
28311577997,0.488037109375,0.247680664062,-0.715942382812,0.433471679688
28311599200,0.487121582031,0.248291015625,-0.715759277344,0.434387207031
28311621640,0.486572265625,0.24853515625,-0.715576171875,0.435180664062
28311644225,0.486572265625,0.248840332031,-0.715270996094,0.435546875
28311659115,0.486206054688,0.249267578125,-0.715026855469,0.436096191406
28311689785,0.485656738281,0.249755859375,-0.715209960938,0.436157226562
28311698022,0.485046386719,0.250244140625,-0.715698242188,0.435668945312
28311719174,0.484802246094,0.250671386719,-0.71630859375,0.434692382812
28311742978,0.484497070312,0.251220703125,-0.716857910156,0.433837890625
28311758029,0.483825683594,0.251831054688,-0.717590332031,0.432983398438
28311779252,0.4833984375,0.252014160156,-0.718444824219,0.432006835938
28311801484,0.482666015625,0.252075195312,-0.7197265625,0.430725097656
28311818652,0.482299804688,0.25146484375,-0.72119140625,0.428955078125
28311839152,0.481750488281,0.250671386719,-0.723022460938,0.426940917969
28311861493,0.480773925781,0.250305175781,-0.725036621094,0.424865722656
28311879465,0.478637695312,0.250122070312,-0.727661132812,0.4228515625
28311899048,0.475341796875,0.250183105469,-0.731079101562,0.420654296875
28311921673,0.471984863281,0.250061035156,-0.734802246094,0.418029785156
28311946967,0.46826171875,0.249877929688,-0.738891601562,0.4150390625
28311966701,0.464233398438,0.249267578125,-0.743286132812,0.412170410156
28311981619,0.459350585938,0.248413085938,-0.747924804688,0.409729003906
28311999686,0.453552246094,0.248107910156,-0.752868652344,0.407348632812
28312022629,0.44775390625,0.247741699219,-0.757873535156,0.404602050781
28312044439,0.442565917969,0.246520996094,-0.762756347656,0.401916503906
28312059483,0.436889648438,0.245849609375,-0.767395019531,0.399719238281
28312079082,0.430419921875,0.245849609375,-0.772216796875,0.397399902344
28312101570,0.423706054688,0.245849609375,-0.777404785156,0.39453125
28312125506,0.417053222656,0.245361328125,-0.782653808594,0.391479492188
28312146663,0.410705566406,0.244689941406,-0.787719726562,0.388488769531
28312169005,0.404052734375,0.244323730469,-0.792663574219,0.385559082031
28312179466,0.396667480469,0.244506835938,-0.797729492188,0.382751464844
28312199135,0.388610839844,0.245239257812,-0.802917480469,0.379699707031
28312223043,0.380737304688,0.24560546875,-0.808166503906,0.376281738281
28312246983,0.373107910156,0.245300292969,-0.813354492188,0.372924804688
28312259144,0.365417480469,0.244812011719,-0.818420410156,0.369750976562
28312281746,0.357666015625,0.244873046875,-0.8232421875,0.366638183594
28312299917,0.349975585938,0.245422363281,-0.827819824219,0.363220214844
28312320472,0.34228515625,0.245971679688,-0.832336425781,0.359924316406
28312341550,0.334594726562,0.246704101562,-0.836669921875,0.356628417969
28312359487,0.327209472656,0.247741699219,-0.840698242188,0.353210449219
28312379181,0.320007324219,0.248840332031,-0.844604492188,0.349731445312
28312401577,0.312133789062,0.250366210938,-0.848510742188,0.346313476562
28312426971,0.303466796875,0.25244140625,-0.8525390625,0.342651367188
28312439040,0.29443359375,0.254150390625,-0.856811523438,0.338439941406
28312478557,0.285949707031,0.2548828125,-0.861267089844,0.333923339844
28312480988,0.277099609375,0.25537109375,-0.86572265625,0.329467773438
28312501957,0.267028808594,0.256591796875,-0.870300292969,0.324645996094
28312524456,0.256469726562,0.257507324219,-0.875122070312,0.319580078125
28312539430,0.245971679688,0.257629394531,-0.8798828125,0.314514160156
28312560456,0.235229492188,0.257507324219,-0.884704589844,0.309204101562
28312581673,0.223449707031,0.257873535156,-0.8896484375,0.303527832031
28312599513,0.211303710938,0.258178710938,-0.894592285156,0.29736328125
28312620502,0.199951171875,0.25732421875,-0.899536132812,0.291015625
28312641635,0.189270019531,0.255798339844,-0.904174804688,0.284973144531
28312659416,0.178161621094,0.2548828125,-0.908569335938,0.279052734375
28312680458,0.166198730469,0.255004882812,-0.91259765625,0.273071289062
28312704477,0.154174804688,0.255187988281,-0.916320800781,0.267272949219
28312719481,0.142822265625,0.25439453125,-0.919982910156,0.26171875
28312740536,0.132202148438,0.252990722656,-0.923400878906,0.256774902344
28312761613,0.122192382812,0.251403808594,-0.926391601562,0.25244140625
28312779458,0.112548828125,0.250244140625,-0.928894042969,0.248779296875
28312799801,0.103088378906,0.24951171875,-0.931030273438,0.24560546875
28312823651,0.0942993164062,0.248229980469,-0.932983398438,0.243041992188
28312838617,0.0872802734375,0.243835449219,-0.934936523438,0.242553710938
28312861169,0.0802001953125,0.239440917969,-0.93701171875,0.241455078125
28312882328,0.072265625,0.23583984375,-0.939453125,0.237915039062
28312898667,0.065185546875,0.235595703125,-0.940612792969,0.235534667969
28312921073,0.0584716796875,0.236999511719,-0.940673828125,0.235656738281
28312942297,0.0523681640625,0.237487792969,-0.940734863281,0.236389160156
28312958666,0.046875,0.236389160156,-0.941284179688,0.236633300781
28312981144,0.041748046875,0.234191894531,-0.942077636719,0.236450195312
28312995423,0.0364379882812,0.232238769531,-0.942810058594,0.236328125
28313019071,0.031005859375,0.230651855469,-0.943359375,0.236511230469
28313041146,0.0252685546875,0.228698730469,-0.944091796875,0.236145019531
28313062330,0.0196533203125,0.226806640625,-0.944885253906,0.2353515625
28313078647,0.0137939453125,0.225524902344,-0.945556640625,0.234436035156
28313101113,0.007568359375,0.224304199219,-0.946166992188,0.233337402344
28313122385,0.0042724609375,0.220581054688,-0.947387695312,0.231994628906
28313138695,-0.0001220703125,0.218933105469,-0.948059082031,0.230834960938
28313161103,-0.00323486328125,0.219665527344,-0.948120117188,0.229919433594
28313182241,-0.005615234375,0.2216796875,-0.94775390625,0.2294921875
28313206158,-0.007568359375,0.223266601562,-0.947448730469,0.229187011719
28313221208,-0.0089111328125,0.224426269531,-0.947326660156,0.228454589844
28313235478,-0.0101318359375,0.225219726562,-0.947265625,0.227844238281
28313258642,-0.0112915039062,0.226013183594,-0.947143554688,0.2275390625
28313281165,-0.0122680664062,0.226806640625,-0.946899414062,0.227600097656
28313295457,-0.0133666992188,0.226989746094,-0.946838378906,0.227600097656
28313318633,-0.0147094726562,0.2265625,-0.946960449219,0.227355957031
28313341116,-0.0162353515625,0.22607421875,-0.947143554688,0.227172851562
28313362346,-0.0181274414062,0.226013183594,-0.947143554688,0.226928710938
28313378647,-0.0206909179688,0.22607421875,-0.947143554688,0.226806640625
