27720678181,-0.0875854492188,0.0518188476562,-0.846801757812,0.522155761719
27720699429,-0.0875244140625,0.0518188476562,-0.846801757812,0.522155761719
27720723003,-0.082763671875,0.0520629882812,-0.847045898438,0.522521972656
27720738021,-0.0836181640625,0.0516357421875,-0.847045898438,0.522399902344
27720759310,-0.083984375,0.0516967773438,-0.846984863281,0.522399902344
27720782055,-0.0830078125,0.05322265625,-0.846923828125,0.522521972656
27720796947,-0.0820922851562,0.0538330078125,-0.846862792969,0.522644042969
27720820644,-0.085693359375,0.0485229492188,-0.84716796875,0.522094726562
27720874622,-0.086669921875,0.0477294921875,-0.847229003906,0.52197265625
27720875337,-0.08349609375,0.0526733398438,-0.846984863281,0.522399902344
27720882804,-0.0824584960938,0.0535888671875,-0.846923828125,0.522521972656
27720902614,-0.0850830078125,0.0491943359375,-0.847229003906,0.522094726562
27720926357,-0.0862426757812,0.048095703125,-0.847106933594,0.522216796875
27720940684,-0.08544921875,0.0484008789062,-0.847229003906,0.522094726562
27720984309,-0.0853881835938,0.0487060546875,-0.84716796875,0.522155761719
27720992865,-0.0853271484375,0.0488891601562,-0.84716796875,0.522155761719
27721003583,-0.0853271484375,0.0492553710938,-0.847106933594,0.522277832031
27721022454,-0.0888671875,0.0491943359375,-0.8466796875,0.522338867188
27721038096,-0.0860595703125,0.0554809570312,-0.846130371094,0.523132324219
27721068804,-0.0838623046875,0.061279296875,-0.845520019531,0.523742675781
27721083566,-0.0791015625,0.068115234375,-0.844970703125,0.524597167969
27721106294,-0.078857421875,0.0679321289062,-0.844909667969,0.524719238281
27721136267,-0.083984375,0.0628051757812,-0.84521484375,0.524108886719
27721144388,-0.0847778320312,0.0646362304688,-0.844970703125,0.524108886719
27721166246,-0.0797119140625,0.071044921875,-0.844482421875,0.524841308594
27721188793,-0.07958984375,0.0706787109375,-0.844543457031,0.524841308594
27721203785,-0.0845947265625,0.064453125,-0.845092773438,0.52392578125
27721226205,-0.0810546875,0.0637817382812,-0.845458984375,0.523986816406
27721248742,-0.0802612304688,0.0636596679688,-0.845703125,0.523742675781
27721263104,-0.080322265625,0.0631713867188,-0.845825195312,0.523620605469
27721286232,-0.0802612304688,0.0625,-0.846008300781,0.5234375
27721308779,-0.0799560546875,0.0617065429688,-0.84619140625,0.523254394531
27721337323,-0.0797729492188,0.0611572265625,-0.846374511719,0.523071289062
27721346247,-0.0795288085938,0.0606079101562,-0.846557617188,0.522888183594
27721368720,-0.0794677734375,0.0602416992188,-0.8466796875,0.522644042969
27721383119,-0.079345703125,0.0598754882812,-0.846862792969,0.522521972656
27721414227,-0.0792846679688,0.0594482421875,-0.847045898438,0.522277832031
27721436268,-0.0792236328125,0.0592651367188,-0.847229003906,0.521911621094
27721443160,-0.0789184570312,0.05908203125,-0.847473144531,0.521606445312
27721466263,-0.0778198242188,0.0582885742188,-0.84765625,0.521545410156
27721489228,-0.076416015625,0.0578002929688,-0.847900390625,0.521423339844
27721511268,-0.0751342773438,0.05810546875,-0.84814453125,0.521179199219
27721526270,-0.0739135742188,0.0591430664062,-0.848266601562,0.521057128906
27721548724,-0.07275390625,0.06103515625,-0.848388671875,0.520751953125
27721569934,-0.0719604492188,0.0634155273438,-0.848510742188,0.520446777344
27721586242,-0.071533203125,0.066162109375,-0.848510742188,0.520141601562
27721616641,-0.0708618164062,0.0684814453125,-0.8486328125,0.519775390625
27721629770,-0.0704345703125,0.0709228515625,-0.848754882812,0.519226074219
27721646219,-0.0694580078125,0.0743408203125,-0.848815917969,0.518798828125
27721668757,-0.0671997070312,0.0763549804688,-0.848571777344,0.519165039062
27721691267,-0.0648193359375,0.0799560546875,-0.848083496094,0.519714355469
27721712285,-0.0620727539062,0.0855712890625,-0.847595214844,0.520080566406
27721736204,-0.0589599609375,0.0924072265625,-0.846618652344,0.520812988281
27721757406,-0.0541381835938,0.0989990234375,-0.845520019531,0.521911621094
27721766252,-0.0474243164062,0.105285644531,-0.843994140625,0.523742675781
27721788847,-0.03857421875,0.110595703125,-0.84228515625,0.526123046875
27721819439,-0.028564453125,0.115844726562,-0.840393066406,0.528747558594
27721821092,-0.0148315429688,0.121520996094,-0.838012695312,0.53173828125
27721839293,-0.0008544921875,0.125610351562,-0.837463378906,0.531921386719
27721854251,0.0143432617188,0.130493164062,-0.836120605469,0.532592773438
27721876700,0.030029296875,0.137512207031,-0.833923339844,0.53369140625
27721907154,0.0458984375,0.145385742188,-0.831176757812,0.53466796875
27721917070,0.0620727539062,0.153991699219,-0.828308105469,0.535095214844
27721936720,0.0789794921875,0.162658691406,-0.825866699219,0.534118652344
27721967393,0.0970458984375,0.170715332031,-0.823608398438,0.532104492188
27721975545,0.117004394531,0.175476074219,-0.820251464844,0.531677246094
27721996776,0.136657714844,0.179870605469,-0.815795898438,0.532348632812
27722020614,0.155639648438,0.183349609375,-0.810852050781,0.533508300781
27722043095,0.173156738281,0.188049316406,-0.805053710938,0.535278320312
27722056792,0.189331054688,0.194213867188,-0.798645019531,0.537170410156
27722079254,0.204895019531,0.199584960938,-0.792175292969,0.5390625
27722095617,0.221435546875,0.202758789062,-0.785522460938,0.541076660156
27722116750,0.23779296875,0.205078125,-0.77880859375,0.543029785156
27722139251,0.252624511719,0.208801269531,-0.771789550781,0.544921875
27722155640,0.266357421875,0.213256835938,-0.763977050781,0.547607421875
27722176756,0.279235839844,0.219116210938,-0.755187988281,0.551086425781
27722199246,0.291137695312,0.226440429688,-0.745239257812,0.555480957031
27722215564,0.301635742188,0.234619140625,-0.734436035156,0.560852050781
27722236569,0.31103515625,0.244750976562,-0.722106933594,0.567321777344
27722259102,0.318542480469,0.255859375,-0.709594726562,0.573974609375
27722275618,0.322143554688,0.267517089844,-0.697998046875,0.580871582031
27722296801,0.324523925781,0.279602050781,-0.686767578125,0.587219238281
27722320555,0.325317382812,0.291809082031,-0.675354003906,0.593994140625
27722335568,0.324951171875,0.304504394531,-0.66357421875,0.601135253906
27722356694,0.322448730469,0.31884765625,-0.652038574219,0.607604980469
27722379313,0.320556640625,0.332092285156,-0.640808105469,0.613403320312
27722395569,0.317932128906,0.3447265625,-0.629150390625,0.619873046875
27722416732,0.312683105469,0.358703613281,-0.616516113281,0.627258300781
27722439174,0.30517578125,0.37353515625,-0.603881835938,0.634521484375
27722455572,0.29833984375,0.385681152344,-0.591918945312,0.641784667969
27722476745,0.29296875,0.395080566406,-0.581237792969,0.648193359375
27722499282,0.290649414062,0.40185546875,-0.569885253906,0.655151367188
27722521731,0.287841796875,0.41064453125,-0.557556152344,0.661499023438
27722536694,0.278991699219,0.422302246094,-0.543518066406,0.669616699219
27722559111,0.268798828125,0.433349609375,-0.526916503906,0.679931640625
27722577055,0.258117675781,0.444152832031,-0.511596679688,0.688720703125
27722596781,0.249145507812,0.453247070312,-0.497863769531,0.696105957031
27722619200,0.242919921875,0.460693359375,-0.486694335938,0.701293945312
27722637061,0.242126464844,0.465087890625,-0.47705078125,0.705261230469
27722656722,0.24169921875,0.471557617188,-0.466674804688,0.708068847656
27722679252,0.242370605469,0.476989746094,-0.458251953125,0.709716796875
27722698561,0.244689941406,0.480834960938,-0.450927734375,0.710998535156
27722716621,0.24755859375,0.48388671875,-0.443725585938,0.712463378906
27722740550,0.248107910156,0.4873046875,-0.437316894531,0.713928222656
27722757063,0.248413085938,0.489318847656,-0.432983398438,0.715026855469
27722776817,0.25,0.489501953125,-0.429077148438,0.716735839844
27722800562,0.249389648438,0.489562988281,-0.426025390625,0.71875
27722817036,0.247985839844,0.489379882812,-0.425231933594,0.719787597656
27722844228,0.246520996094,0.488708496094,-0.425964355469,0.720275878906
27722859305,0.245727539062,0.487243652344,-0.427062988281,0.720947265625
27722877084,0.245239257812,0.4853515625,-0.427673339844,0.722045898438
27722896742,0.244689941406,0.483703613281,-0.4287109375,0.72265625
27722919146,0.244689941406,0.482116699219,-0.429077148438,0.723510742188
27722937011,0.244812011719,0.480895996094,-0.428894042969,0.724426269531
27722956749,0.244506835938,0.479858398438,-0.429382324219,0.724975585938
27722974586,0.244934082031,0.478881835938,-0.4306640625,0.724670410156
27723001719,0.245788574219,0.477844238281,-0.431945800781,0.724304199219
27723016806,0.24609375,0.476928710938,-0.43310546875,0.72412109375
27723034563,0.245727539062,0.476135253906,-0.434753417969,0.723754882812
27723057013,0.246215820312,0.475036621094,-0.436767578125,0.723083496094
27723078107,0.245788574219,0.473327636719,-0.439697265625,0.722595214844
27723099256,0.243896484375,0.472229003906,-0.443176269531,0.721801757812
27723117027,0.243103027344,0.470703125,-0.44775390625,0.720275878906
27723136678,0.242797851562,0.468444824219,-0.452331542969,0.718994140625
27723159230,0.241455078125,0.465881347656,-0.45751953125,0.7177734375
27723177010,0.239501953125,0.463806152344,-0.463623046875,0.715881347656
27723204163,0.238708496094,0.461608886719,-0.470581054688,0.713012695312
27723219188,0.23876953125,0.459106445312,-0.478698730469,0.709228515625
27723236951,0.238037109375,0.45703125,-0.487426757812,0.704833984375
27723258050,0.236511230469,0.455322265625,-0.49658203125,0.700073242188
27723282058,0.235046386719,0.453247070312,-0.506164550781,0.695068359375
27723297037,0.2333984375,0.450561523438,-0.515563964844,0.6904296875
27723318097,0.230102539062,0.447998046875,-0.524536132812,0.686401367188
27723356233,0.225219726562,0.445861816406,-0.533996582031,0.68212890625
27723358536,0.219848632812,0.443176269531,-0.544372558594,0.677429199219
27723378045,0.214721679688,0.439514160156,-0.555358886719,0.672485351562
27723399271,0.210021972656,0.435119628906,-0.566467285156,0.667541503906
27723417034,0.205017089844,0.430725097656,-0.5771484375,0.662780761719
27723437313,0.199523925781,0.426574707031,-0.587829589844,0.657775878906
27723459785,0.193481445312,0.422729492188,-0.597595214844,0.653259277344
27723476251,0.187683105469,0.418273925781,-0.607238769531,0.648864746094
27723499639,0.18212890625,0.413269042969,-0.617248535156,0.644165039062
27723528686,0.175964355469,0.408142089844,-0.627197265625,0.639587402344
27723536245,0.1689453125,0.40380859375,-0.635864257812,0.635620117188
27723558702,0.161560058594,0.400268554688,-0.643981933594,0.631591796875
27723573165,0.154479980469,0.39697265625,-0.652526855469,0.626647949219
27723603733,0.147827148438,0.392761230469,-0.66162109375,0.621398925781
27723618690,0.141662597656,0.38671875,-0.67041015625,0.617126464844
27723633091,0.135437011719,0.380310058594,-0.678771972656,0.613403320312
27723656247,0.128540039062,0.373962402344,-0.687866210938,0.608642578125
27723678728,0.120849609375,0.3681640625,-0.696899414062,0.603454589844
27723699865,0.11328125,0.361694335938,-0.705139160156,0.599243164062
27723716252,0.104919433594,0.355407714844,-0.712158203125,0.596252441406
27723738705,0.0961303710938,0.350463867188,-0.718811035156,0.592651367188
27723759855,0.0874633789062,0.345581054688,-0.725830078125,0.588317871094
27723776223,0.0801391601562,0.338562011719,-0.733581542969,0.583740234375
27723798754,0.0740356445312,0.328674316406,-0.742248535156,0.579223632812
27723819866,0.0690307617188,0.316589355469,-0.751831054688,0.57421875
27723836235,0.0654907226562,0.302124023438,-0.762390136719,0.568542480469
27723858727,0.0631713867188,0.28515625,-0.773132324219,0.56298828125
27723881220,0.0609741210938,0.2666015625,-0.783325195312,0.558166503906
27723896246,0.0576171875,0.247863769531,-0.792724609375,0.553955078125
27723918737,0.0526733398438,0.229858398438,-0.801147460938,0.550109863281
27723939903,0.046630859375,0.212707519531,-0.808715820312,0.546447753906
27723962343,0.0404052734375,0.196105957031,-0.815795898438,0.542602539062
27723978725,0.0338745117188,0.180786132812,-0.822082519531,0.538818359375
27723999880,0.0261840820312,0.167358398438,-0.827453613281,0.535400390625
27724016189,0.0167846679688,0.157043457031,-0.831787109375,0.532165527344
27724038717,0.00640869140625,0.149108886719,-0.835327148438,0.529113769531
27724059957,-0.00384521484375,0.143005371094,-0.83837890625,0.526000976562
27724083845,-0.0133056640625,0.138061523438,-0.841125488281,0.522766113281
27724113041,-0.0213012695312,0.133850097656,-0.843444824219,0.519836425781
27724119772,-0.0280151367188,0.130065917969,-0.845153808594,0.517700195312
27724136268,-0.0337524414062,0.126953125,-0.846496582031,0.515930175781
27724158673,-0.0387573242188,0.124267578125,-0.847961425781,0.513793945312
27724181677,-0.0430297851562,0.122253417969,-0.849426269531,0.511596679688
27724196232,-0.046875,0.120910644531,-0.850463867188,0.509887695312
27724218703,-0.0505981445312,0.120666503906,-0.85107421875,0.508483886719
27724239884,-0.0538330078125,0.121154785156,-0.851684570312,0.507019042969
27724256221,-0.0565795898438,0.122131347656,-0.852172851562,0.505615234375
27724278700,-0.0591430664062,0.123596191406,-0.852478027344,0.504577636719
27724299971,-0.0614624023438,0.125732421875,-0.852416992188,0.503784179688
27724315620,-0.0637817382812,0.127563476562,-0.852355957031,0.503173828125
27724338713,-0.0657958984375,0.129089355469,-0.852233886719,0.502746582031
27724360085,-0.0674438476562,0.13037109375,-0.851989746094,0.502563476562
27724376251,-0.06640625,0.130493164062,-0.852294921875,0.502136230469
27724398704,-0.0657958984375,0.129455566406,-0.85302734375,0.501281738281
27724419856,-0.0648803710938,0.129272460938,-0.853210449219,0.501098632812
27724436225,-0.0640258789062,0.12939453125,-0.852966308594,0.501647949219
27724464971,-0.0631713867188,0.130126953125,-0.852416992188,0.50244140625
27724481214,-0.0621948242188,0.13134765625,-0.851745605469,0.50341796875
27724496171,-0.0614013671875,0.132995605469,-0.851135253906,0.504089355469
27724518726,-0.0609130859375,0.135131835938,-0.850463867188,0.504699707031
27724541177,-0.0604248046875,0.137573242188,-0.849792480469,0.505249023438
27724556244,-0.0599365234375,0.139953613281,-0.849182128906,0.505615234375
27724578708,-0.0598754882812,0.143005371094,-0.848571777344,0.505859375
27724601157,-0.0594482421875,0.144592285156,-0.847961425781,0.506469726562
27724615566,-0.0590209960938,0.14599609375,-0.847229003906,0.507385253906
27724638715,-0.0591430664062,0.148071289062,-0.846130371094,0.508605957031
27724661189,-0.06005859375,0.150634765625,-0.8447265625,0.510070800781
27724682326,-0.0613403320312,0.153442382812,-0.84326171875,0.511474609375
27724698722,-0.062255859375,0.155822753906,-0.842163085938,0.512512207031
27724721215,-0.062744140625,0.1572265625,-0.841369628906,0.513305664062
27724742366,-0.0630493164062,0.158325195312,-0.840698242188,0.513977050781
27724758655,-0.0637817382812,0.159973144531,-0.840026855469,0.514526367188
27724781275,-0.0651245117188,0.162170410156,-0.839172363281,0.515014648438
27724795545,-0.06640625,0.164306640625,-0.838500976562,0.515319824219
27724818707,-0.067138671875,0.165710449219,-0.838012695312,0.515502929688
27724841212,-0.0674438476562,0.166687011719,-0.837768554688,0.515563964844
27724855565,-0.0677490234375,0.167785644531,-0.837463378906,0.515625
27724878700,-0.068359375,0.169067382812,-0.837097167969,0.515808105469
27724901158,-0.0689697265625,0.170227050781,-0.836669921875,0.516052246094
27724915592,-0.0695190429688,0.171081542969,-0.836303710938,0.516296386719
27724938703,-0.0699462890625,0.171691894531,-0.8359375,0.5166015625
27724961195,-0.0703735351562,0.172302246094,-0.83544921875,0.51708984375
27724982343,-0.0709228515625,0.173034667969,-0.834899902344,0.517700195312
27724998686,-0.0717163085938,0.174133300781,-0.834106445312,0.518432617188
27725021195,-0.0726928710938,0.175964355469,-0.833068847656,0.519409179688
