29491813607,0,4,5,0,-1,-1,-2,0
29491813607,-3,-1,0,-2,-1,0,-1,-2
29491814481,-1,-4,-3,0,-1,-1,0,-1
29491814481,-1,-1,-3,-2,1,-2,0,0
29491815248,-1,-1,-1,-1,0,0,0,-1
29491815248,-1,-1,-4,-3,-3,-1,-1,-1
29491818120,-1,0,2,-1,-1,-1,-2,-1
29491818120,1,-1,-1,1,2,2,1,1
29491826332,0,1,-1,-2,-3,-1,1,-3
29491826332,1,-1,-3,0,1,-1,1,0
29491835389,-2,0,-2,-3,0,-1,0,0
29491835389,-1,2,4,-1,-4,-3,-2,0
29491840258,-5,-6,-5,1,2,0,0,0
29491840258,0,-1,1,0,0,0,-1,0
29491855306,0,7,7,1,-1,-3,-1,-2
29491855306,-2,-5,-7,-3,-2,-3,1,-1
29491864633,0,0,3,-1,-1,-1,-3,0
29491864633,1,0,-7,0,-1,-1,-1,0
29491886666,1,-1,5,2,0,1,-1,0
29491886666,1,3,3,-1,-2,-1,-2,-2
29491887367,-1,-3,-2,-2,0,-1,-2,-2
29491887367,0,1,-3,0,-2,-2,-1,0
29491900082,-2,-6,-7,-5,-1,-1,-1,-1
29491900082,-1,-2,-4,-2,-4,-2,-2,-1
29491941807,-1,-2,0,-2,-2,-1,-1,-3
29491941807,-3,0,3,1,2,0,0,-1
29491942573,2,-2,-4,1,1,-2,0,1
29491942573,-2,-2,-3,-2,-1,-2,-2,-1
29491946421,-4,-6,-11,-5,-3,-3,-1,-2
29491946421,3,10,18,4,0,2,2,2
29491947101,0,1,1,-1,0,0,-1,-2
29491947101,0,1,4,1,-2,-1,1,0
29491952432,-3,2,-1,0,0,0,-1,-1
29491952432,-3,-5,-9,-3,-2,-2,-3,-2
29491960124,0,-1,-3,-3,-3,-2,-3,-4
29491960124,-5,-4,2,-3,1,-2,-1,-1
29491975069,0,2,4,1,0,1,1,1
29491975069,1,-1,-7,-1,0,0,0,2
29491983221,0,1,1,-3,-3,0,-1,0
29491983221,-3,-4,-3,-5,-4,-4,-2,-3
29491990106,-2,0,-1,-1,3,0,-3,-1
29491990106,-3,-2,-3,-1,3,0,-3,-1
29492013944,-1,0,0,0,2,0,-1,1
29492013944,-2,-8,-8,-2,-1,-1,-2,-2
29492015420,3,7,12,4,1,1,0,2
29492015420,-1,0,1,-3,-4,-1,-1,-1
29492027562,-1,-1,-1,0,1,-1,1,0
29492027562,-1,0,-1,-1,1,0,0,0
29492036433,0,-7,-4,-1,0,-3,-1,-2
29492036433,-2,-1,-3,-3,-1,-1,-2,-1
29492051391,-2,1,2,4,1,1,1,-3
29492051391,2,1,-1,-1,0,-1,0,-2
29492052921,1,0,-2,-1,1,2,-1,0
29492052921,2,-1,-3,-3,-6,-3,0,-2
29492073771,-1,-1,-3,-1,1,0,-1,0
29492073771,1,4,0,2,-1,2,-1,-1
29492075435,-2,-7,-6,-2,-4,-2,0,0
29492075435,1,3,5,2,1,-1,0,0
29492087546,-3,-4,-6,-4,-3,-3,-2,0
29492087546,0,2,7,2,0,2,0,2
29492096433,3,5,-3,0,-1,-4,-3,-2
29492096433,1,0,1,0,2,1,1,0
29492111437,-2,-1,0,0,-1,0,-2,-1
29492111437,1,1,-2,0,1,-1,1,0
29492112923,-3,-3,0,-2,-2,-3,-2,0
29492112923,0,-5,-3,-2,1,-1,0,-1
29492133978,0,1,2,-1,0,-1,-1,0
29492133978,-4,-7,-8,-5,-1,-4,-5,-6
29492135383,0,2,0,0,-5,-3,-3,-3
29492135383,-1,-6,-9,0,-1,-2,-2,-4
29492147553,1,4,9,1,1,1,1,1
29492147553,-3,-2,0,1,-3,-3,-2,-2
29492156455,-3,-5,-4,-2,-3,-1,-1,-1
29492156455,-2,0,0,-2,-1,0,-1,0
29492171421,-3,-4,-5,-2,-3,1,-1,-3
29492171421,1,-1,-3,0,-2,-1,0,-1
29492172910,1,-1,0,1,4,2,3,2
29492172910,-2,-1,1,-2,-2,-3,-3,-1
29492193932,-4,-5,-3,-5,-2,-3,-1,-1
29492193932,0,3,5,3,0,-2,-2,0
29492195378,2,2,3,0,-1,-2,1,0
29492195378,-2,-4,-7,-2,-3,-1,-1,-2
29492207515,1,2,5,1,0,-3,-3,-1
29492207515,0,-1,-5,-3,-2,-1,0,1
29492216408,-3,-5,-3,-3,-3,0,-2,-2
29492216408,-2,-3,-2,1,5,-1,1,-1
29492231345,0,-2,-2,-2,-2,-2,1,-2
29492231345,-2,0,1,-2,1,1,1,-1
29492232922,0,0,-1,-2,-2,-1,-1,-1
29492232922,-1,0,0,1,-4,-2,-2,1
29492253893,-1,-2,-4,-2,1,-1,-1,0
29492253893,0,-2,0,1,-1,1,-1,0
29492255420,-4,-4,-4,-3,1,0,0,-1
29492255420,-10,0,-2,-3,-5,-4,-4,-8
29492276391,-14,-2,-2,0,-2,-2,-2,-5
29492276391,14,-1,-2,-3,0,1,0,9
29492277895,-4,0,-1,0,0,-1,-3,-2
29492277895,20,5,3,1,-1,1,2,9
29492291415,-1,5,1,-1,-3,0,-1,-4
29492291415,-8,5,-1,-2,-2,-2,-6,-6
29492292932,-25,-7,-1,-1,0,-3,-1,-6
29492292932,19,9,2,0,0,2,2,0
29492313928,-16,-18,-3,0,1,2,4,5
29492313928,20,-1,-2,-2,0,0,0,4
29492315379,2,-1,1,0,-1,-1,-1,2
29492315379,-14,4,-1,-2,-4,-5,-5,-14
29492336499,-1,-3,-6,-2,-3,-3,0,-2
29492336499,-5,0,2,3,2,2,2,1
29492337923,2,3,-1,-2,-1,0,0,-4
29492337923,0,-3,-1,-1,-2,-2,1,2
29492350749,5,0,-3,0,-1,0,-2,0
29492350749,-11,-1,1,-2,-2,0,-2,-5
29492357540,6,1,-1,0,-1,-1,-2,0
29492357540,-7,-6,-2,-2,0,0,-3,-1
29492374005,4,1,1,1,0,0,-1,0
29492374005,-6,-3,-3,-1,-2,-3,-3,-4
29492375401,7,0,-1,0,-2,-1,-1,2
29492375401,-3,-3,0,1,0,2,-1,1
29492396337,-1,2,-1,-4,-1,-2,-3,-2
29492396337,5,3,0,-1,-2,-2,0,0
29492397904,-2,-3,-1,-1,-1,1,-1,-1
29492397904,-7,-3,-2,-1,1,-1,1,0
29492410740,0,-1,-1,-2,-2,-1,0,-2
29492410740,-13,-2,-2,-2,-5,-3,-1,-7
29492417566,12,3,3,1,3,2,1,6
29492417566,-4,-3,-2,-4,-3,-3,-3,-2
29492434056,7,1,-6,0,3,0,0,1
29492434056,-3,1,3,2,4,2,0,-2
29492435401,-4,-4,-3,-3,-3,-2,-2,0
29492435401,-3,-2,-1,-2,-6,-3,-2,-1
29492464542,3,0,-2,-1,1,0,0,2
29492464542,-5,-8,-8,-2,-2,-6,-3,-2
29492466091,3,7,4,4,2,0,1,0
29492466091,0,-4,-1,-4,-1,0,0,2
29492470073,-4,-2,-1,-3,-6,-4,-2,-2
29492470073,-4,-4,-4,-5,-4,-6,-4,-5
29492477541,3,7,12,5,6,3,1,0
29492477541,-1,-4,-10,0,-2,-1,0,0
29492493211,2,5,4,1,-1,-1,1,-1
29492493211,-2,-4,-8,-3,-1,-2,-1,1
29492493917,-2,-1,2,-4,-1,-3,-1,-3
29492493917,0,-3,-3,-2,-1,0,0,1
29492515669,0,-1,1,0,0,1,-3,-3
29492515669,7,2,-3,1,1,3,3,5
29492516366,-4,-8,-7,-5,-9,-5,-4,-3
29492516366,-1,-6,-3,1,4,1,2,-1
29492530053,3,10,19,4,2,3,2,1
29492530053,1,-4,-4,0,-3,-1,0,1
29492537531,-2,-3,-3,1,5,-1,-1,-4
29492537531,-1,2,4,-2,-4,-2,-2,-3
29492553205,-3,-5,-10,-1,0,-4,-3,-3
29492553205,-1,-1,3,-2,-3,0,-1,0
29492553921,-2,-4,-4,-3,-1,0,-1,-2
29492553921,0,3,1,4,1,-1,-1,-1
29492575657,-6,-10,-8,-8,-5,-3,-4,-4
29492575657,5,11,10,9,8,5,3,4
29492576320,-1,-3,-5,-5,-3,0,-1,0
29492576320,-2,-2,-2,-2,-3,-3,-3,-1
29492598088,-1,-1,-4,-4,-4,-1,-1,-1
29492598088,-1,-4,-7,-4,-3,-3,-2,-2
29492598928,-3,-12,-13,-4,-3,-1,-2,-4
29492598928,4,16,14,4,2,2,2,2
29492613096,2,-1,0,0,-4,-2,-2,1
29492613096,-2,1,-3,-3,-2,-2,-2,1
29492613926,-4,-4,-4,-2,-4,-4,-2,-2
29492613926,-2,-4,-4,2,6,3,0,0
29492635672,0,5,6,1,-1,0,-1,-1
29492635672,-4,-3,2,-3,-3,-3,-3,-3
29492636399,2,1,-5,0,5,2,0,-1
29492636399,-2,-2,0,-2,-4,-5,-2,-1
29492650056,1,-1,-3,-5,-4,-5,0,0
29492650056,-4,-4,-2,1,2,1,1,-1
29492657489,1,6,6,-2,-5,-1,-2,-1
29492657489,-1,-2,-1,-1,4,1,-2,-1
29492673192,-1,-4,-7,0,2,0,-3,-1
29492673192,-3,-2,0,-5,-7,-4,-1,0
29492673926,2,3,0,2,-3,-4,-1,1
29492673926,-4,-12,-12,-4,-3,0,-3,-2
29492695697,4,7,8,2,5,1,1,0
29492695697,-1,1,1,-1,-2,-1,-2,-3
29492696376,-3,-1,-1,-1,-2,1,1,0
29492696376,-3,-6,-5,-3,-4,0,0,-3
29492710043,-2,0,-1,0,-9,-8,-2,-2
29492710043,-2,-4,2,1,12,10,1,0
29492717549,3,6,5,2,2,0,0,1
29492717549,-1,-1,-1,-4,-8,-6,-4,-3
29492733218,-3,-3,-6,-3,0,-3,-2,-2
29492733218,0,3,2,1,2,0,0,-2
29492733988,-4,-6,-5,-3,-5,-3,-3,-2
29492733988,-1,1,5,0,0,0,-2,0
29492755705,-2,-4,-5,-3,-1,-1,-3,-2
29492755705,-2,0,-1,-2,-7,-3,-3,0
29492756389,0,-3,0,1,3,1,0,0
29492756389,0,4,0,-2,-1,-3,-1,-1
29492770151,-3,-6,-8,-1,3,-1,-1,-2
29492770151,2,6,9,-1,-3,-4,1,1
29492777582,0,-2,-7,-2,-4,-1,1,0
29492777582,-1,-3,-4,-4,-3,-3,-1,-1
29492793217,-1,-2,-3,3,2,-1,1,0
29492793217,-1,-2,-2,5,11,1,-3,-2
29492793918,1,2,4,-5,-4,1,0,0
29492793918,-4,-4,-2,3,3,-1,-2,-3
29492815730,-1,-3,-5,-7,-8,-2,-2,-2
29492815730,-2,-2,-4,-5,-4,-5,-3,-4
29492816398,-2,1,4,8,5,-1,-3,-3
29492816398,-2,-5,-5,-5,2,1,0,-2
29492830073,1,5,6,-1,-5,-2,0,1
29492830073,0,0,1,3,0,-2,1,1
29492837581,0,3,3,2,2,3,1,2
29492837581,-1,3,4,1,2,0,0,1
29492853143,0,-4,-4,-3,-3,-3,-2,-2
29492853143,-3,-6,-6,-6,-5,-2,-1,-1
29492853911,-1,1,3,-1,1,-1,-1,-2
29492853911,0,0,2,5,1,0,-1,0
29492875778,-4,-2,-3,-5,0,1,-1,-2
29492875778,3,-4,-7,-1,-6,-2,0,0
29492876448,-1,-2,1,1,4,0,-4,-4
29492876448,-1,0,-1,-7,-4,1,1,2
29492890024,2,4,4,4,0,-1,-1,2
29492890024,-4,-3,-2,1,0,-4,-5,-5
29492897516,-4,-6,-7,-9,-1,0,0,1
29492897516,4,11,16,9,3,1,1,4
29492920722,-2,-5,-9,-5,-5,-2,0,-2
29492920722,3,3,6,6,8,3,-2,0
29492921419,-3,-3,-4,-5,-8,-6,-4,-2
29492921419,-2,-5,-6,0,6,1,-3,-3
29492935686,-2,-4,-1,-3,-5,0,-2,0
29492935686,-3,-1,-2,-2,-3,-6,-4,-4
29492936398,-1,-3,-2,8,5,1,-2,-1
29492936398,-3,-6,-10,-11,-19,-11,-4,-3
29492958173,1,1,6,9,15,8,3,0
29492958173,0,-6,-7,-5,-5,-1,-1,-3
29492958954,-2,1,6,0,2,-1,-3,-4
29492958954,1,1,3,-1,-6,-6,-1,-1
29492980881,-2,-4,-1,2,-2,-2,-1,-1
29492980881,0,11,7,-4,-14,-8,-2,-2
29492981389,7,-5,-15,-7,19,21,9,6
29492981389,4,8,8,6,6,3,2,2
29492995669,-1,6,5,-7,-4,-1,-3,0
29492995669,-5,-10,-9,-3,-2,-2,-1,0
29492996341,-7,-7,-9,-9,-21,-16,-5,-5
29492996341,-6,-8,-2,-11,-2,-2,-5,-5
29493018227,7,11,12,9,-1,-4,2,2
29493018227,-4,-8,-7,2,20,16,3,2
29493019015,0,1,9,9,3,-3,-1,-2
29493019015,-4,-3,-3,-1,-6,-5,-2,-2
29493041399,-2,-4,-9,-7,-7,-3,-3,-1
29493041399,-5,-7,-10,-11,-13,-9,-5,-5
29493042040,-4,-3,-9,1,-7,-6,-4,-4
29493042040,0,3,8,17,13,4,-2,-2
29493055685,-9,-15,-15,4,4,0,-2,-5
29493055685,5,3,-8,-2,0,2,-1,-1
29493056378,4,-1,-4,1,3,3,2,3
29493056378,-1,0,0,-17,-19,-7,1,-2
29493078218,-2,-6,-7,-12,-16,-10,-5,-3
29493078218,5,6,11,17,33,22,9,9
29493078884,-6,-6,-9,-16,-26,-18,-7,-6
29493078884,2,-1,-4,5,20,15,6,4
29493101295,8,20,32,15,21,16,8,6
29493101295,-2,-2,-2,-18,-34,-14,-2,-2
29493102089,0,-7,-15,-4,2,0,-1,-1
29493102089,4,-7,-5,8,17,12,6,5
29493115670,-9,0,8,3,-13,-15,-9,-11
29493115670,15,17,16,22,19,13,13,14
29493116342,0,11,17,0,-22,-14,-5,-2
29493116342,-5,-1,-8,-9,-7,0,-1,-3
29493138313,0,-15,-7,17,20,14,2,4
29493138313,-3,-2,-4,-1,1,-2,-5,-7
29493138893,-4,-1,10,7,2,-1,-2,-2
29493138893,1,2,-7,-31,-49,-24,-9,-5
29493161400,-21,-26,-30,-10,41,13,-1,-10
29493161400,5,12,14,19,27,14,2,2
29493162066,6,5,5,9,21,12,4,4
29493162066,0,2,4,-1,3,2,-1,-1
29493175717,3,6,6,-12,-32,-17,-4,-1
29493175717,-9,-13,-19,-22,-39,-25,-7,-4
29493176378,-7,-8,-7,-3,7,9,-1,-3
29493176378,-4,5,6,13,16,-5,-4,-6
29493198183,10,2,-5,2,10,11,6,9
29493198183,-8,-2,-3,-15,-15,-10,-8,-6
29493198963,0,-6,2,9,-2,-3,2,0
29493198963,-2,-7,-6,13,9,0,0,-1
29493221546,-3,-5,-10,-8,6,0,-3,-1
29493221546,2,18,31,17,9,4,0,1
29493222125,-1,-10,-18,-13,-7,-3,-1,0
29493222125,3,6,7,1,-1,4,1,1
29493235605,0,5,1,-9,-24,-14,1,-1
29493235605,-8,-19,-17,6,-21,-26,-13,-10
29493236342,2,5,6,1,21,22,5,2
29493236342,0,-4,-3,5,11,2,-3,0
29493258173,7,6,10,2,-5,3,3,4
29493258173,-9,-4,-7,-59,-99,-58,-17,-12
29493258921,-7,-10,-17,41,95,51,17,3
29493258921,6,8,19,7,23,19,-1,2
29493281403,1,6,-2,-3,-11,-8,-5,-1
29493281403,-3,-3,-4,-11,0,8,0,-1
29493282073,1,0,-11,-40,-68,-40,-9,-2
29493282073,-3,-5,-9,22,29,15,7,2
29493295698,0,4,7,5,9,9,-1,1
29493295698,-1,-8,-18,-5,20,9,2,3
29493296402,-4,-3,-3,-1,10,-2,-1,-6
29493296402,-5,-11,-5,-8,-34,-21,-6,-4
29493318223,-2,3,6,-7,-1,4,-2,-3
29493318223,-4,1,-4,2,25,18,4,1
29493318937,6,2,-4,1,-30,-23,-2,0
29493318937,-3,-5,-8,-5,-14,-4,1,1
29493341425,0,10,32,16,5,11,1,-1
29493341425,-6,-4,-20,-28,0,7,4,0
29493342107,-13,-22,0,17,30,7,-6,-6
29493342107,8,25,35,18,14,11,7,5
29493355043,21,4,-12,-51,-59,-27,-5,11
29493355043,4,0,13,45,76,39,14,7
29493363346,-7,-14,-10,-13,-34,-20,-9,-6
29493363346,0,14,11,-23,-17,-4,4,2
29493378132,-9,-10,-20,-6,-11,-10,1,-4
29493378132,6,2,3,13,20,5,5,1
29493378903,11,26,41,26,27,24,2,7
29493378903,-4,-14,-27,-22,-14,-12,-12,-7
29493401263,-2,7,11,9,11,3,-5,-2
29493401263,-10,-17,-17,-17,-60,-41,-15,-12
29493402067,-4,4,2,2,30,14,6,-1
29493402067,4,-11,-25,-12,20,20,9,10
29493424144,-10,-1,2,15,11,-3,-13,-12
29493424144,5,8,7,1,-2,1,1,1
29493424668,-3,-1,1,-17,-34,-14,-4,-2
29493424668,-16,-27,-36,-40,-55,-40,-14,-13
29493438200,6,14,12,25,92,67,29,13
29493438200,-2,-20,-19,-8,13,10,-4,-4
29493438986,6,13,1,-24,-77,-41,-12,-2
29493438986,-1,-1,-4,-1,22,21,3,3
29493461441,-4,-1,11,21,-28,-17,0,-3
29493461441,-3,-15,-22,-13,22,15,6,7
29493462046,-15,15,8,-36,-72,-44,-13,-16
29493462046,10,-15,-4,42,82,46,9,7
29493474950,17,21,27,-4,-2,9,6,9
29493474950,-10,-3,-18,-6,6,3,4,-4
29493483245,14,-4,8,-12,-12,-8,1,12
29493483245,-3,15,4,-2,-42,-35,-16,-20
29493498178,-18,-26,-40,-17,33,34,27,13
29493498178,-17,-13,12,47,36,9,-9,-11
29493498921,18,48,50,32,39,32,13,7
29493498921,-24,-11,-3,-11,-64,-53,-20,-17
29493521552,18,-10,-16,-12,-30,-23,-2,7
29493521552,4,12,5,-14,-13,-1,7,6
29493522047,-25,-35,-42,-4,17,8,0,-11
29493522047,10,16,7,17,34,19,11,12
29493535083,6,2,7,-14,-82,-58,-17,-4
29493535083,-16,5,42,57,68,40,-4,-8
29493543207,5,-9,-34,-15,3,5,3,3
29493543207,13,25,40,14,11,19,12,10
29493558096,-25,-23,-42,-47,-26,-17,-14,-18
29493558096,14,20,24,21,-15,-17,-5,-5
29493558914,2,-9,1,1,36,31,16,15
29493558914,-10,-10,-2,1,-11,-6,1,-1
29493581322,-1,-5,-5,12,32,12,1,0
29493581322,-33,-13,-37,-49,-59,-39,-20,-30
29493582014,32,14,34,57,54,28,9,24
29493582014,-8,-48,-77,-36,-33,-24,-8,1
29493595051,2,35,66,17,-6,0,8,-2
29493595051,22,25,12,12,59,43,20,13
29493603250,-18,-22,-37,-10,-8,-14,-21,-12
29493603250,-2,10,18,-24,-32,-16,-6,-4
29493618047,18,-3,-39,-32,-26,-11,-5,5
29493618047,-17,-9,14,22,-13,-11,5,-1
29493618886,-28,-34,-29,-41,-40,-13,-8,-18
29493618886,39,43,47,18,54,47,10,21
29493641319,-12,-5,-1,21,6,-7,-20,-13
29493641319,22,12,18,-9,-19,-10,1,13
29493642022,1,-5,-17,-34,-76,-51,-20,-9
29493642022,-33,-26,-2,22,-8,-30,-13,-21
29493654993,-2,-10,-26,-1,17,11,-10,-12
29493654993,13,14,15,8,-5,0,3,8
29493663218,-16,-7,-3,2,-23,-25,-14,-13
29493663218,5,-19,-45,-6,9,5,-2,0
29493678189,1,27,66,54,17,-6,-1,-6
29493678189,-10,-17,-15,-32,-53,-28,-16,-9
29493678919,-3,2,-12,-2,56,33,16,8
29493678919,5,7,22,63,59,26,-12,-5
29493701286,37,9,-6,-6,-2,7,19,29
29493701286,-19,-9,-12,-18,-19,-3,-1,0
29493702028,-6,-15,-16,-4,-6,-13,-18,-18
29493702028,-2,16,16,-4,26,25,18,17
29493724012,-9,-10,-11,-23,-14,-13,-12,-11
29493724012,1,-3,3,7,-9,-13,-7,0
29493724564,-12,-5,-18,-23,-12,-2,-3,-22
29493724564,-7,-6,-5,-8,-12,-12,-13,-12
29493738172,-8,-13,-13,14,20,7,4,8
29493738172,11,9,9,5,3,-1,-7,-4
29493738879,-14,-19,-18,-10,6,6,4,5
29493738879,4,13,14,-20,-45,-23,-3,-10
29493761410,-7,-20,-28,-44,-28,-17,2,5
29493761410,3,13,17,52,85,56,16,4
29493762040,40,32,38,27,25,14,3,17
29493762040,-1,-5,-15,-16,-29,-19,-5,6
29493783776,-18,-19,-30,-41,-24,-8,15,-2
29493783776,25,6,6,-23,-51,-23,-15,8
29493784471,11,11,5,24,75,60,37,25
29493784471,7,1,4,4,7,14,-5,-7
29493798155,-44,-28,-21,28,18,4,-21,-27
29493798155,20,20,33,17,21,18,20,14
29493799001,12,26,21,-40,-58,-30,-8,1
29493799001,-12,-17,-13,-10,-21,-23,6,-1
29493821293,-6,6,27,49,25,9,-29,-22
29493821293,6,-18,-61,-52,-16,10,28,14
29493822057,8,4,-25,-23,-34,-23,-19,-6
29493822057,-15,7,46,28,10,3,5,-2
29493843812,26,20,14,-7,-20,-6,7,18
29493843812,-12,-3,5,16,-34,-40,-19,-15
29493844546,-14,-19,-27,-26,13,20,18,5
29493844546,-15,-4,-45,-51,6,13,12,3
29493858192,43,25,30,28,10,10,7,17
29493858192,-15,-12,27,56,28,2,-4,-9
29493858989,17,9,0,-3,5,9,4,1
29493858989,-1,-7,6,3,-14,-8,-3,5
29493881395,-6,12,7,-30,-17,-7,5,4
29493881395,-16,-23,-35,-1,-24,-28,-11,-18
29493882067,-11,-3,13,16,-2,-16,-13,-12
29493882067,1,-1,10,26,3,-2,0,-1
29493903868,-17,-21,-31,-22,18,14,-1,-15
29493903868,8,6,0,-19,-13,1,3,9
29493904547,1,-6,2,4,-28,-34,-11,2
29493904547,-4,-9,-31,-41,-46,-31,-15,-14
29493918167,-4,-29,-32,95,101,44,23,11
29493918167,0,26,16,-48,-55,-35,-19,-12
29493918919,-10,8,59,53,65,40,2,1
29493918919,14,-8,-22,-46,-46,-21,-2,5
29493941427,7,1,19,41,18,1,0,9
29493941427,-5,-7,-27,-23,21,16,9,8
29493942042,-5,1,8,25,-48,-40,-6,-12
29493942042,-11,-12,-23,-16,44,44,8,-2
29493963913,-15,-7,-8,-48,-33,-18,-14,-16
29493963913,25,8,8,9,9,6,8,25
29493964571,-10,10,22,-2,-16,-7,1,-15
29493964571,2,9,25,3,-18,-7,-5,1
29493978113,6,10,5,30,31,16,13,8
29493978113,6,23,26,-4,-51,-28,-12,-7
29493978810,0,-11,-3,38,48,41,6,3
29493978810,-9,-20,-44,10,59,16,6,-2
29494001301,-11,5,31,13,-7,2,2,-15
29494001301,-11,-9,7,-15,-21,-13,-8,-3
29494002029,9,7,5,-5,-41,-24,1,7
29494002029,-13,-2,23,66,35,3,-11,-16
29494023891,8,2,-11,-46,-23,-4,-12,0
29494023891,-14,-39,-35,24,64,31,12,-5
29494024559,2,29,20,-19,-30,-23,-5,-2
29494024559,5,5,4,-25,-49,-25,-19,-8
29494038179,-24,-40,-51,-56,-85,-64,-26,-23
29494038179,-10,-3,12,67,80,47,10,-2
29494038963,18,28,19,30,52,25,2,10
29494038963,-12,1,38,36,-26,-28,-12,-13
29494061472,-12,-4,-25,-50,-70,-24,-3,-9
29494061472,28,14,12,-46,-9,12,10,13
29494062069,-25,-31,-28,27,50,15,6,-9
29494062069,35,48,69,58,81,64,33,37
29494083715,-31,-23,-19,-22,-41,-38,-29,-31
29494083715,28,8,2,-4,16,12,8,24
29494085312,3,-2,1,2,-47,-31,-15,-6
29494085312,-1,-1,-35,-66,-20,6,-4,-7
29494097452,7,10,-15,-54,-39,-12,12,14
29494097452,-4,-7,-10,0,16,16,0,-9
29494106420,-12,-12,2,23,37,16,-1,1
29494106420,6,9,-6,-13,-36,-31,-18,-11
29494121136,13,29,56,47,45,36,2,13
29494121136,-22,-15,-37,-55,-48,-23,-15,-17
29494127468,-6,-16,-12,-15,-23,-19,-7,-3
29494127468,16,13,-10,-39,-46,-18,19,2
29494144007,-26,-17,-11,0,36,27,5,5
29494144007,31,32,78,94,57,17,-13,-1
29494145396,-1,-9,-27,-44,-11,11,13,10
29494145396,4,11,22,17,31,21,11,9
29494157580,13,0,-19,10,4,-9,5,5
29494157580,-19,-18,-60,-95,-92,-46,-7,-3
29494166376,-22,-29,-27,60,76,43,-1,-17
29494166376,9,7,31,-11,-40,-13,-6,0
29494181378,15,30,68,63,72,33,6,4
29494181378,-20,-23,-44,32,42,15,16,8
29494182901,-4,-14,-60,-104,-72,-45,-23,-21
29494182901,-15,-27,-96,-73,-29,-10,0,-4
29494203898,22,34,97,125,66,31,16,13
29494203898,-26,-19,-63,-83,-71,-48,-20,-22
29494205377,11,19,49,33,19,4,-3,5
29494205377,-4,-24,-23,22,40,15,2,5
29494217493,-26,-54,-80,-73,-75,-53,-28,-28
29494217493,11,24,15,-57,-74,-18,10,7
29494226409,20,48,59,77,66,69,24,22
29494226409,14,-19,-8,6,-9,11,12,19
29494241473,-6,2,-26,-83,-89,-50,-28,-19
29494241473,-11,6,68,73,59,28,19,-1
29494242893,-7,-17,-21,-31,-84,-54,-6,-8
29494242893,5,6,-11,15,41,34,5,0
29494263898,15,23,46,51,24,14,7,18
29494263898,-8,-22,-16,-7,-26,-19,-9,-6
29494265328,-22,-18,-34,-67,-30,-22,-21,-23
29494265328,3,15,27,42,25,-5,-7,-6
29494277547,-29,-38,-115,-128,-128,-86,-23,-29
29494277547,44,52,97,111,125,102,34,37
29494286414,5,-6,-19,-12,-12,3,21,8
29494286414,-29,-2,14,-33,-10,-14,-26,-29
29494301401,-18,-23,-20,-18,-43,-10,6,8
29494301401,6,-21,-21,34,47,20,-3,-10
29494302911,-2,2,9,7,10,-4,0,14
29494302911,-31,-16,-14,-3,-29,-16,-6,-18
29494323071,29,-8,-38,-90,-69,-18,6,14
29494323071,3,4,-42,-69,-13,-5,6,12
29494331382,5,2,27,66,79,53,-1,-6
29494331382,-29,-12,4,-15,-20,-27,-27,-22
29494337588,5,19,45,45,71,40,8,9
29494337588,11,-22,-76,-79,-91,-47,-6,15
29494346389,6,10,3,-12,16,3,-1,-3
29494346389,3,-13,-4,69,42,33,31,19
29494361380,-9,9,41,52,6,7,-9,-13
29494361380,17,17,34,46,54,34,0,-1
29494362911,-16,-3,24,-11,-25,-20,-27,-12
29494362911,7,9,19,24,7,-3,3,0
29494384316,-9,-8,-3,21,54,13,1,0
29494384316,-10,-11,-20,23,7,-5,-6,-10
29494385786,12,23,42,6,-16,-11,-4,-8
29494385786,-4,-17,-1,50,6,-9,1,3
29494397528,11,0,-10,13,40,32,7,-5
29494397528,-14,-3,-22,-95,-114,-75,-33,-15
29494413898,10,-6,-11,-36,-24,7,14,14
29494413898,8,11,-9,6,68,51,29,15
29494421467,-3,-5,26,73,-4,-17,5,7
29494421467,-5,20,63,71,58,28,-4,-1
29494422899,-25,-4,7,-13,-34,-13,1,-24
29494422899,32,10,11,-32,-31,-18,-2,25
29494443926,7,-3,-35,-9,13,9,-5,-13
29494443926,-12,-9,-19,-32,-41,-24,-9,-6
29494445376,-7,-22,-17,-39,-59,-32,-6,3
29494445376,8,21,3,-56,-44,-13,-3,3
29494457504,0,2,22,66,119,59,4,-5
29494457504,3,-25,-54,-63,-62,-29,-5,1
29494466410,18,31,62,84,25,-10,9,18
29494466410,-14,-3,-17,-40,-30,2,11,-12
29494489325,-17,-20,-18,35,37,32,4,1
29494489325,-7,12,71,20,9,6,-11,-6
29494490805,-4,-3,-51,-15,-4,-6,3,-9
29494490805,-25,-22,-19,-17,-46,-42,-26,-29
29494503792,29,28,1,-17,19,16,10,14
29494503792,-35,-30,-25,-59,-79,-51,-35,-31
29494505351,2,-6,-14,-1,-7,6,32,29
29494505351,43,37,0,19,45,5,-46,-21
29494517523,-42,-27,3,-10,-8,0,11,6
29494517523,-24,-24,-10,40,36,9,0,-11
29494526437,13,-8,-45,-90,-77,-36,-13,3
29494526437,-17,-7,32,52,21,-7,-12,-18
29494541380,21,8,-41,-90,-60,3,0,14
29494541380,30,64,101,110,127,85,33,16
29494542909,-1,8,11,22,29,22,-5,-9
29494542909,-49,-50,-72,-106,-123,-67,-33,-31
29494563857,11,-11,-32,-12,-10,-16,-9,-9
29494563857,-6,1,-26,-18,-9,-10,10,6
29494565346,29,31,34,-4,-2,-1,-10,9
29494565346,-16,-17,-27,-29,-47,-21,-5,-6
29494577434,-8,-11,-31,-69,-43,-29,-10,-14
29494577434,-1,-27,-35,-28,-21,7,9,13
29494586379,-6,-12,-34,-48,-22,-16,-14,-14
29494586379,29,51,91,58,21,30,36,42
29494601285,-24,-20,8,25,-17,-9,-9,-16
29494601285,-17,-29,-48,-51,-62,-29,-5,-13
29494602905,46,60,-3,-33,-2,9,16,17
29494602905,28,4,6,33,67,46,34,38
29494623947,8,9,10,-16,-28,-4,-12,1
29494623947,15,19,44,81,101,38,3,6
29494625369,-51,-78,-117,-122,-125,-89,-37,-21
29494625369,15,39,86,91,102,80,42,5
29494637369,-6,18,32,-11,-1,-2,-11,-18
29494637369,1,-36,-110,-122,-80,-32,7,15
29494646387,20,50,94,123,107,74,33,18
29494646387,1,-39,-57,6,41,5,-20,-1
29494661383,-12,-6,-16,0,-4,-16,0,0
29494661383,-8,-9,-34,-32,-6,3,-12,-16
29494662912,19,21,92,78,14,19,28,26
29494662912,-11,-2,25,13,-18,-13,-11,-12
29494684299,-22,-23,-22,26,2,-3,-10,-14
29494684299,-6,-7,13,35,-23,-22,4,4
29494685781,-12,-10,-9,-8,45,23,7,5
29494685781,0,-14,-35,-19,8,0,-19,-23
29494706379,32,20,4,1,-21,-21,-9,24
29494706379,-9,18,6,-21,5,5,3,-19
29494707906,-26,-47,-56,-69,-98,-56,-36,-19
29494707906,40,55,78,31,15,31,20,21
29494721382,23,20,43,61,94,74,27,28
29494721382,-27,-2,-10,-23,-26,-8,-15,-23
29494722897,18,15,44,34,10,15,19,8
29494722897,-9,2,-4,0,-35,-38,-5,3
29494743868,-4,-9,-66,-71,-25,-4,-1,-1
29494743868,-11,3,56,40,-1,-14,-5,-15
29494745380,9,4,17,77,94,50,8,21
29494745380,-30,-35,-61,-95,-84,-41,-6,-4
29494766409,13,17,15,-34,-15,-3,3,5
29494766409,19,1,-8,11,-2,-19,-6,25
29494767896,-18,-5,-32,-53,-55,-22,-19,-37
29494767896,-10,-9,-7,55,94,36,-18,-14
29494781347,-7,3,27,-14,-40,-17,9,0
29494781347,8,-16,-68,-71,4,11,-2,4
29494782934,18,42,99,96,102,57,14,14
29494782934,-4,-5,-34,-59,-31,-15,6,13
29494803908,-16,4,45,48,19,3,-7,-14
29494803908,18,31,41,8,-53,-28,-5,2
29494805351,-6,-25,-45,-7,32,15,10,11
29494805351,-1,-5,-29,-52,-72,-35,-6,-7
29494826333,-4,4,-2,-10,26,6,7,-2
29494826333,-8,-13,5,24,-52,-30,-5,-3
29494827905,0,3,-8,-28,2,9,8,-1
29494827905,-7,-6,-31,-59,-57,-25,-8,-23
29494840699,-1,-12,13,23,-48,-29,-7,14
29494840699,-6,8,23,40,66,47,0,-12
29494847528,2,-29,-57,-66,-73,-47,-8,-7
29494847528,10,13,37,22,-2,-2,28,24
29494863910,-13,-4,-28,-67,-66,-39,-19,-26
29494863910,29,28,54,83,67,53,25,14
29494865377,-32,-16,-5,-1,-14,-15,-25,-21
29494865377,1,-16,-20,-7,12,11,-9,10
29494886245,-14,-10,-31,-35,-57,-46,-24,-19
29494886245,3,-32,-90,-72,-31,-17,-8,8
29494887924,-13,18,26,14,-32,-19,1,-20
29494887924,5,25,83,95,78,43,4,-2
29494900637,22,7,-14,19,61,44,23,20
29494900637,-34,-28,-49,-51,-47,-46,-31,-34
29494907552,-24,-45,-47,-9,1,-14,-11,-15
29494907552,-21,-28,-62,-10,-18,-29,-26,-22
29494923849,0,18,79,93,52,12,10,4
29494923849,-23,-22,-3,-12,-45,-19,-7,-39
29494925336,35,28,26,59,35,19,15,40
29494925336,-2,-2,-29,-81,-67,-28,-11,-5
29494946364,14,4,-36,-19,81,69,31,20
29494946364,-2,6,-5,-74,-86,-46,-10,11
29494947909,-9,9,55,63,47,17,6,1
29494947909,-1,-11,-36,-47,-25,-1,3,-6
29494960697,-8,-1,9,16,-12,-14,-5,-6
29494960697,30,41,43,-10,8,17,22,27
29494967540,3,-18,-79,-83,-43,-6,-12,-11
29494967540,23,34,61,62,40,13,17,32
29494983866,-28,-27,7,26,-56,-47,-31,-29
29494983866,15,17,6,8,37,20,-4,14
29494985330,-40,-53,-89,-102,-86,-47,-36,-47
29494985330,7,18,57,43,67,27,11,24
29495006339,12,5,-6,-33,-27,-5,14,-10
29495006339,-22,-16,0,5,-4,1,13,2
29495007904,8,-8,-49,-50,-21,-5,-5,13
29495007904,-1,0,-3,-90,-98,-38,-20,-19
29495020728,33,21,31,65,111,77,24,50
29495020728,-2,18,69,81,68,26,-14,-13
29495027502,10,11,30,12,-30,-26,1,6
29495027502,-18,-19,-26,16,-9,-7,1,-14
29495043872,-12,-18,-20,-24,-33,-29,-17,-9
29495043872,9,-6,-10,-9,-17,-17,-3,4
29495045345,-14,-5,31,63,22,3,-1,-6
29495045345,-15,-5,-33,-64,-44,-17,-11,-8
29495066375,8,-10,-55,-118,-109,-44,-17,-4
29495066375,-14,-29,-41,-35,-6,3,-8,-27
29495067912,13,24,12,-55,-19,16,17,14
29495067912,52,34,60,77,66,50,33,43
29495080633,-8,9,-4,3,42,29,-1,-15
29495080633,17,-6,7,94,49,7,16,34
29495087552,-11,-2,5,-20,-12,-7,-20,-26
29495087552,-35,-38,-48,-63,-76,-40,-6,-17
29495103776,-1,-9,-12,-12,0,1,-13,-1
29495103776,18,50,91,60,59,43,17,15
29495105328,1,10,11,-35,-39,-16,-5,-3
29495105328,-16,-45,-61,23,52,29,7,3
29495126377,2,10,33,28,8,-5,-13,-15
29495126377,-39,-30,-52,-92,-63,-32,-17,-24
29495127924,19,7,42,97,119,59,33,29
29495127924,27,26,-5,-75,-111,-51,-13,9
29495140679,-16,-4,17,42,35,25,20,-11
29495140679,37,32,29,-35,-40,-9,5,14
29495147526,-22,-28,-8,48,13,1,-3,0
29495147526,-8,14,22,24,52,34,14,-9
29495163876,17,10,25,90,87,30,31,26
29495163876,-8,1,1,-6,-12,-15,-30,-20
29495165389,-3,-15,-38,-78,-65,-36,-17,-13
29495165389,-21,-31,-64,-56,-37,-11,-5,-11
29495186387,8,6,-19,-68,-38,-4,6,15
29495186387,-11,-24,-46,-35,5,14,8,-2
29495187909,25,51,37,-48,-52,-10,7,11
29495187909,-1,-7,-23,-15,7,-10,-17,-8
29495200053,-26,-22,-20,-41,-38,-25,-15,-9
29495200053,2,9,-14,6,25,9,7,5
29495208910,-2,-22,-21,3,-4,-9,-22,-15
29495208910,-9,7,75,111,62,11,-2,-3
29495223827,5,-10,-47,-56,-36,-8,-6,-1
29495223827,-8,-5,27,56,16,-8,-6,-4
29495225329,-4,2,22,67,85,49,38,17
29495225329,-4,19,6,-73,-98,-47,-32,-22
29495246408,24,5,-10,30,58,30,6,14
29495246408,-28,-37,-43,-14,-41,-24,-12,-9
29495247899,9,19,46,39,26,5,9,7
29495247899,-20,-34,-58,-43,-15,-10,-10,-14
29495260018,15,41,85,53,5,7,17,12
29495260018,15,25,12,-34,-24,-2,12,18
29495268911,22,6,-24,14,40,17,6,10
29495268911,-18,-11,-13,-10,19,7,7,-2
29495283858,-14,-15,0,-21,-53,-40,-23,-6
29495283858,-14,2,16,59,50,26,-10,-33
29495285323,6,-10,-10,-11,-18,-5,-7,6
29495285323,19,12,-12,-37,-2,8,-3,10
29495306373,12,14,32,26,-16,-15,-11,7
29495306373,-22,-29,-19,-20,-16,-12,-11,-11
29495307910,-30,-28,-58,-50,-38,-24,-21,-24
29495307910,6,8,-6,-12,-7,1,14,4
29495319950,-9,-3,-3,2,-1,0,2,-9
29495319950,28,21,25,26,11,8,19,24
29495328915,-24,-21,-26,-39,-38,-24,-16,-17
29495328915,-3,-7,11,30,30,15,6,5
29495343882,18,35,34,1,-4,0,6,2
29495343882,2,-5,-42,-75,-24,-11,11,12
29495345356,5,14,54,87,82,42,28,15
29495345356,6,10,72,127,90,36,-6,-1
29495366264,-5,-10,-37,-61,-21,13,14,-14
29495366264,-13,-9,-17,-67,-74,-28,-10,-14
29495367825,13,9,8,-16,-9,-3,-4,9
29495367825,-20,-46,-66,-63,-35,-33,-14,-14
29495380047,1,25,52,45,21,11,17,11
29495380047,10,15,27,16,38,27,2,2
29495388902,-31,-33,-46,-34,-39,-25,-10,-18
29495388902,6,1,-19,4,30,19,11,7
29495403875,27,28,54,47,19,1,5,15
29495403875,-4,-6,-13,9,13,4,0,0
29495405348,-1,-2,-26,-35,-15,-6,-5,-1
29495405348,-4,0,23,11,5,7,2,-5
29495426362,-18,-27,-65,-64,-63,-44,-14,-12
29495426362,13,3,-1,36,37,22,16,23
29495427902,32,43,104,118,104,48,3,17
29495427902,-5,6,-21,-81,-80,-39,4,-3
29495440049,-17,-7,17,82,76,30,20,-18
29495440049,16,-16,-20,7,15,16,15,27
29495448924,-4,-12,-29,-59,-41,-21,-25,-21
29495448924,16,26,44,63,50,25,12,9
29495463858,-7,-11,-1,-22,-31,-18,-10,3
29495463858,-19,-13,-11,-16,-12,-10,-6,-15
29495465326,-6,-4,-21,-13,-1,8,7,-1
29495465326,13,-16,-26,-19,-32,-11,-4,5
29495486325,-5,3,-12,-24,-8,-3,-10,-8
29495486325,2,7,24,21,4,-7,-4,-3
29495487924,-12,-21,-58,-70,-47,-27,-8,-3
29495487924,2,35,103,84,35,14,10,2
29495500058,2,-25,-60,-57,-33,-10,0,6
29495500058,-9,-10,-9,-12,-14,-15,-22,-16
29495508912,8,17,29,32,12,19,34,17
29495508912,-9,-16,-29,-24,-36,-20,-8,-11
29495523949,-9,-12,-4,-1,19,3,-23,-11
29495523949,-5,1,1,-19,-17,-3,-6,-6
29495525334,-8,-15,-8,4,3,-3,2,-1
29495525334,1,-3,-4,-10,-16,-10,-6,-1
29495546366,-2,1,-8,-11,-15,-10,-10,-4
29495546366,-7,0,5,29,21,6,2,-8
29495547903,6,6,-8,-43,-35,-17,-11,-2
29495547903,0,5,18,27,18,6,-3,0
29495559973,-6,-16,-20,-8,-19,-11,-11,-3
29495559973,-8,2,-6,-15,2,1,-1,-9
29495568897,-1,-7,2,24,4,-5,-4,0
29495568897,10,10,7,8,2,7,6,12
29495583835,-7,-10,-17,-20,-18,-9,2,-3
29495583835,-1,-9,7,17,14,6,-9,-2
29495585335,-2,4,-9,-17,-36,-19,-15,-11
29495585335,-1,-6,-11,-4,24,11,-1,3
29495606436,-2,5,4,-15,-21,-8,6,1
29495606436,5,3,8,2,-10,-8,-4,1
29495607927,-8,-8,-10,-17,0,-2,-10,-10
29495607927,-3,-3,3,30,20,11,1,-5
29495628750,-7,3,7,7,9,4,-6,-4
29495628750,12,3,-15,-22,-24,-13,4,5
29495630329,-2,-3,1,11,9,6,5,5
29495630329,3,9,11,-5,-5,0,4,2
29495643875,-4,-9,-6,-3,4,3,-2,-1
29495643875,-2,-6,1,19,6,-2,-2,-4
29495645364,0,5,-4,-13,-11,-6,-1,-7
29495645364,-1,-5,-3,2,10,8,1,1
29495666344,-1,-4,-9,-7,-4,-1,-2,-1
29495666344,3,11,18,10,1,2,0,-2
29495667917,-10,-9,-1,0,-3,-1,-2,-3
29495667917,4,-2,-15,-23,-19,-13,-5,0
29495688849,8,6,13,40,38,18,7,7
29495688849,-10,-10,-14,-11,-2,-1,2,-4
29495690329,9,22,22,1,0,4,4,5
29495690329,-1,2,-1,-8,-6,-3,-2,-2
29495703865,-19,-2,-3,-7,-3,0,-3,-9
29495703865,11,-8,-10,-2,0,-3,-5,3
29495705328,3,4,8,13,4,1,0,3
29495705328,-5,-17,-29,-26,-13,-6,-5,-8
29495726342,6,8,22,14,3,3,4,12
29495726342,-2,6,5,9,11,6,1,-2
29495727914,3,13,8,4,5,3,1,-3
29495727914,6,-9,-14,-9,-8,-4,-3,6
29495748823,-32,-29,-19,-11,-10,-7,-5,-14
29495748823,33,18,7,5,0,1,6,14
29495750337,-59,-25,-17,-10,-5,-8,-8,-24
29495750337,22,15,5,-5,-6,-6,-1,-4
29495763788,12,0,-5,-4,-2,2,0,10
29495763788,29,-3,6,6,4,0,-2,20
29495765333,21,-7,-28,-13,2,3,0,12
29495765333,-14,11,38,31,8,2,-1,-10
29495786358,-3,-5,-20,-14,-10,-8,-6,-12
29495786358,-37,-25,-23,-11,-9,-8,-4,-16
29495787920,14,32,36,21,12,8,7,6
29495787920,-1,-11,-20,-8,2,2,0,9
29495808841,-9,-5,-15,-17,-9,-6,-5,-8
29495808841,10,11,11,2,-2,1,2,6
29495810326,-5,-22,-20,-9,-3,-2,-1,-3
29495810326,-10,6,14,13,5,1,0,-4
29495823195,18,8,3,-3,-2,-2,-4,2
29495823195,-17,-4,-11,-11,-4,-3,-5,-9
29495829959,-6,-12,-7,-7,-1,-2,-3,-4
29495829959,5,-2,-10,-5,-2,0,4,6
29495846299,-3,-2,-9,-12,-10,-8,-5,-3
29495846299,-6,8,14,11,10,4,0,-3
29495847893,7,-6,-9,-11,-6,-1,2,4
29495847893,-8,1,10,16,19,4,-4,-4
29495868891,-4,-2,5,4,1,-2,-2,2
29495868891,0,1,4,2,-1,-2,-1,1
29495870350,12,6,7,1,-4,-4,-3,-1
29495870350,-15,-14,-19,-22,-15,-7,-2,-6
29495882522,9,1,-5,-2,-1,0,2,3
29495882522,-3,10,22,12,4,0,-2,-3
29495891363,-11,-13,-9,1,-2,-1,-2,-2
29495891363,1,4,5,-4,-2,-4,-4,-1
29495906317,9,15,18,12,6,3,6,6
29495906317,-4,-2,-7,-7,-6,-2,2,-2
29495907815,-4,-6,-3,4,4,2,-1,-1
29495907815,-1,-7,-5,-5,-3,-1,0,-4
29495928842,-6,2,2,-1,-3,-3,-2,-4
29495928842,-3,-6,-8,-4,-1,-1,0,2
29495930364,2,4,5,3,4,2,-2,0
29495930364,6,4,-1,-9,-13,-3,0,3
29495942567,-11,-8,-5,1,-3,-1,-3,-7
29495942567,-3,-3,-7,-1,-2,0,1,-2
29495951364,1,-3,-3,1,2,-1,-3,-1
29495951364,-16,-2,-7,-9,-6,-3,-5,-11
29495966324,18,3,8,11,10,5,5,10
29495966324,-11,-6,-4,-8,-1,1,-2,-5
29495967899,10,3,3,5,2,1,1,6
29495967899,-5,-5,-7,-6,-5,-4,-1,-2
29495988561,0,0,-4,-2,-1,-2,0,-2
29495988561,-1,0,-5,2,2,1,3,-1
29495995061,4,6,8,0,-1,0,0,0
29495995061,-5,-6,-8,-1,1,-1,0,-2
29496002386,1,1,6,1,-3,-2,-2,-2
29496002386,-1,6,9,2,0,0,0,-1
29496011388,-6,-8,-16,-5,-2,-2,0,-3
29496011388,8,7,5,5,3,2,1,5
29496026348,-7,-7,-5,-7,-5,0,-3,-1
29496026348,-2,-6,-8,-4,-1,-4,-3,-4
29496027910,3,2,2,2,-2,0,1,1
29496027910,2,-2,-2,-1,1,-2,-1,1
29496048823,0,1,-1,1,1,-1,-1,-1
29496048823,-3,-2,1,-1,-6,-1,0,-2
29496050322,-3,-1,-1,-3,0,-2,-1,-2
29496050322,0,-5,-3,0,-2,-2,-3,-1
29496063809,-2,4,-1,-2,-5,-3,-1,-4
29496063809,1,-6,-1,1,3,1,-1,1
29496071492,-4,-1,1,-1,1,0,-1,-1
29496071492,3,8,7,0,0,0,-4,-3
29496086313,-9,-11,-2,-1,1,-1,-3,1
29496086313,1,-9,-10,1,1,0,-2,1
29496087818,2,7,10,1,-1,-3,2,1
29496087818,-1,1,0,-3,-1,-1,-2,-1
29496108847,5,-2,-5,-3,0,-1,-1,-2
29496108847,-10,-1,1,-5,-7,-5,-2,-1
29496110329,-4,-8,-8,1,1,-1,-3,-3
29496110329,0,7,10,4,3,2,0,0
29496122545,-3,-5,-7,-5,-2,-1,-1,-2
29496122545,6,6,2,-2,-2,-2,0,1
29496131363,-1,-2,-3,-1,-4,-2,-3,-2
29496131363,-4,-5,-1,-5,-2,-2,1,-1
29496146318,3,1,-3,-1,3,-1,0,0
29496146318,-6,-3,1,-1,-1,-3,-4,-5
29496147839,1,5,5,2,2,2,-1,0
29496147839,-1,-8,-12,-4,1,-1,-1,-1
29496168848,0,-3,-3,-4,-5,0,0,1
29496168848,-3,-1,-4,-2,-4,-4,0,-4
29496170354,-16,-5,-3,-2,-3,-1,-4,-7
29496170354,16,-2,-5,1,-2,-1,-2,3
29496182455,4,3,5,0,0,1,1,4
29496182455,-2,-1,-5,-6,-2,-2,-1,-1
29496191359,4,3,2,-2,-2,0,0,1
29496191359,-6,2,-2,-1,-2,0,1,-4
29496206345,-13,-5,0,4,2,0,-1,-4
29496206345,2,2,2,2,1,1,0,2
29496207899,-6,-9,-5,-8,-2,-1,-1,-3
29496207899,2,5,-2,3,5,1,1,2
29496228765,3,5,4,-2,-1,-2,-2,-1
29496228765,1,-4,-5,-1,-1,1,0,1
29496230305,-2,-1,-1,0,-2,-2,-2,0
29496230305,-1,-3,1,-4,-1,-3,-1,0
29496242454,-1,-4,-6,0,-2,-1,-2,-2
29496242454,0,4,4,2,1,-1,-2,-2
29496251389,1,1,1,-4,-5,-4,-1,-2
29496251389,-3,0,2,5,5,2,-1,0
29496266361,0,-1,-7,-2,-2,-3,-1,-2
29496266361,-2,-5,-6,0,2,3,-1,-2
29496267893,-1,7,12,2,0,0,2,-1
29496267893,-4,-1,2,-3,-4,-1,-1,0
29496288887,6,1,-2,-1,0,0,-1,1
29496288887,-6,3,3,2,-1,-1,-1,-8
29496290301,9,-5,-6,-3,-1,-3,0,11
29496290301,-5,-7,-9,-3,-3,-3,-1,-4
29496302543,-3,2,4,-2,-2,-4,-2,-3
29496302543,5,7,4,5,7,0,-2,1
29496311337,-4,-3,-5,-2,0,0,-1,-4
29496311337,0,-2,1,0,-2,-2,-2,0
29496326388,-1,-4,-3,-1,-2,-1,-2,0
29496326388,0,-4,-1,-5,-7,-4,-1,-1
29496327900,0,0,0,0,-1,-1,-1,-3
29496327900,2,2,2,-1,0,1,-1,0
29496348827,-4,-8,-10,-6,-3,-4,-4,-5
29496348827,4,5,7,1,2,2,1,5
29496350329,-1,0,1,1,0,0,-2,-2
29496350329,-1,-1,-4,-4,-4,-1,1,-1
29496362491,0,-1,2,4,3,1,0,0
29496362491,-13,-14,-7,-9,-6,-6,-4,-8
29496371356,12,9,8,5,3,4,2,6
29496371356,-1,0,-4,-1,-1,-1,-1,-1
29496386324,2,8,13,1,0,2,0,1
29496386324,0,-2,-1,-3,-4,-1,0,1
29496387824,-9,-6,-8,-3,-5,-3,-2,-7
29496387824,0,-5,-3,1,2,-1,-1,-1
29496408851,2,0,1,-1,0,1,0,-1
29496408851,2,0,-1,-3,-3,1,-1,-3
29496410334,-7,-6,-7,-4,-2,-2,-1,-2
29496410334,-4,-2,-3,-1,-2,-2,-2,-3
29496422478,-9,-4,-5,-2,-2,-1,0,-1
29496422478,1,0,-2,0,1,0,0,2
29496431355,-3,3,1,-1,0,0,-2,-4
29496431355,-4,0,6,3,1,-1,0,-2
29496444998,2,-1,-1,-2,-3,-3,-5,-1
29496444998,1,-7,-7,-5,-1,-2,-1,1
29496453935,3,0,-3,3,1,1,0,0
29496453935,-1,-2,-1,1,1,0,0,1
29496468785,-3,-1,-3,-4,-2,-1,1,-3
29496468785,-2,1,1,-1,-3,-2,-1,0
29496470324,1,-3,-2,-2,1,-1,-1,0
29496470324,-3,0,3,0,1,2,-1,-3
29496482465,-2,-9,-8,-2,-3,-1,-1,0
29496482465,-5,2,-1,-3,-3,-2,-2,-4
29496491330,13,10,6,-1,-1,-3,1,4
29496491330,-1,-2,-2,-2,-3,-1,-1,-1
29496505709,-1,-2,-2,1,-1,0,-1,0
29496505709,-3,-4,-4,-1,-3,-3,-1,-1
29496512442,-5,-6,-2,0,-1,-1,-4,-4
29496512442,-2,-4,0,-2,2,0,-1,-2
29496528933,4,6,2,-2,2,0,2,1
29496528933,-5,-6,-4,-2,-1,-1,-2,-2
29496530351,-2,1,1,0,-1,-2,0,-1
29496530351,0,-1,0,1,-1,0,1,-2
29496542449,-5,-9,-14,-8,-3,-3,-1,-3
29496542449,4,8,15,11,4,2,1,1
29496551366,-4,-4,-8,-4,-1,-2,-1,-1
29496551366,0,0,-1,-1,-1,-1,-2,0
29496565720,-1,4,8,0,-1,-2,-2,-1
29496565720,2,0,-3,-4,0,-1,0,0
29496572563,-3,-8,-6,-1,-4,-1,-2,-3
29496572563,-2,-2,-2,-3,-4,-4,-5,-2
29496588967,1,-2,-5,-4,-2,0,0,1
29496588967,0,0,1,2,3,0,-2,-1
29496590300,1,7,12,2,0,0,-1,0
29496590300,1,-1,-1,-4,-4,-4,-2,2
29496611227,-3,-1,-4,-2,-1,0,-1,-2
29496611227,-2,-6,-7,-2,-1,-2,-1,0
29496612890,-4,0,0,2,4,0,0,-3
29496612890,-1,-1,-2,-2,-4,-1,-3,-3
29496625662,-4,-2,1,3,0,-1,-1,-2
29496625662,-3,-4,-6,-4,-4,-3,-2,-2
29496632509,1,6,4,-1,-3,-1,1,0
29496632509,2,0,-2,2,3,-2,-1,1
29496648825,2,1,5,0,-1,1,1,2
29496648825,1,1,3,1,2,1,-2,-1
29496650367,-1,-7,-8,-4,-2,-2,-4,-1
29496650367,-4,-8,-9,-4,-3,-4,-1,-4
29496671267,0,1,5,5,-1,-3,-1,-1
29496671267,3,10,11,0,3,1,1,2
29496672815,0,-5,-3,6,1,1,-1,-2
29496672815,1,7,5,0,1,1,1,0
29496685717,-2,-1,-1,1,-1,-3,-1,-2
29496685717,-3,-1,-2,-2,-5,-3,-1,0
29496692537,-1,-1,-3,-3,-4,-2,-2,-1
29496692537,-2,-4,-3,-1,1,0,2,1
29496708778,0,1,-3,-4,-3,-4,-3,-1
29496708778,3,-4,-2,-3,-2,-1,2,-1
29496710346,-1,-3,-1,0,3,0,-1,-2
29496710346,1,1,-4,2,4,1,2,0
29496731356,-2,-1,-1,0,0,-1,-2,-1
29496731356,-2,-3,-6,-5,-4,-2,-3,-2
29496732823,-5,-7,-6,-4,-4,-4,-2,-1
29496732823,1,0,3,1,-1,1,-1,0
29496745617,1,2,-4,-5,-4,-3,-3,0
29496745617,4,6,5,5,4,2,0,0
29496752507,-7,-12,-11,-10,-6,-4,-3,-4
29496752507,5,8,9,7,4,4,1,2
29496768938,-3,0,4,4,3,1,-1,-2
29496768938,1,-3,-6,0,-1,0,0,1
29496770347,-2,-2,-3,-3,-1,-2,-1,-3
29496770347,-2,-2,-2,-4,-3,-3,-2,-1
29496791324,-4,-2,-2,-3,-1,-1,-2,-1
29496791324,3,-6,-7,-1,-1,-1,-2,1
29496792828,1,7,11,2,1,0,-1,2
29496792828,-4,-3,-7,-5,-4,-1,-1,-1
29496805573,1,1,-1,-1,0,-2,-1,-1
29496805573,-6,-2,1,0,2,-1,-1,-2
29496812449,-2,-4,-10,-6,-4,-3,-3,-5
29496812449,1,4,7,1,-2,1,0,0
29496828866,1,2,3,1,0,1,3,1
29496828866,-2,-2,-4,-4,-2,-4,1,0
29496830302,0,-1,-2,-9,-10,-3,0,0
29496830302,-2,-1,3,15,15,3,-3,-1
29496851345,-5,-6,-3,-4,-3,1,-2,-3
29496851345,-2,-11,-16,-5,-5,-4,-3,-3
29496852924,10,24,26,7,5,2,5,8
29496852924,-6,-3,-6,-9,-7,-3,-3,-2
29496864983,3,1,-1,-1,-2,0,0,0
29496864983,-2,-6,0,-1,-2,-2,0,-2
29496873905,0,-5,-6,0,4,2,-2,-2
29496873905,4,1,-4,-3,-4,0,1,1
29496888793,-2,-1,2,4,2,-2,-1,-2
29496888793,-3,3,-1,-2,-4,-3,-2,-2
29496890305,-2,-3,-4,0,-6,-5,-3,-1
29496890305,-4,-4,1,1,4,1,-2,-2
29496911421,-4,-13,-16,-14,-12,-6,-2,-4
29496911421,6,13,17,16,12,5,5,4
29496912893,2,11,16,5,3,4,0,0
29496912893,-3,-6,-4,-6,-5,-4,-1,0
29496924990,1,-1,1,-3,-1,-2,-3,-1
29496924990,-4,-6,-6,-6,-6,-2,-4,-2
29496933911,-5,-6,-7,0,0,-2,-1,-2
29496933911,-3,-3,-1,-4,-4,-2,0,-1
29496948928,3,4,5,1,-1,-1,-1,0
29496948928,-3,2,2,0,-3,-2,-2,-2
29496950325,3,-5,-4,-1,4,1,1,1
29496950325,0,-2,-5,-4,-6,-3,-4,-2
29496971264,-1,-1,-2,4,4,0,0,0
29496971264,-2,1,0,-1,-2,1,-1,-1
29496972809,-8,-7,-11,-4,-4,-3,-3,-4
29496972809,4,1,-1,2,1,-1,1,2
29496984977,-1,1,4,1,1,0,1,-1
29496984977,0,1,2,-1,0,-1,-1,-2
29496993907,-3,-7,-8,-3,-4,-1,-2,0
29496993907,-3,-1,0,0,-3,-3,-1,-2
29497008850,0,0,-1,1,2,-1,0,0
29497008850,0,-1,-3,-3,-1,-1,-1,-1
29497010356,1,0,-6,-3,-1,1,0,-1
29497010356,-6,-6,-2,-3,-3,-3,-2,-3
29497031318,8,13,11,6,1,1,1,4
29497031318,-2,-3,-1,-5,-3,-1,0,-1
29497032812,-2,-3,-2,0,1,-1,-2,-1
29497032812,0,-2,-2,-5,-6,-3,-2,-2
29497044962,-5,-6,-6,6,3,2,-1,-3
29497044962,-2,-3,-3,-5,-4,-2,-1,1
29497053911,-1,0,-1,3,2,1,0,-1
29497053911,-1,-2,1,-4,-2,-3,-4,-1
29497068827,0,-1,-8,-2,0,-2,-2,-1
29497068827,1,1,1,0,-2,-2,-2,1
29497070303,-4,-7,-6,-7,-8,-6,-2,-2
29497070303,-5,-3,-2,-1,-2,-1,-2,-2
29497091339,2,2,0,0,2,2,3,1
29497091339,4,10,13,8,5,4,1,3
29497092839,-2,-1,1,-3,-5,-1,1,0
29497092839,-1,-1,0,0,-1,0,-1,-2
29497104959,-7,-11,-6,-6,-6,-4,-2,-2
29497104959,-3,1,-4,-2,-3,-1,-3,-2
29497113912,-1,1,-3,5,4,1,-2,0
29497113912,1,1,-2,0,4,4,1,2
29497128765,-4,-4,-3,-3,-5,-4,-3,-1
29497128765,3,1,1,-1,6,4,3,-1
29497130308,-2,-1,3,2,3,-1,-2,-2
29497130308,1,-1,-1,-2,-2,-1,0,-1
29497151436,-1,-1,1,2,1,-1,0,-3
29497151436,-3,-7,-4,-5,-6,-3,-2,-2
29497152958,-1,-4,-6,-4,-4,-3,-3,-1
29497152958,3,8,7,5,2,1,0,-1
29497164920,2,5,3,-2,0,1,-1,0
29497164920,-3,-6,-7,2,1,0,-1,-1
29497173910,-1,5,11,2,0,1,0,0
29497173910,-2,-3,-4,-5,-9,-7,-3,-4
29497188788,0,2,2,2,0,0,0,0
29497188788,-2,-5,-7,-2,0,-3,-1,-3
29497190305,-1,-1,1,-1,0,0,-1,0
29497190305,-2,-1,-7,-4,-1,-1,-2,-2
29497211444,0,2,-3,-2,-3,-2,-1,1
29497211444,-2,1,3,1,1,1,0,-1
29497212778,-1,-2,-2,1,-3,0,1,-1
29497212778,0,3,2,-2,-4,-3,-2,0
29497224877,-1,-9,-8,-1,5,2,-1,1
29497224877,0,-2,-1,0,-2,0,-4,0
29497233914,-1,-1,-2,-3,-2,-5,-3,-3
29497233914,-1,-3,-2,2,1,-1,0,0
29497248853,2,1,0,-3,-2,-3,-2,0
29497248853,-3,-2,-3,-6,-6,-4,-1,-1
29497250330,-1,-1,-1,0,2,1,2,-1
29497250330,0,-1,-4,-2,0,0,0,-1
29497271325,-5,-4,-2,-3,-7,-3,-2,-4
29497271325,0,2,3,5,6,2,-1,1
29497272806,-6,-12,-18,-6,-4,-4,-4,-3
29497272806,6,16,25,7,3,4,2,4
29497284878,-2,-2,-2,-2,-2,0,-1,-1
29497284878,-1,-2,-2,-4,-4,-2,-1,-2
29497293819,0,-1,-2,-2,-1,1,0,-2
29497293819,-2,-7,-9,-2,1,-1,0,-4
29497308948,0,-1,2,-2,0,-1,-1,-1
29497308948,-1,-2,1,-3,-3,-1,-1,0
29497310319,0,0,1,1,2,-1,0,-1
29497310319,-3,-4,-6,-3,1,1,-2,-1
29497331414,-4,-1,1,-2,-1,-1,-3,-1
29497331414,4,1,-4,1,2,1,1,1
29497332803,2,0,-6,-1,-1,0,2,2
29497332803,-2,0,-1,-2,-3,-2,0,1
29497345045,-2,-3,-3,1,1,0,0,0
29497345045,-4,-6,-6,-5,-5,-4,4,-3
29497353821,-2,-3,-4,-3,-1,0,-1,1
29497353821,-1,2,3,2,0,0,-3,-1
29497368791,-1,-1,-1,0,1,-2,-2,-1
29497368791,-3,-3,-4,-3,-3,-1,-5,-2
29497370306,0,2,4,0,-1,-1,-2,-1
29497370306,-2,-6,-8,-3,0,-2,-2,-2
29497391356,-2,1,1,1,1,0,7,-1
29497391356,-1,0,-1,0,-2,-2,-2,-3
29497392902,1,2,5,-1,-1,-1,-2,0
29497392902,-1,-3,-3,-3,0,-1,-3,-2
29497413100,-1,2,-1,-3,-3,-2,-2,0
29497413100,-1,-2,-4,-2,-3,-1,0,0
29497413815,-3,3,5,3,1,1,2,-1
29497413815,-5,-6,-7,-3,-1,-2,1,-3
29497428123,-1,-1,-1,1,0,0,0,0
29497428123,-3,1,2,0,0,-1,-4,0
29497428798,0,2,0,-2,-1,0,-2,1
29497428798,-2,-1,-3,-1,-1,-2,-3,-1
29497450717,-3,-7,-7,-2,-1,1,-3,-4
29497450717,1,8,10,2,1,1,-2,2
29497451294,-4,-4,0,-2,-1,-1,-5,-1
29497451294,2,2,-1,-1,0,0,0,-3
29497473130,0,2,2,-1,0,-1,-1,0
29497473130,-3,-11,-13,-4,-3,-3,-1,-3
29497473801,5,20,24,7,4,2,3,2
29497473801,-5,-1,1,-2,-2,-2,-2,-1
29497488123,-1,0,2,1,2,0,0,0
29497488123,0,-1,-2,-3,-3,0,1,-1
29497488793,-5,-5,-8,-2,-3,-2,-1,-2
29497488793,-2,-10,-11,-3,0,-3,-2,-1
29497510592,0,3,4,2,2,1,0,-2
29497510592,-1,1,0,-2,-2,-3,1,0
29497511287,-1,-4,-7,-4,-3,-4,-5,-1
29497511287,-2,-2,-3,0,-2,0,-1,-1
29497533011,-1,1,0,-1,1,-2,-1,0
29497533817,-1,-3,-2,-1,-2,-3,-1,-2
29497533817,1,0,1,0,-2,0,0,2
29497548086,0,2,-2,0,-2,0,-2,-1
29497548086,-2,1,-2,1,-1,-1,-1,-2
29497548770,0,0,-3,-1,-1,-1,1,-1
29497548770,-2,-4,-3,-1,-2,-2,-1,-1
29497570479,0,0,1,-2,-2,-1,-1,-1
29497570479,-1,-5,-5,-2,-3,-2,-2,-1
29497571231,-2,-6,-4,-2,-1,-1,-2,-2
29497571231,-1,0,3,1,1,1,-4,-2
29497593250,-3,-4,-2,-2,-3,-1,-4,-2
29497593250,2,1,2,0,0,0,-2,-2
29497593881,-2,-4,-4,-3,-3,-2,0,0
29497593881,3,5,0,1,-1,1,2,0
29497607958,-1,-1,0,-1,0,-2,-2,-2
29497607958,0,-1,1,0,0,0,0,1
29497608745,-2,-2,-3,-1,-1,0,-3,-2
29497608745,0,-2,-4,-2,-3,-2,-2,-1
29497630619,1,-2,-5,-1,-2,-2,-1,0
29497630619,-2,4,4,-1,-1,-1,0,0
29497631273,1,0,-1,1,3,3,1,-1
29497631273,-2,-1,-2,-3,0,0,1,-3
29497653151,0,-1,1,-2,-2,-2,-1,1
29497653151,-3,-3,-5,-1,-2,-1,-5,-3
29497653825,-2,-4,-3,-2,-1,0,-1,-1
29497653825,0,2,2,1,0,-1,0,0
29497668073,0,-2,-3,1,1,0,3,-1
29497668073,-2,-2,-2,0,-3,-1,0,-2
29497668772,1,2,3,0,-2,-1,0,0
29497668772,0,-2,-1,-1,-1,0,0,-1
29497690655,-1,-2,-2,-2,-3,-2,-3,-1
29497690655,0,-1,1,-1,0,1,-1,-1
29497691322,-1,1,1,0,-2,-1,-3,0
29497691322,-4,-2,-1,-1,0,-2,1,-2
29497713221,-1,-1,0,-2,0,-1,-1,0
29497713221,-1,0,-2,-1,0,-2,-3,-1
29497713806,0,-1,-3,-4,-5,-3,-1,-1
29497713806,-1,-5,-5,-1,0,0,-1,1
29497728149,0,0,0,-1,-1,1,-2,0
29497728149,-3,-2,-4,-1,-2,0,0,-1
29497728846,-1,-1,-3,-3,-1,-1,-2,0
29497728846,-1,1,-1,-1,-4,-2,-1,0
29497750582,-1,-1,1,-1,-1,0,0,-1
29497750582,1,-2,1,1,0,-2,-2,-1
29497751319,-3,-3,-3,-1,-1,-4,-1,-3
29497751319,-2,-1,-2,-2,-2,-1,-3,-1
29497773209,1,2,6,1,2,1,-1,-1
29497773209,-4,-6,-5,-2,-2,-3,-1,-2
29497773775,2,11,13,3,2,2,3,1
29497773775,-2,-2,-2,-4,-2,-2,-3,0
29497788150,-2,0,-2,-1,-1,-1,1,-2
29497788150,-1,-3,-2,-2,-1,1,-1,-1
29497788824,-3,-5,-4,0,0,-1,0,0
29497788824,2,0,1,0,1,-2,0,-2
29497810592,-2,-1,0,1,-2,-2,-2,-1
29497810592,-1,1,-1,-1,0,0,-1,-1
29497811323,-2,-4,-4,-1,-3,-2,-2,-1
29497811323,0,7,11,2,0,0,0,-2
29497833125,0,-2,-4,-2,-1,0,-3,1
29497833125,-2,-4,-3,-1,-1,-1,-2,1
29497833822,0,-2,-2,-2,-2,-1,-2,0
29497833822,-2,-4,-4,-1,-3,0,-2,-1
29497848095,-1,-1,-2,-2,-1,-3,-2,-1
29497848095,-1,1,1,-1,-1,-2,1,1
29497848784,-2,-3,-4,0,-1,-1,-3,-2
29497848784,-1,-1,-1,-2,-1,-2,-2,-1
29497870626,-2,-5,-3,-2,-2,-1,-2,-2
29497870626,1,4,2,0,-1,0,0,0
29497871313,1,-1,-1,-1,0,0,1,0
29497871313,-2,1,-1,0,1,-1,1,0
29497893935,-2,-2,1,-1,-2,-2,0,-3
29497893935,-2,-3,-2,-2,1,-1,0,-3
29497894514,-1,-1,-2,-2,-2,-2,0,-2
29497894514,-1,-3,-4,-2,-1,-1,0,0
29497908094,1,5,5,0,0,0,2,0
29497908094,-1,0,-1,-3,-1,0,-1,-1
29497908791,-4,-3,-1,-2,0,0,-2,-2
29497908791,2,3,2,2,0,0,-1,2
29497930599,-4,-3,-4,-1,-1,-1,-1,-3
29497930599,0,0,1,-2,-1,-2,0,1
29497931275,-1,-1,-2,-1,-1,-1,0,0
29497931275,-1,-3,-2,-2,-2,-2,0,-1
29497953914,0,-2,-2,-1,0,0,0,0
29497953914,-3,-2,-4,-1,-2,-1,0,-1
29497954493,-4,-8,-7,-3,0,-4,-3,-3
29497954493,-1,-4,-5,-2,-3,-2,-1,-1
29497968121,0,2,-1,-3,-2,-1,-1,0
29497968121,1,-1,0,-1,-1,0,0,0
29497968829,0,-2,-1,-2,0,-1,1,-1
29497968829,-2,-4,-4,-3,0,-1,-2,-1
29497990613,0,-2,-3,-1,-1,-1,0,-1
29497990613,-2,0,-1,0,0,-1,-1,-1
29497991318,-1,-2,-1,0,0,2,0,0
29497991318,0,0,2,0,0,-2,0,-3
29498014007,-1,-1,0,-2,0,-2,1,0
29498014007,-1,1,3,-1,0,-1,-1,0
29498014525,0,-2,-3,-1,1,-2,-1,-2
29498014525,1,3,4,2,0,0,0,2
29498028116,-1,-1,-2,-2,0,-1,-1,-2
29498028116,-1,-2,-1,0,-2,0,0,-1
29498028796,-2,-1,-1,0,-3,0,-1,-1
29498028796,-1,1,0,-1,1,0,0,-2
29498050598,-3,-1,-2,0,0,-1,-2,0
29498050598,0,1,0,0,1,-1,0,-2
29498051276,0,1,0,-2,-3,0,0,-1
29498051276,-2,-2,-4,-2,1,2,-1,-2
29498073718,1,-4,-2,-1,-2,0,1,-1
29498073718,-1,-1,-2,-1,-3,-2,-3,-2
29498074459,-2,-3,-2,0,-1,-1,-2,0
29498074459,-2,-2,-2,-2,-1,-1,-2,1
29498088087,0,-2,1,1,-2,-2,-1,0
29498088087,1,-2,-1,-1,-1,0,-1,-2
29498088816,-1,0,1,-2,-1,0,-2,-1
29498088816,0,-1,0,1,-1,-1,1,1
29498110655,-2,-1,-4,-2,-1,-2,-2,-1
29498110655,1,3,4,-1,-1,-2,0,-2
29498111318,1,1,0,-2,-2,0,-1,0
29498111318,-1,-1,-1,-2,0,-3,-1,-2
29498133781,-2,-2,-3,-1,-1,-3,-1,0
29498133781,-1,-3,-4,-1,-1,0,-1,0
29498134466,1,-1,2,-2,-1,-2,-2,-2
29498134466,1,1,-3,0,-1,1,1,0
29498147464,0,-1,-2,0,0,0,1,-1
29498147464,-1,-2,-1,1,1,0,-1,-2
29498155668,1,0,-1,2,-1,-1,-1,-1
29498155668,-2,-4,0,-2,-1,0,-1,-1
29498170703,-3,-2,0,-1,-1,-2,-2,-1
29498170703,0,-5,-6,-2,-2,0,-2,-2
29498171264,0,3,2,-1,-2,1,0,0
29498171264,0,-2,-2,-3,-2,-2,-3,-1
29498193967,-1,0,2,0,0,0,0,-1
29498193967,0,-2,-3,-3,-3,-2,-2,1
29498194472,-4,-1,-3,0,-1,0,-2,-1
29498194472,-2,-1,-1,-2,-2,-1,-1,-1
29498207476,1,0,4,-3,-1,0,-1,-1
29498207476,-1,-2,1,0,-1,-1,1,0
29498215647,0,0,0,-1,0,-2,-1,0
29498215647,-1,-1,-1,0,1,-1,-1,-3
29498230631,-2,-1,-3,-3,-3,-2,0,-2
29498230631,0,0,-1,-1,-1,-1,0,1
29498231322,-1,-2,-1,-3,-1,-1,-1,-1
29498231322,-1,3,3,-2,-2,1,0,0
29498253879,-2,-3,-2,-2,-2,-1,0,-2
29498253879,1,1,1,0,3,0,-1,0
29498254472,-1,-2,-2,0,0,-1,-2,-1
29498254472,-2,0,-3,-2,-3,-1,-1,-1
29498267455,-3,0,-1,-1,0,-1,-2,-1
29498267455,-3,-2,-1,-1,-1,0,-1,-1
29498275673,-2,-4,-6,0,0,-2,-2,-2
29498275673,2,2,1,1,1,-1,1,1
29498290514,1,1,-1,-2,-2,0,-1,0
29498290514,-2,-3,-2,-1,0,-2,0,-2
29498291336,0,-3,-3,-2,-1,-1,3,-1
29498291336,-2,0,-1,-1,-3,-1,-1,-1
29498313859,0,0,-1,0,1,1,-2,0
29498313859,-2,0,0,-1,-2,-1,0,0
29498314516,-1,-2,1,-1,2,1,0,-1
29498314516,-3,-4,-5,-1,0,0,-1,0
29498327425,0,0,0,-2,-2,1,-1,0
29498327425,-2,0,0,0,0,-2,-1,-1
29498335692,0,1,2,1,-1,-1,0,-1
29498335692,0,-2,-2,-1,0,-1,-1,-1
29498350626,0,-3,-2,1,-1,-1,-1,-1
29498350626,-2,-1,0,-1,1,1,-2,-2
29498351321,-1,2,0,-1,-1,-1,-1,0
29498351321,-2,-1,-1,-3,0,0,0,-1
29498373808,0,-1,-1,-1,-3,-2,0,0
29498373808,0,-2,-3,-2,-2,-1,0,0
29498374473,-1,0,-1,0,-1,0,0,0
29498374473,-3,-4,-3,-1,0,-3,-2,-2
29498387450,0,3,2,0,-1,0,0,0
29498387450,0,-1,-2,0,-2,0,0,1
29498395691,0,-1,-3,-2,0,-1,-1,-1
29498395691,-1,-2,-2,0,0,-2,0,1
29498410601,-3,-6,-4,-1,-1,-2,-2,-1
29498410601,2,4,2,1,-2,-2,0,-2
29498411291,0,0,0,0,0,-1,-1,0
29498411291,0,-2,1,0,-3,0,0,-2
29498433835,-5,-9,-6,-2,0,-2,-4,-3
29498433835,8,8,5,3,3,2,2,4
29498434490,-1,4,5,-2,-1,-3,1,0
29498434490,1,2,2,-2,0,-1,0,0
