29238888333,0,1,-3,-4,-3,0,0,-1
29238888333,-3,-5,-3,4,1,0,-4,-2
29238894630,2,5,10,4,1,2,-1,0
29238894630,0,2,-1,0,0,0,0,-2
29238895438,-1,-1,0,0,-1,-3,-1,-2
29238895438,-1,-3,-2,-3,-2,-1,-1,0
29238896230,-4,-2,-3,-2,0,-1,-2,0
29238896230,0,-3,-6,-1,-1,1,-1,0
29238907646,-4,5,9,3,3,1,0,0
29238907646,2,1,-2,0,1,-2,0,1
29238915733,0,2,2,-1,1,1,-1,-1
29238915733,-4,-2,-1,-2,0,0,-2,-1
29238921923,-2,-4,-5,-3,-1,0,-1,-1
29238921923,-1,0,1,-1,0,-1,1,0
29238936952,-1,0,-2,-3,-1,-2,-1,-2
29238936952,0,-2,1,-1,-2,0,3,3
29238945629,-1,-3,-2,0,3,0,-2,-2
29238945629,0,-1,1,-1,-3,0,-1,-2
29238960661,-1,-4,-6,-2,-2,-3,-1,-1
29238960661,-3,-3,-3,-5,-3,-1,-3,-1
29238967751,-1,-5,-6,-1,-2,0,-2,-1
29238967751,1,7,12,3,0,1,2,1
29238981793,-2,-1,-1,1,0,-3,-3,-1
29238981793,-2,-2,0,-2,-1,-1,-1,-2
29239022611,0,4,3,0,1,1,-2,-3
29239022611,-2,-5,-4,-2,-2,-1,-1,1
29239023481,-1,-3,-2,0,0,-1,-3,-1
29239023481,-3,-5,-5,-3,-4,-3,-1,-3
29239024216,0,2,5,-1,0,-1,-1,0
29239024216,-1,-3,-2,-1,0,-2,-1,-1
29239027451,3,3,-1,3,2,3,0,0
29239027451,-9,-4,-6,-1,-1,-1,1,-3
29239034176,3,-4,0,1,-2,-2,0,2
29239034176,-1,-2,-2,1,-1,-1,-1,-1
29239041711,1,4,7,1,-2,0,-2,-2
29239041711,3,5,7,1,2,2,0,2
29239050551,-2,-3,-3,-3,-3,0,1,-1
29239050551,-2,3,3,1,2,0,-1,-1
29239064180,-2,-5,-4,-3,-1,-1,-1,0
29239064180,-1,-2,-2,0,1,1,0,-1
29239073125,-3,-2,-1,1,2,-3,-2,0
29239073125,2,-2,-5,-4,-2,-2,0,0
29239095613,-2,1,-1,-4,-2,-2,0,-1
29239095613,3,3,4,1,0,-2,-3,0
29239097076,0,-4,-2,0,2,0,0,0
29239097076,-1,1,-2,0,1,-1,0,-2
29239109957,-3,-1,-2,-2,-2,-3,0,-2
29239109957,0,0,0,-1,0,-1,1,0
29239116861,-2,1,-3,-2,-1,-1,-2,-1
29239116861,0,0,2,-2,-3,-1,-2,1
29239133145,1,0,2,0,2,1,0,-1
29239133145,-7,-9,-8,-4,-2,-3,-4,-3
29239134651,1,5,5,2,-2,-1,0,0
29239134651,-2,-5,-2,1,1,-3,-6,-4
29239155482,-3,-6,-8,-2,-2,-3,-3,-3
29239155482,0,3,5,0,-2,-2,-2,-2
29239157081,-1,-2,-2,-2,0,-2,-3,0
29239157081,-8,0,1,-3,-4,-3,0,-2
29239169920,5,-5,-5,-1,0,-1,2,2
29239169920,1,0,-4,-2,-1,-1,-4,-1
29239176746,-2,-2,-5,-2,0,-1,-2,-4
29239176746,-1,-1,-1,-1,-1,-1,0,-3
29239193164,-7,-5,-3,-1,1,0,-1,-2
29239193164,-1,-1,1,0,-4,0,1,-2
29239194576,2,2,0,0,-2,-2,1,1
29239194576,0,-2,-2,-3,-2,-1,0,0
29239215511,-2,-1,-1,0,-2,-3,0,-1
29239215511,2,0,0,-1,0,-3,-2,-2
29239217102,-3,-4,-4,-3,-4,-2,-4,-3
29239217102,-2,-3,-1,0,0,0,0,-2
29239229810,-1,-2,0,-1,-3,-1,-2,-2
29239229810,-2,-2,-3,0,-2,-2,-2,0
29239236588,-3,-4,-2,-2,-2,-2,-3,-4
29239236588,1,1,0,-2,-1,0,-1,1
29239253030,-4,0,1,-1,-2,-1,-2,-1
29239253030,-1,-6,-7,-3,0,1,-1,-1
29239254558,2,5,8,4,2,1,0,2
29239254558,1,0,0,0,-1,0,1,-1
29239275613,0,0,2,-2,0,-1,-1,-2
29239275613,0,-1,-2,-3,0,-1,-1,-3
29239277111,-3,-4,-6,-5,-1,-1,0,-2
29239277111,-1,1,4,-2,-4,-1,-3,0
29239289949,1,1,1,-2,-1,-1,-3,0
29239289949,0,-1,-3,-1,-1,-1,-1,-1
29239296762,-4,-5,-6,-1,-3,-1,-2,0
29239296762,3,10,8,2,-1,-1,-1,2
29239313077,-3,-3,-3,-2,-5,-4,-2,0
29239313077,-1,2,5,1,0,-2,-1,3
29239314612,-3,-3,-1,-2,0,0,-1,-4
29239314612,-2,-6,-9,-3,-2,-1,-3,-2
29239335578,2,3,4,2,-1,0,-2,1
29239335578,-1,-3,-3,1,-2,-1,-2,-2
29239337053,2,4,4,-1,-1,0,-1,-1
29239337053,-1,-3,-2,-2,0,-2,-1,-1
29239349215,0,0,-1,-1,-3,-2,-1,-2
29239349215,-2,-1,-1,-1,0,-2,1,1
29239358161,-4,-5,-6,-1,-1,0,2,-1
29239358161,-2,-4,-6,-8,-5,-4,-4,-3
29239373153,-2,2,7,7,3,1,3,0
29239373153,1,2,-1,-2,-2,0,1,0
29239374598,1,2,4,0,1,-1,1,0
29239374598,-3,-2,-4,-1,-1,0,0,-2
29239395578,0,0,1,3,3,-1,-1,-2
29239395578,-1,-2,1,-4,-2,-2,1,1
29239397081,0,-3,-6,-3,-2,-1,0,1
29239397081,1,1,2,1,-1,0,-1,-2
29239409244,-2,-3,-7,-6,-2,-2,-1,-2
29239409244,-2,-1,-2,-1,-2,0,-2,-2
29239418111,-4,-6,-3,-3,-2,-3,-4,-3
29239418111,-3,-5,-7,1,2,1,1,-1
29239433047,-2,3,1,-1,-1,-4,-3,-4
29239433047,6,2,3,3,-3,4,3,4
29239434569,-1,1,-3,-7,-5,-3,-2,0
29239434569,-1,-2,-6,1,0,1,2,-1
29239455609,3,8,12,4,3,-1,-2,2
29239455609,-5,-1,4,1,1,-2,-2,-2
29239457076,3,3,1,2,0,1,-2,1
29239457076,-4,-1,-4,-5,-3,0,0,-1
29239469275,-5,-13,-12,-6,-3,-1,-2,-2
29239469275,5,11,10,4,4,1,0,0
29239478111,-3,-1,-1,1,-1,-2,-1,-2
29239478111,-2,-2,0,-3,0,-3,-1,-2
29239493052,-1,-3,-6,-2,-3,-1,1,1
29239493052,0,0,3,-3,-2,-2,-2,-2
29239494629,-1,-3,0,0,-1,-2,0,-2
29239494629,1,2,5,2,0,-1,1,0
29239515597,-3,-4,-10,-4,-2,0,-1,-1
29239515597,-3,-3,0,3,0,-1,-2,-2
29239517099,-1,0,-6,-2,-1,-3,-1,-1
29239517099,-2,-6,-3,-1,0,0,-4,1
29239529216,-2,3,2,-5,-5,-4,-4,-1
29239529216,0,-3,-10,-4,-2,-2,0,0
29239538137,-2,-1,3,-1,-1,1,0,0
29239538137,-1,-3,-3,-3,-1,-1,-3,-2
29239553060,3,1,-2,2,4,1,0,-2
29239553060,-3,-3,-1,-4,-4,-2,-1,-1
29239554575,-2,-3,-4,-6,-5,-4,-1,-3
29239554575,0,0,3,-1,-3,-1,3,-1
29239575689,-2,-6,-2,-1,-1,0,0,0
29239575689,-2,0,-4,1,-2,-2,-1,-2
29239577099,-3,-6,-4,3,4,1,-1,1
29239577099,-1,2,4,-2,-2,-2,-3,-1
29239589698,0,1,5,-3,-3,0,-3,-1
29239589698,0,-6,-8,-4,0,-1,-2,-1
29239598135,0,-3,-5,-4,-1,-1,0,0
29239598135,0,-1,-3,-1,0,0,0,1
29239613073,1,2,7,7,3,0,0,-1
29239613073,-3,-4,-4,-3,0,-2,-3,-3
29239614592,1,-1,3,-2,1,3,-1,0
29239614592,0,0,0,1,-3,-2,-1,-2
29239635608,-2,-5,-4,-6,-5,-3,0,-1
29239635608,-3,0,-2,-3,-2,-1,-2,-1
29239637061,3,1,1,1,-5,-3,-1,-1
29239637061,-2,1,3,1,0,-1,-1,0
29239649155,-2,-3,-6,-6,-2,-2,-2,-2
29239649155,-1,1,4,3,0,-1,0,-2
29239658130,-2,-3,-1,0,2,1,-1,-2
29239658130,0,2,1,-1,1,-1,-3,-1
29239673098,-1,-5,-7,-1,-2,-2,-2,-1
29239673098,-2,-5,-1,-3,-3,-2,0,1
29239674607,2,5,0,1,0,2,1,0
29239674607,-2,-2,-1,3,-2,0,0,-3
29239695604,0,2,3,1,3,2,1,-3
29239695604,-1,-1,0,0,-1,-3,-2,-2
29239697101,-5,-4,-3,-4,-2,-2,-2,-2
29239697101,-1,-2,0,-1,-4,-1,-1,2
29239709149,2,-1,-6,-1,-1,-1,1,0
29239709149,1,5,10,4,4,1,-1,0
29239718108,0,2,3,0,0,-1,-3,0
29239718108,-1,-3,-7,-6,-3,-3,-2,1
29239732399,3,7,13,3,-3,-1,0,1
29239732399,-3,-8,-10,-5,-3,-2,-3,-1
29239739353,-1,0,3,1,1,-1,-2,-1
29239739353,1,1,-3,3,3,1,1,-1
29239755660,-4,-7,-10,-8,-1,-3,-3,-3
29239755660,3,5,5,-1,-4,0,2,0
29239757119,-2,-1,2,-1,-4,-2,-1,-2
29239757119,-1,-4,0,-1,0,-1,-2,-3
29239778161,-1,-4,-8,-3,-2,-2,0,-2
29239778161,-2,0,0,0,2,-1,-1,-3
29239779577,-2,-3,-2,0,-1,-1,-3,0
29239779577,-2,-1,-1,-5,-5,-2,-1,-1
29239792399,-2,-1,1,2,0,2,-2,-1
29239792399,0,-3,-3,0,0,0,-3,1
29239799192,3,3,1,-2,-2,-1,1,0
29239799192,-1,-2,0,-2,-1,-2,-3,-2
29239815568,-2,-1,-3,0,4,2,-1,-1
29239815568,-3,0,-7,-6,-2,-2,-1,-4
29239817068,-1,-5,3,3,1,1,2,1
29239817068,-2,-3,3,-1,-2,0,-1,1
29239837993,-5,-5,0,2,-1,-1,-3,-1
29239837993,0,-2,-3,1,2,0,-1,-1
29239839583,-2,-1,-6,-5,-4,-2,-2,-1
29239839583,1,3,3,0,-2,1,1,1
29239852419,-1,-2,-1,1,0,-2,-1,0
29239852419,-2,-2,-6,-4,-5,-4,-3,-1
29239859202,-2,1,1,3,2,0,0,0
29239859202,-1,-1,-4,-1,1,-1,-3,-3
29239875607,0,2,-2,-2,-1,-2,-2,-1
29239875607,-2,0,2,-1,-3,-3,-2,-3
29239877107,2,1,-2,-3,-4,-3,-2,-2
29239877107,-3,-4,-5,2,3,-1,-2,-2
29239898069,0,-2,-1,-2,-3,-2,-1,-1
29239898069,-2,-2,-1,3,1,0,1,-2
29239899601,-3,-7,-6,-4,-6,-3,0,-1
29239899601,1,7,7,0,-1,-3,-1,2
29239912489,-2,-2,3,-1,-1,0,-1,-1
29239912489,0,-6,-9,-3,1,-1,2,0
29239919313,1,4,12,6,5,2,2,-1
29239919313,-1,-3,-5,0,-3,0,0,-3
29239935341,0,-1,-1,-3,-4,-3,0,1
29239935341,2,9,15,5,0,2,0,1
29239941746,-1,-6,-9,-3,-2,-1,1,-1
29239941746,-3,-1,1,1,4,1,-1,-3
29239958106,-1,0,-2,-1,-1,0,0,1
29239958106,-4,-4,-8,-5,1,0,-1,-2
29239959576,-1,0,-1,-3,-2,-2,-5,-3
29239959576,2,1,1,-3,-5,-2,1,0
29239972394,-4,-10,-8,-3,-2,-2,-2,-2
29239972394,2,3,5,-2,0,2,1,3
29239979271,-2,7,10,4,1,0,-1,-2
29239979271,-3,-5,-5,-2,-1,1,-2,-4
29239994291,3,6,3,1,-3,-1,2,3
29239994291,-2,-3,-3,-4,-5,-3,-2,-1
29240003087,0,-4,-8,-9,-4,-4,-2,-3
29240003087,-5,-6,2,7,5,2,-2,-3
29240018035,2,-1,-2,1,6,1,-1,0
29240018035,-2,-4,-5,-1,-1,-1,-1,-1
29240019628,0,-1,-1,-4,-2,-1,0,1
29240019628,-2,-1,-1,-2,-1,-4,-1,-1
29240040549,-3,-4,-5,-2,-7,-2,1,-3
29240040549,-2,-2,-4,0,2,0,1,-2
29240042088,1,3,-3,1,3,-1,-5,-4
29240042088,4,1,0,0,3,1,0,4
29240054138,-2,1,2,3,0,-2,-3,-2
29240054138,0,0,1,-6,-13,-4,2,0
29240063081,-7,-6,-6,-5,-1,-1,-2,-6
29240063081,-5,-7,-10,-7,-6,-2,-4,-2
29240078135,0,2,4,5,4,2,2,1
29240078135,-3,-1,-5,-1,3,0,-5,-8
29240079651,2,2,4,4,-1,0,2,5
29240079651,1,-2,-2,-1,-4,-4,-1,-1
29240100635,-4,0,-1,-14,-11,-6,-5,-4
29240100635,1,-1,4,11,15,6,5,5
29240102330,4,5,11,3,0,2,4,7
29240102330,0,-1,-1,2,3,-1,-2,-3
29240114173,-7,-8,-9,-7,-4,-4,-2,-1
29240114173,5,9,8,-3,-8,-3,0,3
29240123225,-2,-8,-13,-4,0,0,0,0
29240123225,-8,-6,-2,-2,-8,-6,-4,-6
29240137839,-1,-1,-4,-5,-1,-2,-6,-5
29240137839,4,-1,2,5,-3,-4,0,4
29240144220,4,2,-1,8,18,13,10,7
29240144220,0,0,-2,-4,-4,-4,0,2
29240160435,-5,-3,-4,-6,0,0,-1,-4
29240160435,-12,-12,-7,-7,-7,-6,-9,-12
29240162027,4,3,3,0,-5,-4,-1,0
29240162027,2,-1,2,4,4,4,3,0
29240174110,6,13,15,9,7,2,3,1
29240174110,-3,-7,-11,-11,-6,-6,-5,-5
29240183089,-1,-3,-4,-2,3,1,-2,0
29240183089,6,6,8,6,10,4,1,7
29240198004,-1,1,7,3,-4,-2,0,-2
29240198004,2,0,-4,0,0,-3,-2,3
29240204241,-9,-10,-10,-7,-9,-7,-5,-4
29240204241,-7,-2,-3,-7,-8,-8,-8,-10
29240220560,3,-1,-5,3,4,4,7,7
29240220560,13,4,6,7,7,8,8,20
29240222111,2,-1,-4,-6,-8,-5,-1,1
29240222111,-1,-1,-1,-2,0,3,4,-2
29240234230,-11,-5,-2,-4,-5,-4,-5,-6
29240234230,-6,1,-2,-4,1,-2,-6,-10
29240243138,-1,1,13,12,2,-1,-8,-11
29240243138,-14,-7,-3,-6,-4,2,9,4
29240257423,17,12,10,8,5,7,3,1
29240257423,7,4,-4,-3,0,-1,0,6
29240264126,-6,-5,-4,-4,-1,-5,-7,-9
29240264126,1,2,3,2,-1,-2,-2,0
29240280586,-6,-6,-10,-10,-4,-1,-2,-6
29240280586,-10,-5,4,1,-3,-1,-2,-10
29240282096,-7,-3,-7,-4,-3,-3,-1,-2
29240282096,-2,-3,-1,1,-2,-1,-3,-5
29240302782,14,7,5,5,7,6,8,20
29240302782,-5,-4,0,-1,-4,-4,-5,-6
29240309194,-1,-1,-8,-7,-7,-6,-9,-7
29240309194,20,10,9,8,8,9,10,15
29240317395,7,0,-3,4,1,1,1,8
29240317395,-5,-3,0,-2,1,-2,0,2
29240324253,-3,0,-9,-6,-3,-4,-2,-2
29240324253,-6,3,-3,-4,-1,-5,-8,-9
29240340476,-8,-9,-10,-5,-4,-5,-8,-7
29240340476,2,4,9,1,-1,1,4,-2
29240342087,-7,-7,-6,-2,2,-1,-4,-6
29240342087,-1,-5,-5,0,2,3,6,6
29240363042,-6,-4,-6,-9,-13,-13,-14,-8
29240363042,4,-2,-7,2,5,3,2,0
29240364583,1,5,10,-3,-7,0,7,7
29240364583,4,-2,0,-6,-2,-2,0,5
29240377375,-10,-4,-8,-2,0,1,-1,-9
29240377375,-3,-3,-4,-6,-8,-6,-10,-7
29240384165,3,1,9,13,13,7,2,-9
29240384165,-1,-6,-8,0,-4,2,8,7
29240400646,-2,1,-3,-9,-8,-8,-6,-4
29240400646,1,1,3,6,2,-1,-1,2
29240402066,-5,-6,-5,-10,-11,-4,-1,0
29240402066,-4,-3,4,10,8,1,-4,-8
29240423076,-6,-11,-5,1,-1,1,2,-4
29240423076,2,7,4,-3,3,2,-4,1
29240424637,0,0,-4,-4,-2,-2,3,2
29240424637,-10,-5,-5,-13,-10,-5,-8,-12
29240445564,9,5,7,9,1,-1,-1,2
29240445564,-4,-8,-5,7,4,2,8,1
29240446273,-1,-2,1,-5,-13,-5,3,4
29240446273,7,12,4,3,1,-3,-7,1
29240459866,-5,-3,0,7,19,6,0,-1
29240459866,-6,-8,-6,-3,-2,1,4,-1
29240460544,3,0,-6,-6,1,-3,-3,0
29240460544,-4,-4,-3,3,3,-3,-1,-1
29240482364,-5,-6,2,-4,-10,-3,3,1
29240482364,2,2,1,0,-13,-10,-7,-2
29240483049,0,-2,-5,-1,9,4,-2,1
29240483049,0,0,3,-14,-18,-11,-11,-5
29240505569,6,10,4,12,22,15,8,4
29240505569,-5,-8,-12,-26,-23,-8,0,-3
29240506245,-7,-8,-6,7,-21,-20,-6,-6
29240506245,0,-6,-3,-21,-2,14,16,7
29240519863,-4,-10,10,34,53,37,17,5
29240519863,0,7,10,17,8,-10,-13,-5
29240520573,10,15,16,10,26,29,6,5
29240520573,-7,-11,-7,-8,-19,-12,4,-2
29240542235,5,10,10,3,-7,-13,-10,-2
29240542235,-5,-9,-11,-2,-12,-6,3,0
29240543048,0,-4,4,15,29,12,7,4
29240543048,-5,1,-6,6,0,-5,-10,-8
29240556722,3,6,-6,-28,-29,-11,-12,-5
29240556722,-16,-29,-15,11,16,12,18,0
29240564936,-2,-2,-1,-16,-35,-17,-3,-3
29240564936,11,19,12,34,39,13,-10,2
29240579912,0,5,0,-33,-36,-19,-7,-1
29240579912,-6,-4,-10,-5,4,-1,-5,-6
29240580561,5,0,0,6,9,7,-1,7
29240580561,0,-4,-7,-9,-13,-13,-7,-6
29240602263,-11,-23,-35,-29,-18,-5,9,-1
29240602263,9,18,28,8,-3,-4,-5,1
29240603032,7,14,34,42,45,23,6,3
29240603032,0,-3,-13,-29,-25,-9,1,1
29240616691,-1,-6,-9,-10,-1,-7,-3,0
29240616691,-17,-22,-19,-45,-39,-12,-1,-10
29240624943,14,27,28,52,49,21,-6,4
29240624943,-10,-15,-16,-6,-2,3,11,0
29240639874,7,8,1,3,-9,-5,-5,-1
29240639874,-3,-2,7,9,5,-2,-4,0
29240640561,-13,-21,-17,-17,-20,-11,-12,-8
29240640561,1,-2,-11,-22,-18,-12,-9,1
29240662249,0,2,5,16,16,-2,-8,-3
29240662249,6,5,-21,-35,-28,-16,-11,1
29240663015,-6,-8,-2,19,6,0,3,-3
29240663015,-5,-5,-4,-18,-18,-6,-1,-2
29240676626,5,6,-18,-28,-15,-10,-16,0
29240676626,9,19,48,63,46,20,8,6
29240684854,-2,-1,-12,-36,-27,-11,-8,-4
29240684854,-1,-1,-1,3,3,4,1,-2
29240699896,-9,-12,-4,-4,-15,-8,4,-5
29240699896,1,3,3,17,15,9,0,1
29240700546,-9,-18,-49,-56,-30,-16,-11,-8
29240700546,2,4,35,47,18,12,10,4
29240722316,-5,-4,4,12,6,7,9,-1
29240722316,3,0,-24,-48,-24,-7,0,3
29240723022,8,6,15,15,3,-5,2,-1
29240723022,-2,1,-9,-10,3,0,-1,0
29240736732,-4,-7,8,33,23,10,1,-6
29240736732,-10,-16,-8,-4,5,7,8,4
29240744909,6,3,-25,-29,-20,-16,-5,-5
29240744909,11,13,30,30,13,6,4,7
29240759838,7,7,14,11,0,1,7,9
29240759838,4,11,5,3,6,-3,-9,-3
29240760546,-13,-9,-1,-1,-3,-5,1,-3
29240760546,0,12,-4,-1,11,7,-3,-19
29240782260,15,-13,-1,-1,-1,2,6,23
29240782260,18,16,3,4,-3,4,7,4
29240783059,-28,-38,-30,-25,-19,-5,8,-7
29240783059,-7,4,24,13,12,2,-2,4
29240796668,-32,3,14,11,6,3,-4,-22
29240796668,27,-3,-18,-12,-1,-3,-2,4
29240804931,-11,-1,8,-4,-11,-6,3,2
29240804931,-25,-15,-52,-42,-19,-12,-3,-12
29240819817,35,-5,22,23,7,3,3,20
29240819817,-27,-10,4,11,13,5,-2,-9
29240820547,-9,25,6,-4,-8,-10,-16,-36
29240820547,32,-15,-22,-22,-11,-6,-2,24
29240842361,1,10,-12,-23,-17,-9,0,9
29240842361,-19,-14,-28,-14,-1,4,0,-5
29240843089,21,-5,37,23,-1,1,5,24
29240843089,-8,-3,1,21,17,5,-2,-12
29240856809,-13,1,-18,-27,-12,-9,-13,-17
29240856809,2,8,36,33,15,8,2,0
29240864897,-14,9,-8,-14,-2,0,-2,-8
29240864897,-10,-13,-7,2,4,-2,-3,-2
29240879799,45,21,20,17,6,2,3,14
29240879799,-42,-16,-15,-17,-11,-9,-6,-21
29240880589,21,-5,-15,-21,-20,-9,-2,17
29240880589,9,1,25,31,20,8,-10,2
29240903689,-27,-10,-27,-19,2,2,-5,-11
29240903689,27,12,4,-1,-3,-2,-7,10
29240904522,-13,-1,-2,6,3,6,3,-1
29240904522,-4,3,3,-8,-11,-8,-8,-12
29240916735,22,-5,-33,-19,-3,-1,-3,18
29240916735,-26,-7,6,3,-11,-10,-5,-21
29240924918,23,14,24,29,21,13,-1,15
29240924918,-39,-4,-5,-9,-12,-7,-8,-32
29240939940,39,10,0,-7,3,5,5,24
29240939940,7,-6,10,28,4,1,2,16
29240940566,-3,3,1,-11,2,1,-1,-3
29240940566,-2,-8,-15,-15,-4,1,2,-5
29240962446,-46,-9,-9,10,1,-1,2,-26
29240962446,30,7,7,-2,-13,-12,-8,9
29240963067,-23,-14,-12,-13,-4,-3,-3,-14
29240963067,4,-8,-25,-21,-6,2,0,7
29240976630,12,17,37,21,-1,-4,-2,3
29240976630,-26,-5,-7,-23,-14,-7,-6,-12
29240984828,45,11,-1,33,29,9,5,16
29240984828,-8,0,2,-7,-8,-3,3,4
29240999865,-20,-19,-8,-7,-5,-4,-2,-11
29240999865,12,16,9,12,11,8,5,1
29241000562,-21,-19,-44,-42,-22,-10,-4,-9
29241000562,20,23,32,20,7,0,1,1
29241022282,-12,4,27,28,12,7,3,3
29241022282,21,13,20,21,15,5,-1,1
29241023049,-33,-52,-102,-92,-46,-21,-12,-19
29241023049,8,20,71,50,20,8,4,9
29241036718,-14,9,-7,-6,-4,-5,-8,-19
29241036718,41,-9,-10,-15,1,3,7,26
29241044905,-1,21,48,62,24,10,10,3
29241044905,-6,-16,-38,-34,-19,-9,-3,0
29241059847,-25,-40,-85,-62,-21,-10,-12,-19
29241059847,-15,8,52,30,2,-1,-5,-7
29241060581,14,19,33,19,6,2,3,4
29241060581,-6,-26,-85,-50,-13,-5,-4,3
29241082262,-12,9,61,39,2,-3,-1,-8
29241082262,-5,-10,-50,-34,-12,-4,4,-2
29241083002,13,15,9,-1,2,2,2,5
29241083002,-2,24,78,61,22,11,6,-2
29241096727,13,2,-17,-16,-2,1,-4,1
29241096727,-6,-21,-34,-24,-6,-3,-2,1
29241104880,-11,-2,18,5,-5,-2,-5,-10
29241104880,-9,-29,-55,-45,-19,-11,-9,-6
29241119975,25,29,71,49,10,5,6,12
29241119975,-53,-19,-25,-6,1,1,-10,-29
29241120580,56,36,23,15,8,9,7,43
29241120580,-1,15,50,35,12,3,1,-2
29241142377,-2,0,-55,-37,-9,-5,-2,-11
29241142377,11,23,25,14,4,3,5,-2
29241143105,-28,-23,-8,-7,0,-1,0,-11
29241143105,13,-1,-10,0,1,2,3,11
29241156646,-12,-5,20,13,4,-2,-3,-8
29241156646,0,6,-31,-29,-15,-11,-8,-7
29241164791,1,-19,-10,0,1,2,16,10
29241164791,15,15,7,12,4,1,21,7
29241179750,-7,-4,4,10,5,3,21,-2
29241179750,10,19,42,16,13,5,25,10
29241180500,-10,-15,-13,-4,-3,-6,6,-14
29241180500,-8,-4,-6,-11,-9,-4,7,-3
29241202250,-8,-29,-56,-23,-6,-2,4,-2
29241202250,-3,-10,-9,-6,-5,-5,3,-1
29241203028,20,44,61,40,7,9,9,13
29241203028,14,18,21,11,0,-1,-7,5
29241216665,-15,-13,-15,-21,-21,-14,-24,-12
29241216665,-11,-8,-8,-9,-7,-4,-17,-2
29241224932,-18,-8,-18,-6,1,-7,-21,-13
29241224932,18,5,2,9,3,1,-11,1
29241239843,-15,-18,-4,-15,-3,-1,-13,0
29241239843,21,13,20,24,12,8,-4,12
29241240566,-13,-39,-57,-10,-7,-6,-14,2
29241240566,14,34,43,12,9,7,-4,5
29241262383,-2,-5,-3,5,5,-4,2,-3
29241262383,-6,-20,-29,-25,-11,-5,4,-2
29241263018,-8,-18,-5,-19,-31,-14,17,-11
29241263018,19,26,17,26,30,12,43,11
29241285550,-7,16,54,36,16,12,33,1
29241285550,2,2,33,27,11,3,21,3
29241286244,-8,-9,-17,-30,-11,-5,3,-8
29241286244,-43,-53,-56,-50,-37,-22,-20,-20
29241299864,14,22,0,-6,-6,-7,-16,2
29241299864,18,-25,-45,17,15,12,-6,14
29241300548,15,44,54,17,11,5,-26,5
29241300548,-12,-14,-10,-14,-10,-9,-37,-5
29241330604,-1,27,21,3,-1,1,-24,-4
29241330604,-24,-54,-77,-31,-15,-9,-28,-14
29241331268,34,80,92,59,42,26,7,21
29241331268,-8,-39,-77,-29,-8,-4,-10,-4
29241345500,24,44,81,42,12,8,6,12
29241345500,-22,-15,-12,-17,-13,-6,12,-12
29241346243,-3,-31,-75,-46,-23,-13,16,-6
29241346243,-9,5,31,3,-12,-7,30,-7
29241359877,-9,-32,-43,-27,-6,-6,9,-6
29241359877,8,25,52,40,31,14,8,6
29241360521,-7,-10,-24,-7,2,0,-50,-6
29241360521,-13,-12,5,-16,-15,-10,-70,-6
29241382434,19,8,2,7,13,11,-44,13
29241382434,1,3,-17,-16,-10,-5,-119,2
29241383093,-30,-67,-86,-29,-11,-16,-74,-21
29241383093,31,71,120,74,25,15,1,14
29241405554,4,20,20,4,-3,-2,7,-2
29241405554,-16,-17,-41,-25,-8,-4,44,-7
29241406225,-41,-57,-42,-32,-21,-17,5,-24
29241406225,9,34,22,-7,-13,-4,41,0
29241419842,-17,-26,-46,-28,-6,-8,26,-10
29241419842,11,30,87,42,1,0,46,5
29241420519,11,3,19,25,22,9,18,7
29241420519,-12,-24,-41,-20,0,5,25,-3
29241442373,0,1,21,17,9,1,-10,1
29241442373,12,4,-27,-26,-16,-9,16,2
29241443056,-10,-9,-6,-11,-11,-5,10,-4
29241443056,8,4,-10,3,6,3,16,6
29241465579,-4,-12,-26,-19,-15,-5,13,-2
29241465579,-12,0,0,-9,0,-5,-20,-7
29241466263,14,10,32,19,4,5,27,10
29241466263,-7,-22,-20,-1,1,-4,-5,-3
29241479820,11,-14,-28,2,20,9,8,9
29241479820,-6,25,69,14,0,-2,-11,-9
29241480518,-3,4,14,15,4,0,5,-5
29241480518,-11,-24,-50,-30,-7,-3,3,-7
29241502288,9,13,20,8,-2,4,-11,8
29241502288,-4,-9,-27,-14,-6,-7,-7,-3
29241503071,3,23,38,-18,-19,-4,-2,1
29241503071,-4,-29,-17,-1,-5,-6,-1,-3
29241525542,-17,-18,-1,-30,-34,-19,-11,-11
29241525542,11,2,-2,14,31,19,16,10
29241526221,-7,-16,-11,0,13,7,-13,-4
29241526221,8,25,27,-11,-18,-6,-8,1
29241539871,-9,-15,10,38,33,12,16,-3
29241539871,-1,5,18,-17,-21,-9,1,-5
29241540568,-3,1,8,-5,6,5,6,1
29241540568,-1,-22,-33,-29,-21,-9,18,2
29241562368,-8,7,40,8,12,1,-21,-10
29241562368,7,-22,-55,-30,-24,-4,17,7
29241563038,23,39,9,25,24,12,21,11
29241563038,-5,-4,-10,-18,-19,-13,-15,-5
29241585591,-1,2,21,-20,-19,-8,-15,-3
29241585591,-11,-9,28,58,42,10,-8,-7
29241586266,-9,-11,18,-26,-28,-13,-12,-5
29241586266,1,-3,2,-15,4,0,14,1
29241608023,-8,-12,-9,21,22,12,-4,-2
29241608023,32,69,54,13,4,12,11,18
29241608788,-3,-4,-5,15,4,-4,-4,-3
29241608788,1,12,-17,-25,-5,-3,-8,-4
29241622390,6,3,53,78,16,12,6,6
29241622390,12,27,6,-12,18,13,2,7
29241623060,-3,0,-21,-14,-13,-6,-7,-1
29241623060,-10,-6,-30,15,5,-1,-15,-7
29241645490,-16,-32,-121,-59,-34,-24,-11,-14
29241645490,-8,-26,-73,-7,-17,-7,66,-3
29241646217,26,61,49,70,31,17,48,14
29241646217,-7,-21,-48,-23,0,3,1,-2
29241659769,7,-5,-41,-50,-28,-8,-12,5
29241659769,3,22,49,37,17,5,-12,-1
29241660533,-6,-6,7,-11,-3,-4,-31,-1
29241660533,-3,-4,20,35,15,7,-21,1
29241682223,6,17,-3,-9,6,3,-7,7
29241682223,-13,-29,-50,-67,-61,-28,-15,-14
29241683000,-17,-29,-45,-49,-40,-22,-7,-14
29241683000,-2,-3,74,92,89,28,-48,-9
29241705542,1,-17,-11,-53,-21,-10,-22,-2
29241705542,-11,-19,-8,12,15,-3,-39,-6
29241706215,4,-4,-7,-27,-11,-5,-19,3
29241706215,-17,-24,-19,-23,-22,-12,-11,-6
29241719915,-7,-12,-25,-25,-14,-7,7,-4
29241719915,-6,-8,-43,-49,-35,-18,-20,-9
29241720541,-7,-6,11,68,50,17,-19,-4
29241720541,7,18,-15,-41,-27,-8,15,6
29241742350,9,6,-11,53,5,6,18,7
29241742350,-7,-11,-23,-13,11,1,-9,-2
29241743063,7,10,-3,-7,-8,3,-3,5
29241743063,4,8,12,2,-11,-3,7,4
29241765491,-1,-2,21,-10,-14,-5,3,-2
29241765491,0,4,27,13,1,-1,-8,2
29241766218,-11,-24,-40,-32,-18,-11,9,-9
29241766218,10,11,41,61,39,19,-2,3
29241788617,1,-1,7,-28,-24,-9,-13,-2
29241788617,-1,4,15,35,39,12,-1,0
29241790017,3,3,-6,-2,0,2,3,1
29241790017,-9,-4,-33,-35,-27,-14,-5,-3
29241802297,7,15,1,20,14,3,8,1
29241802297,4,16,16,3,-5,-1,8,2
29241803064,4,6,-12,-9,-3,1,8,2
29241803064,-4,-3,-8,5,-2,-2,4,-3
29241825523,-7,-3,-1,-1,5,-2,-12,-4
29241825523,7,0,-20,0,2,4,21,6
29241826245,0,3,4,4,-3,-1,2,-3
29241826245,1,-1,-14,-25,-17,-8,-5,0
29241839103,-2,9,28,41,34,11,-8,-2
29241839103,-5,-8,-2,-13,-16,-6,-5,-2
29241847459,-1,3,6,7,5,3,0,0
29241847459,2,-7,-35,-46,-32,-9,12,4
29241863076,8,16,35,53,31,9,9,7
29241863076,-8,-6,1,-5,-4,-3,-1,-9
29241863749,1,0,11,18,12,6,9,4
29241863749,-3,-9,-13,-13,1,1,0,-3
29241885593,-6,-9,-31,-29,-19,-7,-2,-4
29241885593,-6,-4,15,-2,-12,-7,-12,-6
29241886216,6,5,2,10,12,4,18,3
29241886216,3,7,9,6,-1,1,-3,-1
29241899162,-2,-1,5,4,7,4,-10,-2
29241899162,-10,-20,-14,-4,4,-1,-3,-6
29241907443,3,4,-2,-28,-27,-11,2,0
29241907443,1,1,10,16,-3,-2,2,-2
29241923123,1,0,-19,-11,4,1,-9,-3
29241923123,1,4,14,2,0,0,5,2
29241923696,-9,-8,18,38,25,5,-17,-9
29241923696,4,7,2,7,10,4,-2,4
29241945511,-7,-6,-24,-33,-24,-12,3,-4
29241945511,2,-3,-7,-28,-22,-7,6,5
29241946246,-4,-3,17,31,18,4,-11,-9
29241946246,0,8,19,20,14,3,-5,-4
29241959268,-9,-15,-19,-1,5,-2,-12,-7
29241959268,14,16,22,8,-6,-1,-1,6
29241967396,8,14,13,-2,-10,-1,11,6
29241967396,-8,-10,-18,-23,-22,-11,-9,-5
29241983056,-11,-11,8,7,5,-1,-4,-8
29241983056,9,9,-6,3,2,5,10,7
29241983715,-6,-10,-13,-13,-7,0,-12,-1
29241983715,1,2,9,4,-1,-3,-3,-1
29242005576,-1,2,29,0,-6,-4,4,-1
29242005576,-3,-5,7,14,20,11,-13,2
29242006260,-13,-21,-17,-26,-18,-12,2,-8
29242006260,4,10,-2,3,4,4,-20,1
29242019167,7,10,-5,-28,-31,-9,-99,4
29242019167,-8,-4,-25,5,5,1,-46,-7
29242027400,7,16,29,10,7,4,20,6
29242027400,-3,-6,9,7,4,1,78,0
29242042399,3,0,-9,2,4,2,127,-1
29242042399,-14,-24,-39,-28,-17,-9,110,-9
29242049274,6,1,21,11,7,-1,85,4
29242049274,9,27,27,8,0,4,55,4
29242065536,15,23,9,13,17,11,37,16
29242065536,-9,-6,-9,2,-5,-6,-19,-13
29242067042,-29,-48,-40,-10,-3,-7,-17,-18
29242067042,6,7,26,26,12,6,-29,4
29242079239,8,9,-5,-8,-1,0,-7,3
29242079239,2,-8,-18,-23,-16,-8,-8,7
29242088062,-4,-1,-9,-17,-13,-8,-20,-5
29242088062,1,-6,-2,27,21,13,-23,4
29242101600,-9,-7,-9,-14,-10,-3,11,-7
29242101600,3,11,18,30,17,7,48,2
29242110553,-2,-4,-9,-11,-11,-4,46,-4
29242110553,-1,-3,-13,-18,-12,-6,8,2
29242125469,-11,-19,-9,-6,-1,-5,-10,-12
29242125469,8,8,15,6,0,1,-40,2
29242127077,2,6,-6,-24,-10,-4,-38,2
29242127077,-6,-5,-3,9,3,-5,-25,-4
29242139185,-11,-14,-28,-41,-22,-11,-19,-6
29242139185,-1,-6,12,33,26,18,-16,5
29242148080,12,26,15,17,11,7,-5,8
29242148080,-4,-2,12,19,4,-2,-7,-4
29242163181,-17,-38,-40,-23,-11,-5,0,-6
29242163181,9,27,40,14,0,-4,-2,0
29242164557,2,8,-3,-18,-11,-4,-4,2
29242164557,-5,-7,-18,-17,-9,-3,-3,-9
29242185462,2,9,22,36,19,4,26,1
29242185462,-6,-9,-6,-16,-13,-6,2,-4
29242187011,4,1,-12,-4,2,1,-9,2
29242187011,-3,-6,13,30,13,1,-11,-1
29242208081,-7,-17,-40,-35,-23,-7,-1,-4
29242208081,6,15,20,21,21,5,4,6
29242209546,2,3,30,11,-1,-2,-8,-1
29242209546,-8,-11,-3,-17,-10,-8,-5,-11
29242223058,-2,-3,-10,-6,-5,-4,4,0
29242223058,-4,-5,-11,-13,-12,-6,-1,-5
29242224553,-2,4,8,-4,-4,-2,-3,0
29242224553,-4,-8,-23,-34,-16,-4,-11,0
29242245477,11,20,52,53,31,14,19,3
29242245477,-14,-20,-36,-41,-22,-11,-13,-9
29242246986,-1,3,-1,18,12,2,-23,-2
29242246986,3,-1,-9,-4,2,1,-12,0
29242268102,2,4,14,19,3,-1,-23,1
29242268102,0,0,4,-1,0,1,-5,2
29242269544,-2,-5,-11,-11,-8,-1,1,-1
29242269544,-3,-3,-4,-1,2,-2,5,1
29242283077,5,5,-8,-11,-6,-3,42,1
29242283077,0,3,10,22,13,5,12,-2
29242284527,-13,-18,-19,-14,-11,-7,-2,-9
29242284527,18,24,-2,0,2,5,-6,9
29242305595,7,12,22,10,3,4,-20,2
29242305595,-1,-3,-5,-12,-11,-3,-17,0
29242307049,-2,-1,-2,-2,0,-2,-15,1
29242307049,-7,-11,1,-1,3,0,1,-3
29242328026,0,5,8,8,2,2,-7,1
29242328026,1,2,3,-1,-5,-1,0,2
29242329527,0,-7,-7,-3,1,2,-5,-1
29242329527,-4,-3,2,0,-2,-1,-3,-3
29242342369,0,3,7,5,1,-1,-19,2
29242342369,-5,-7,-6,-8,-5,-4,-16,-4
29242349238,3,4,2,5,7,4,-7,3
29242349238,-4,-6,-4,-8,-7,-6,-15,-4
29242365428,1,2,3,3,6,2,-3,-1
29242365428,-2,-1,0,-2,-2,-1,7,-2
29242367049,7,8,-3,0,2,3,47,3
29242367049,0,2,1,2,2,2,30,-1
29242388035,-3,-5,-1,-1,-2,-4,-46,-1
29242388035,1,2,1,-3,-2,-2,-60,-1
29242389557,-1,-2,2,-1,-9,-3,1,-2
29242389557,-5,-6,-2,3,8,3,27,-1
29242402378,-2,-1,6,-2,-6,-3,83,-1
29242402378,-5,-1,7,-6,3,1,29,-4
29242409200,-3,3,3,4,2,1,34,-2
29242409200,-5,-19,-5,0,-2,-3,-55,4
29242425526,7,9,-6,1,3,4,-78,4
29242425526,-1,1,-1,-7,-10,-6,-41,3
29242427045,0,-2,-11,8,-8,-7,-92,-6
29242427045,-9,13,11,12,15,9,-22,-3
29242448104,7,-2,-3,-7,-5,-1,-43,4
29242448104,2,-4,-6,5,3,0,-24,-3
29242449549,-4,-8,-2,-15,-12,-7,92,-1
29242449549,-2,-2,5,6,-4,-6,62,-1
29242461639,-9,-7,-24,-8,-3,-1,77,-5
29242461639,2,7,-32,10,4,1,121,1
29242470585,-3,2,-17,-7,-3,0,21,0
29242470585,-1,0,-20,-23,-18,-7,-10,-1
29242485543,-4,-3,3,-4,-4,-2,-24,-4
29242485543,1,7,30,8,4,2,11,0
29242487070,2,3,12,12,38,21,18,6
29242487070,-3,-14,19,-10,-3,-5,-1,-5
29242508113,1,16,42,-3,-9,-4,-10,2
29242508113,1,-5,16,-27,-34,-17,-69,-4
29242509508,4,14,27,30,43,18,-51,3
29242509508,4,8,-19,-1,1,1,-31,3
29242521663,-5,-8,-52,2,7,2,13,-2
29242521663,-9,-3,-35,-12,-7,-5,3,-2
29242530599,-2,1,-47,-14,-24,-11,-34,-5
29242530599,2,8,-50,-3,-11,-5,-6,0
29242545548,-6,5,2,17,13,3,-18,-3
29242545548,1,-20,-24,9,22,9,3,-1
29242547065,-2,-21,-35,-10,-15,-8,1,-1
29242547065,1,-21,-31,-2,7,4,17,-1
29242568048,2,9,-28,-11,-17,-6,-5,0
29242568048,-2,0,40,3,-6,-4,-35,1
29242569568,-4,-2,-4,0,4,1,2,-2
29242569568,-4,-6,-31,-6,-4,-3,-5,-3
29242581716,4,-5,-23,5,4,2,7,2
29242581716,1,3,-66,6,0,-2,14,-2
29242590528,-2,-5,-94,-12,-8,-4,-2,1
29242590528,0,13,-119,7,2,0,16,-4
29242605480,-4,-2,-109,0,-3,-4,-5,-3
29242605480,-1,4,-62,1,2,2,40,0
29242607048,1,0,-37,-10,-12,-7,24,-2
29242607048,1,2,19,-5,-4,-2,-31,0
29242628156,-2,-11,66,-1,4,3,-20,-3
29242628156,-4,-12,59,5,5,1,-3,-1
29242629531,3,-4,94,0,-3,0,12,1
29242629531,0,1,102,5,2,1,21,3
29242641687,-4,-14,60,-6,-4,-4,2,-3
29242641687,-1,5,54,4,2,-1,-10,0
29242650561,-2,-1,56,-1,-3,-3,-11,-2
29242650561,2,3,50,1,-2,0,8,0
29242666949,-1,-4,35,-4,-6,-3,14,0
29242666949,-2,-5,20,-5,0,0,11,-1
29242668488,-8,-11,36,-1,-5,-2,-4,-5
29242668488,8,15,66,2,0,0,27,2
29242688177,-1,0,54,4,4,2,30,-1
29242688177,4,8,54,-2,0,1,31,1
29242689538,1,4,45,1,-3,-1,-35,0
29242689538,-4,-11,40,-2,-1,-2,-40,-3
29242701566,-2,3,24,-2,-1,-1,-30,-5
29242701566,-9,-5,7,-3,-2,-1,4,1
29242710561,-5,-7,-4,-4,-9,-3,29,-4
29242710561,6,15,8,8,4,4,-14,2
29242725417,0,1,-2,-5,-2,-3,-51,-1
29242725417,-23,-7,-13,-4,-5,-3,-69,-11
29242727019,33,13,7,-1,4,2,-30,13
29242727019,0,-10,-8,-3,0,-3,31,1
29242748073,8,2,-11,0,1,2,20,5
29242748073,1,3,-12,-3,-2,0,13,-1
29242749573,-12,-5,-9,2,1,1,20,-4
29242749573,-2,1,-13,-4,-5,-6,15,-6
29242761693,-5,-4,-10,5,1,0,32,-2
29242761693,7,4,-10,-3,0,-2,12,3
29242770594,-11,-8,-1,-1,-2,-3,-7,-4
29242770594,10,5,-8,-1,2,2,1,6
29242785553,0,8,5,1,1,1,28,-1
29242785553,-5,-11,-10,-4,-3,-3,-18,-2
29242787034,2,-2,-31,-18,-8,-3,-13,-2
29242787034,-8,-9,18,13,1,-3,-16,-6
29242808049,-3,2,11,-1,-6,-7,0,-2
29242808049,6,-1,-6,5,6,6,9,4
29242809521,4,11,6,-3,-2,-5,-3,2
29242809521,-6,-9,-11,-7,-2,-1,-2,-4
29242821681,0,-6,-11,-8,-6,-3,15,1
29242821681,0,-5,-6,-6,-4,-3,13,-3
29242830582,-13,-7,-4,-1,0,-2,3,-4
29242830582,-6,-4,-8,-6,-6,-4,-3,-1
29242845427,0,-4,-5,3,4,1,4,-1
29242845427,2,7,0,8,8,4,-1,-3
29242847062,6,6,11,8,3,1,-4,5
29242847062,5,8,5,1,-1,-2,-4,2
29242868078,-4,-6,-12,0,-2,-1,-6,0
29242868078,-3,2,2,-1,-3,-5,-11,-5
29242869529,-2,0,-9,-2,-5,-3,-3,-4
29242869529,-6,-5,-18,-7,-4,0,8,-2
29242890670,0,3,0,4,-1,-1,0,-3
29242890670,3,-5,-10,3,1,0,2,3
29242892059,5,19,20,11,12,7,7,2
29242892059,-4,-1,-2,-5,0,-1,1,-2
29242905571,-1,-14,-17,-5,-1,1,-4,0
29242905571,2,6,5,0,-3,-3,3,1
29242907070,-12,-20,-28,-11,-5,-4,-3,-4
29242907070,-3,2,10,10,4,1,-3,-1
29242928013,1,5,10,2,5,0,0,-2
29242928013,-7,-8,-1,2,2,2,1,-1
29242929553,3,-4,-7,-1,-2,0,0,-2
29242929553,2,1,-6,-8,-6,-2,-1,0
29242941676,-4,-7,-11,-5,-3,-1,0,-2
29242941676,2,1,-6,-1,-3,-3,-2,1
29242950525,-12,-13,-13,-3,0,-4,-2,-7
29242950525,6,9,-8,-8,-6,-6,2,3
29242965359,10,14,11,9,4,1,0,5
29242965359,2,-1,-23,-13,-8,-1,-4,-2
29242967073,2,11,31,25,7,3,-1,2
29242967073,-1,-4,-4,-2,0,0,-5,-1
29242988078,-6,-4,-2,2,3,-2,-3,-3
29242988078,-3,-2,2,1,-3,-2,-2,-1
29242989533,0,-2,-12,-10,-3,-3,-6,0
29242989533,-4,-8,-10,-5,-2,1,11,-4
29243001587,0,0,0,-3,-5,-3,-3,3
29243001587,4,1,-3,-3,-5,-3,-7,1
29243010562,5,3,-4,-7,-6,-2,-13,-6
29243010562,-12,-10,2,1,3,3,-9,3
29243025528,-5,-6,-11,-6,-4,0,-2,-3
29243025528,-16,-5,-6,1,4,2,1,-7
29243027004,15,-9,-11,-4,-4,-2,1,8
29243027004,9,27,32,17,6,4,-2,1
29243048050,-5,-8,-15,-9,-7,-4,-3,-3
29243048050,4,2,2,5,4,3,1,3
29243049562,-11,1,2,0,-1,-1,1,-5
29243049562,-6,-14,-13,-6,-4,-5,-6,-5
29243061540,-6,-9,-9,-5,4,4,-3,-1
29243061540,3,4,12,8,3,1,-1,1
29243070552,-1,5,0,-3,-5,-3,-2,1
29243070552,-2,-4,-9,-5,-1,-2,-2,-1
29243084735,-1,9,3,0,-2,-2,-1,-1
29243084735,-1,-7,-9,-4,-3,-2,-2,-3
29243091539,-5,-3,-7,-6,-6,-4,-3,-1
29243091539,1,-2,3,11,4,2,-2,-3
29243108048,-3,-4,-8,-10,-1,-3,-3,-1
29243108048,8,5,6,8,0,-1,2,4
29243109495,0,0,-4,0,8,5,1,-4
29243109495,-3,-9,-13,-7,-2,-3,-1,2
29243121705,3,5,6,1,-3,-4,-1,-1
29243121705,-7,-6,-9,-7,-2,-2,-7,-3
29243130534,-5,-5,-10,-9,-3,-2,-1,-3
29243130534,-3,-1,8,6,0,-3,-4,-3
29243144912,3,0,0,-1,-2,0,0,1
29243144912,-6,-5,1,-2,0,2,2,-4
29243151728,-3,0,-1,1,-1,0,3,0
29243151728,3,2,3,2,2,1,0,0
29243168082,-3,-3,-5,3,0,1,2,0
29243168082,-7,3,-2,-6,-4,-2,-2,-6
29243169550,13,-6,-15,-12,-8,-4,-1,9
29243169550,7,9,3,-6,-2,-1,2,0
29243190554,-4,0,7,2,-1,-2,-5,-3
29243190554,-4,-13,-14,-4,0,-2,-2,-1
29243192032,3,25,26,12,9,5,5,2
29243192032,-3,-1,-4,-4,-5,-5,-4,-2
29243204707,4,-3,-13,-5,1,-1,0,1
29243204707,5,6,6,0,0,0,0,2
29243211694,-9,-8,4,8,-3,-5,-7,-5
29243211694,1,-2,-3,0,6,2,-3,0
29243228014,-6,-2,-3,-2,0,2,1,-9
29243228014,-4,-8,-6,-5,-5,-4,1,7
29243229505,-6,-5,-1,3,1,2,2,-1
29243229505,-1,-3,-10,-9,-7,-4,-3,-1
29243250494,-1,-2,5,0,-3,-2,-2,-1
29243250494,6,2,-5,-9,-7,-5,0,1
29243252037,-6,2,3,1,-4,-1,2,-3
29243252037,-1,-12,-12,-2,4,3,2,1
29243264845,2,4,5,2,-5,-4,-2,1
29243264845,2,1,-2,1,-1,-2,1,-1
29243271649,-1,2,5,3,2,-1,-1,-1
29243271649,-11,-10,-12,-3,-5,-3,-3,-6
29243288050,6,9,9,1,1,0,-1,0
29243288050,-1,1,-7,-12,-10,-4,0,-1
29243289501,2,3,20,18,6,0,1,0
29243289501,-3,2,2,-6,-5,-3,-4,-2
29243310543,3,-4,-3,-1,0,0,0,4
29243310543,1,1,7,6,3,-1,-1,0
29243312025,-6,-10,-17,-9,-3,0,0,-3
29243312025,1,0,6,3,-2,1,2,2
29243324044,-1,2,9,8,2,-1,0,1
29243324044,-2,-3,-5,-6,1,-1,-1,-4
29243333026,3,-2,-8,0,1,-1,-2,1
29243333026,1,0,-7,-1,1,-1,1,1
29243348177,-5,-4,-5,-6,-5,-1,-2,-2
29243348177,-3,0,-3,-1,1,0,-2,-3
29243349526,1,1,10,1,-6,-6,-4,0
29243349526,-8,-5,-1,4,6,4,-2,-4
29243370561,15,0,-3,-1,0,-1,1,5
29243370561,1,3,3,-4,-2,-2,-3,-1
29243372003,-4,-5,-10,-7,-1,-4,-3,-3
29243372003,1,-4,-8,-3,-4,-1,1,-1
29243384919,-7,2,0,4,6,2,-1,-3
29243384919,1,3,5,3,-1,1,-3,-1
29243391672,-6,-9,-16,-12,-5,-1,1,-3
29243391672,-2,0,4,6,3,1,2,-1
29243408099,-4,-1,2,-1,-2,-1,1,-4
29243408099,5,-4,-6,1,2,1,0,1
29243409530,-2,5,-2,-6,0,0,-4,-4
29243409530,1,-2,-8,-6,-2,-2,-1,1
29243430496,-2,3,9,6,1,-1,3,1
29243430496,4,-3,1,9,7,2,3,3
29243432006,2,-3,-6,-8,-2,-2,0,1
29243432006,1,3,9,1,-2,1,0,-1
29243444168,-6,-5,-4,-1,-5,-4,0,-2
29243444168,0,0,-1,-1,-1,0,0,-1
29243453030,-2,-2,-2,2,1,3,1,1
29243453030,5,6,4,1,2,-1,-3,-2
29243468047,-4,-2,-5,-5,-6,-5,-4,-4
29243468047,-5,-2,-5,-4,-3,-2,-1,-3
29243469566,-1,-3,1,1,2,1,-1,0
29243469566,-3,-7,-14,-10,-4,-3,0,-1
29243490538,0,-1,4,3,0,0,0,-1
29243490538,0,-7,-13,-8,-5,-4,-4,-1
29243492035,4,11,8,4,2,2,2,1
29243492035,-14,-5,4,1,2,-1,-3,-7
29243504189,8,3,-4,-7,-2,-2,1,2
29243504189,11,8,10,4,-3,-4,-3,0
29243513035,0,-7,-6,0,-2,-2,-3,4
29243513035,-4,-8,-14,-7,-7,-3,2,0
29243528046,-2,-1,7,7,9,6,1,0
29243528046,-4,2,3,-1,-4,-3,0,-2
29243529522,-2,-4,-2,-2,-2,-4,-1,-3
29243529522,1,2,-1,-4,-4,-4,-2,-3
29243550620,-2,-6,-15,-9,-2,-3,-4,-1
29243550620,-2,5,24,20,9,5,2,-1
29243552020,-3,-3,0,-2,-1,-1,0,-4
29243552020,1,-2,2,-3,-1,-1,-3,1
29243564188,-1,-3,-4,-3,1,0,-1,0
29243564188,-3,-2,-5,-5,-1,-1,-1,0
29243573059,-3,-3,-8,-4,-5,0,2,-3
29243573059,-8,-11,-12,-2,-1,0,3,-3
29243588040,9,7,4,4,1,1,-1,1
29243588040,-4,-6,-17,-12,-2,0,-4,-3
29243589495,-2,7,16,9,-1,-3,-4,-3
29243589495,0,-4,-14,3,2,1,-1,2
29243610520,-1,-2,0,-2,-5,-3,-4,-1
29243610520,-1,-4,-7,-4,-3,-3,-2,1
29243612032,2,3,8,2,2,2,-2,-2
29243612032,1,-3,-7,-11,-2,-4,-3,-1
29243624146,-8,-8,1,2,0,-2,-1,-4
29243624146,2,7,6,0,-1,1,5,3
29243633062,-5,-9,-7,-3,0,-1,-2,-2
29243633062,-5,8,21,10,-2,-1,-3,-3
29243648015,4,-4,-13,-15,-10,-7,-1,1
29243648015,-15,-4,6,5,1,-2,-3,-10
29243649531,12,-12,-22,-14,-4,-4,1,6
29243649531,1,8,14,1,-5,-4,2,0
29243670401,-5,-2,-1,5,5,1,1,-4
29243670401,8,6,1,-2,-2,-1,1,4
29243671998,-8,2,-1,-3,-3,-1,-2,-4
29243671998,4,-6,-2,2,-1,-1,-4,-4
29243684056,-1,1,0,-1,-2,2,0,0
29243684056,1,5,14,10,0,-2,1,-1
29243693087,-5,-8,-8,-3,-3,-2,4,-1
29243693087,5,-2,-12,-16,-8,-6,-7,-1
29243707974,-4,2,-1,2,5,2,-4,1
29243707974,-3,5,8,7,1,-2,-7,-2
29243709504,-8,6,7,0,0,-1,-2,-3
29243709504,12,-1,1,4,2,0,-5,4
29243730640,-1,-6,-12,-12,-6,0,1,-2
29243730640,-4,-12,-9,-1,-4,0,20,2
29243732003,7,14,6,-1,-4,-4,-3,-3
29243732003,-14,-5,4,2,-6,-3,-5,2
29243753044,6,2,2,4,12,5,1,6
29243753044,10,-5,-18,-18,-5,-2,6,7
29243754532,-5,-4,12,12,1,1,11,0
29243754532,0,6,7,9,11,6,4,6
29243768023,1,-2,-1,3,-3,-3,27,3
29243768023,0,0,-1,-3,1,0,30,1
29243769567,-2,-12,-11,-4,2,0,22,4
29243769567,0,2,-2,-4,-6,-5,-9,4
29243790498,-2,-2,5,3,-1,0,-29,2
29243790498,0,11,12,3,3,1,-44,3
29243792003,-9,-2,-8,-6,-3,-3,-13,-3
29243792003,-3,6,4,4,4,2,-12,-9
29243804142,-16,-9,-4,-7,-4,-3,-18,-6
29243804142,-4,2,1,0,-3,0,-20,-8
29243813082,5,2,0,-1,-4,-1,-16,-8
29243813082,-16,-15,-12,-4,-1,0,0,-8
29243828149,7,5,6,10,0,-1,-1,-6
29243828149,-6,-1,3,-7,-6,-6,-4,-2
29243829521,-2,-6,-9,-2,0,0,-4,-1
29243829521,4,-9,-16,-6,0,-3,3,-8
29243850525,3,5,9,4,0,1,6,1
29243850525,2,0,4,3,1,1,9,0
29243852000,1,2,-3,2,1,-1,1,-5
29243852000,-2,-5,-1,-1,0,2,10,2
29243864169,3,1,0,-3,-6,-6,5,1
29243864169,-3,-15,-20,-5,1,1,10,-5
29243873034,1,8,6,-1,0,-1,1,1
29243873034,4,8,4,-2,-2,-1,5,-1
29243888018,-1,-2,-4,-2,2,1,2,-2
29243888018,-11,-11,-16,-6,0,0,-4,-9
29243889474,10,7,13,3,5,1,-6,1
29243889474,0,-1,0,-2,-2,0,-3,1
29243910514,-10,-8,-9,-8,-3,-1,-9,-8
29243910514,-3,-3,3,4,-3,-3,-7,-3
29243912033,-8,3,9,5,3,0,-4,-4
29243912033,4,6,4,8,3,0,3,-2
29243924102,1,0,-3,-2,-3,-4,-1,-2
29243924102,-3,-6,-13,-9,-8,-3,0,-4
29243933030,0,2,7,6,0,2,7,1
29243933030,-7,-5,0,-1,-4,0,4,-7
29243948135,-9,-7,-15,-11,-8,-5,-2,-10
29243948135,10,4,0,0,0,-1,2,4
29243949494,-15,-9,-4,-4,-6,-2,0,-3
29243949494,2,0,-2,1,0,-2,4,-2
29243970581,-2,-2,-3,-3,-9,-6,-1,-2
29243970581,6,3,-1,0,3,0,-2,2
29243972025,7,7,0,-5,-6,-3,1,1
29243972025,1,3,10,5,3,2,0,3
29243984117,-4,11,10,4,1,-1,-2,-3
29243984117,24,0,0,1,-2,-1,0,6
29243993057,-3,-5,-9,-7,-2,-4,-8,3
29243993057,2,5,8,2,5,0,-3,1
29244008051,2,-11,-10,-6,-5,-2,4,4
29244008051,-3,12,12,-1,1,-2,-4,-8
29244009504,1,-3,-5,-6,-3,-2,-5,-3
29244009504,4,-2,-3,-4,-4,-1,-2,3
29244030559,0,-1,3,3,-1,1,0,-3
29244030559,-9,-5,1,3,-2,1,-2,2
29244031978,0,-9,-12,-5,-3,-4,-4,-2
29244031978,3,9,7,2,-3,-2,0,-2
29244053165,-8,-7,-12,-4,-2,-1,2,6
29244053165,-12,-13,-5,5,-5,-6,-5,-4
29244054557,15,6,-6,2,4,3,2,4
29244054557,-12,-4,-11,-7,-2,-3,-2,-9
29244068058,15,8,4,3,4,4,3,4
29244068058,-6,3,5,-1,-1,-1,3,-4
29244069500,-8,-13,-6,-2,-3,-3,0,1
29244069500,-12,-11,-4,0,-2,-4,-2,-4
29244090587,4,10,8,-4,0,0,-2,2
29244090587,-7,2,4,3,0,0,6,0
29244092039,2,2,-4,2,3,3,0,0
29244092039,12,11,11,2,2,1,-1,6
29244113207,-8,-7,1,3,2,-1,-6,-3
29244113207,-3,-7,-11,-8,1,0,-4,-5
29244114505,-8,0,10,1,0,-1,1,-1
29244114505,28,-1,-3,-2,-1,1,0,12
29244128061,7,0,-5,-3,0,0,0,1
29244128061,-6,-3,1,-3,-2,1,-1,-2
29244129502,7,4,0,-3,-4,-5,-1,-1
29244129502,-18,-8,-4,-1,0,0,1,-8
29244150561,-4,-3,1,5,2,-3,-4,-2
29244150561,15,1,-14,-10,-2,-2,-2,3
29244152031,-22,-5,12,14,0,1,0,-8
29244152031,2,8,-5,-5,-3,-2,-1,0
29244173217,-3,-5,0,-3,-7,-2,2,5
29244173217,-8,8,1,4,5,3,-4,-5
29244174542,15,5,3,-1,-1,-1,-4,3
29244174542,-5,-3,0,1,3,0,-3,4
29244187952,2,-6,-6,2,2,2,4,0
29244187952,-8,-12,-3,2,3,2,-3,-1
29244189454,-7,3,-3,-4,-1,0,-1,-5
29244189454,10,8,4,-1,-2,-2,0,0
29244210552,1,2,8,3,3,2,-2,0
29244210552,-3,-6,3,2,0,1,3,0
29244212056,0,1,-1,-4,-3,-3,-2,0
29244212056,-4,-3,2,-1,-7,-3,-1,-2
29244232998,12,6,-2,4,4,0,0,-8
29244232998,-12,-12,-7,-3,-4,1,6,5
29244234481,5,5,-1,1,6,6,0,0
29244234481,9,-6,-17,-8,-2,0,-1,0
29244247300,-4,7,11,2,-3,-4,-2,-4
29244247300,-18,-20,-12,4,2,4,4,1
29244254181,12,18,12,-20,-11,-6,-3,6
29244254181,-10,6,17,15,6,3,1,0
29244270556,1,-1,-5,-4,-1,-1,-1,-1
29244270556,4,3,-1,-5,-3,-5,-5,-4
29244272032,-17,-22,-13,-4,-5,-8,-4,-7
29244272032,-5,-5,-9,-8,-3,2,-1,-3
29244293056,14,8,4,-1,-5,-4,-6,-2
29244293056,-21,-6,5,5,8,7,2,2
29244294503,7,-3,-7,2,-1,2,2,2
29244294503,2,1,0,-2,0,-1,0,1
29244307344,-27,-24,-23,-7,-4,-3,0,-11
29244307344,26,25,25,0,-6,-4,-3,9
29244314160,5,-2,-2,3,0,-2,-4,-2
29244314160,-1,2,0,-4,-4,-4,-2,0
29244330464,-7,-9,-8,-3,-3,-3,1,1
29244330464,20,10,1,3,0,0,-2,0
29244331988,-18,-5,9,7,7,4,3,-3
29244331988,-8,-11,-5,-3,-5,-4,0,-6
29244352942,4,8,3,-1,2,0,-6,-5
29244352942,-3,-5,-5,-6,-3,-3,0,4
29244354510,-9,-13,-12,-3,-2,-2,1,-3
29244354510,-7,-6,-5,-1,1,1,-2,-8
29244367316,-11,-9,-3,0,-1,-3,0,0
29244367316,9,4,-4,-8,-9,-9,-2,-2
29244374140,2,5,3,5,6,4,1,2
29244374140,-1,-3,-1,5,4,1,1,2
29244390492,-4,-7,-7,-4,-4,-4,0,2
29244390492,-1,17,21,8,3,2,-1,-3
29244392005,4,-4,0,2,1,-1,1,1
29244392005,-1,-1,-3,-2,0,-1,-2,-3
