30053762179,0.1220703125,-0.5068359375,0.81298828125
30053783382,0.1201171875,-0.50634765625,0.80615234375
30053798406,0.34423828125,-0.50732421875,0.90234375
30053822199,0.78564453125,-0.4208984375,1.1982421875
30053843475,0.64306640625,-0.34130859375,0.96142578125
30053858446,0.77099609375,-0.40673828125,1.298828125
30053882173,0.17919921875,-0.5966796875,1.126953125
30053903517,-0.52880859375,-0.65576171875,0.45068359375
30053951044,-0.16650390625,-0.47216796875,0.3896484375
30053951770,0.671875,-0.3515625,1.06005859375
30053964093,0.5546875,-0.50634765625,1.31396484375
30053978556,-0.32958984375,-0.68017578125,0.69873046875
30054002693,0.29736328125,-0.54541015625,1.048828125
30054025596,0.1416015625,-0.53515625,0.83544921875
30054060730,0.1044921875,-0.5087890625,0.82958984375
30054070902,0.10546875,-0.5185546875,0.81396484375
30054077066,0.10791015625,-0.52734375,0.8046875
30054098925,0.1181640625,-0.52099609375,0.83837890625
30054121389,-0.23681640625,-0.51025390625,0.46484375
30054145266,0.20166015625,-0.58935546875,1.1484375
30054159593,-0.0625,-0.63525390625,0.9599609375
30054182746,-0.5693359375,-0.63330078125,0.404296875
30054205223,-0.10888671875,-0.4345703125,0.44580078125
30054219623,0.712890625,-0.3388671875,1.1591796875
30054242758,0.39892578125,-0.5458984375,1.259765625
30054265273,-0.47119140625,-0.6787109375,0.5439453125
30054279579,-0.24560546875,-0.50390625,0.33251953125
30054302693,0.50439453125,-0.369140625,0.89013671875
30054325265,0.046875,-0.45458984375,0.7568359375
30054339589,0.13134765625,-0.49658203125,0.8212890625
30054362707,0.09375,-0.4912109375,0.81689453125
30054385255,0.08056640625,-0.501953125,0.8193359375
30054406365,0.099609375,-0.5244140625,0.80908203125
30054422702,0.1142578125,-0.53369140625,0.8125
30054445221,0.10302734375,-0.564453125,0.80029296875
30054466456,0.08642578125,-0.58984375,0.80029296875
30054482749,0.0654296875,-0.5751953125,0.775390625
30054505219,0.06884765625,-0.6494140625,0.7734375
30054526342,0.0947265625,-0.693359375,0.78759765625
30054542773,0.09765625,-0.69580078125,0.791015625
30054565291,0.08349609375,-0.66357421875,0.7578125
30054586399,0.07568359375,-0.71923828125,0.74755859375
30054602709,0.0234375,-0.736328125,0.7802734375
30054625245,0.02587890625,-0.74755859375,0.7490234375
30054646400,-0.00244140625,-0.724609375,0.76708984375
30054662739,-0.0390625,-0.66455078125,0.767578125
30054685264,-0.044921875,-0.646484375,0.73876953125
30054706297,-0.08544921875,-0.58984375,0.76220703125
30054722706,-0.1064453125,-0.68603515625,0.7646484375
30054745225,-0.11669921875,-0.72265625,0.7392578125
30054766422,-0.11474609375,-0.7939453125,0.7177734375
30054782704,-0.12353515625,-0.7880859375,0.74853515625
30054805217,-0.140625,-0.7880859375,0.74267578125
30054826344,-0.193359375,-0.72509765625,0.71044921875
30054842126,-0.2685546875,-0.64794921875,0.6669921875
30054865271,-0.2734375,-0.6201171875,0.64404296875
30054887730,-0.2685546875,-0.68017578125,0.6640625
30054902039,-0.291015625,-0.71240234375,0.6533203125
30054925209,-0.3193359375,-0.689453125,0.6533203125
30054947748,-0.3642578125,-0.69189453125,0.646484375
30054962060,-0.40478515625,-0.67822265625,0.58642578125
30054985250,-0.39306640625,-0.67529296875,0.58251953125
30055007752,-0.3916015625,-0.64404296875,0.61279296875
30055022101,-0.419921875,-0.6162109375,0.5927734375
30055051399,-0.45458984375,-0.6123046875,0.59716796875
30055067728,-0.45947265625,-0.6474609375,0.5537109375
30055090256,-0.45068359375,-0.62939453125,0.57275390625
30055111365,-0.4638671875,-0.60498046875,0.5849609375
30055127728,-0.48193359375,-0.5966796875,0.5791015625
30055150217,-0.48291015625,-0.5908203125,0.58203125
30055171561,-0.482421875,-0.56103515625,0.572265625
30055187747,-0.48779296875,-0.55419921875,0.5576171875
30055210187,-0.474609375,-0.5712890625,0.56396484375
30055231374,-0.4765625,-0.568359375,0.56201171875
30055247665,-0.48193359375,-0.5673828125,0.56884765625
30055270247,-0.48291015625,-0.5595703125,0.57275390625
30055291390,-0.45068359375,-0.544921875,0.56396484375
30055307046,-0.44580078125,-0.5283203125,0.5810546875
30055330195,-0.4775390625,-0.49755859375,0.5849609375
30055351413,-0.4619140625,-0.49169921875,0.60546875
30055367833,-0.462890625,-0.51171875,0.6123046875
30055396363,-0.4521484375,-0.51904296875,0.61669921875
30055412693,-0.47021484375,-0.48876953125,0.61474609375
30055427703,-0.4833984375,-0.4921875,0.61767578125
30055450223,-0.46337890625,-0.5361328125,0.61376953125
30055480251,-0.4697265625,-0.5634765625,0.61279296875
30055487103,-0.4794921875,-0.5595703125,0.62060546875
30055510244,-0.4814453125,-0.57666015625,0.60986328125
30055532710,-0.45947265625,-0.568359375,0.61083984375
30055553893,-0.4677734375,-0.5810546875,0.60400390625
30055570241,-0.458984375,-0.5830078125,0.61572265625
30055592731,-0.45703125,-0.60400390625,0.60302734375
30055607025,-0.46923828125,-0.63134765625,0.6240234375
30055630196,-0.486328125,-0.63720703125,0.61181640625
30055652729,-0.4736328125,-0.640625,0.61083984375
30055673869,-0.48828125,-0.6357421875,0.61181640625
30055690252,-0.4853515625,-0.6455078125,0.61083984375
30055712718,-0.498046875,-0.62841796875,0.5908203125
30055727085,-0.52880859375,-0.6025390625,0.60009765625
30055750285,-0.5400390625,-0.62841796875,0.6064453125
30055780247,-0.5244140625,-0.63916015625,0.58984375
30055787120,-0.53271484375,-0.6435546875,0.599609375
30055810267,-0.54443359375,-0.64794921875,0.599609375
30055832711,-0.55224609375,-0.6513671875,0.58740234375
30055847013,-0.548828125,-0.62890625,0.60205078125
30055870267,-0.52587890625,-0.64306640625,0.58642578125
30055892717,-0.51708984375,-0.6396484375,0.58203125
30055898141,-0.53662109375,-0.6396484375,0.5927734375
30055916047,-0.517578125,-0.64453125,0.58203125
30055935720,-0.5087890625,-0.62841796875,0.58642578125
30055958242,-0.4970703125,-0.6298828125,0.56787109375
30055974572,-0.49658203125,-0.62890625,0.5673828125
30055995730,-0.47998046875,-0.64501953125,0.55224609375
30056018168,-0.48193359375,-0.6357421875,0.54638671875
30056034563,-0.49609375,-0.6552734375,0.5576171875
30056055697,-0.50390625,-0.66845703125,0.5556640625
30056078150,-0.51806640625,-0.64599609375,0.560546875
30056094570,-0.51220703125,-0.64892578125,0.556640625
30056115664,-0.50830078125,-0.63720703125,0.560546875
30056138215,-0.52197265625,-0.62060546875,0.56396484375
30056154607,-0.5126953125,-0.6298828125,0.56494140625
30056175753,-0.50341796875,-0.64453125,0.57421875
30056198323,-0.49951171875,-0.66796875,0.5654296875
30056214556,-0.4931640625,-0.666015625,0.5703125
30056235693,-0.5078125,-0.6494140625,0.5703125
30056258229,-0.5009765625,-0.6474609375,0.57177734375
30056274577,-0.4833984375,-0.6484375,0.57373046875
30056295702,-0.49658203125,-0.66162109375,0.5576171875
30056318224,-0.49072265625,-0.67626953125,0.560546875
30056335989,-0.4814453125,-0.693359375,0.55859375
30056355704,-0.515625,-0.6640625,0.56298828125
30056378212,-0.5234375,-0.6357421875,0.55859375
30056395997,-0.5185546875,-0.64990234375,0.55419921875
30056415725,-0.5107421875,-0.6552734375,0.546875
30056438303,-0.52685546875,-0.6552734375,0.5439453125
30056456063,-0.53515625,-0.66015625,0.556640625
30056475698,-0.5205078125,-0.65576171875,0.5390625
30056498274,-0.517578125,-0.64990234375,0.541015625
30056515975,-0.5224609375,-0.65380859375,0.53564453125
30056535727,-0.529296875,-0.63330078125,0.5322265625
30056558242,-0.5224609375,-0.63330078125,0.53564453125
30056575997,-0.50634765625,-0.65966796875,0.52685546875
30056595736,-0.505859375,-0.662109375,0.53955078125
30056618190,-0.5224609375,-0.64453125,0.53466796875
30056635988,-0.52880859375,-0.646484375,0.52587890625
30056655723,-0.517578125,-0.6650390625,0.5166015625
30056678305,-0.4951171875,-0.669921875,0.521484375
30056696056,-0.5068359375,-0.66357421875,0.52880859375
30056715593,-0.54296875,-0.64794921875,0.5439453125
30056738167,-0.548828125,-0.69140625,0.53466796875
30056755993,-0.546875,-0.70849609375,0.5205078125
30056775605,-0.5771484375,-0.66845703125,0.51416015625
30056798236,-0.6240234375,-0.6201171875,0.498046875
30056816049,-0.6318359375,-0.62646484375,0.5048828125
30056838522,-0.63671875,-0.59619140625,0.5087890625
30056858266,-0.62158203125,-0.583984375,0.5380859375
30056875990,-0.6123046875,-0.60009765625,0.5126953125
30056895757,-0.59765625,-0.62255859375,0.50537109375
30056918225,-0.58642578125,-0.65380859375,0.48095703125
30056936014,-0.58544921875,-0.6376953125,0.5009765625
30056957045,-0.60400390625,-0.60107421875,0.4814453125
30056978176,-0.568359375,-0.55419921875,0.494140625
30056995990,-0.54052734375,-0.59619140625,0.4892578125
30057017061,-0.54345703125,-0.57080078125,0.529296875
30057038231,-0.53759765625,-0.578125,0.517578125
30057056010,-0.51416015625,-0.5322265625,0.54296875
30057077048,-0.466796875,-0.52685546875,0.599609375
30057098206,-0.4423828125,-0.54541015625,0.59765625
30057116010,-0.4169921875,-0.53857421875,0.61181640625
30057137042,-0.39990234375,-0.50830078125,0.61376953125
30057158221,-0.35205078125,-0.52001953125,0.65869140625
30057176053,-0.3212890625,-0.52734375,0.70458984375
30057197116,-0.2763671875,-0.50439453125,0.7568359375
30057218069,-0.244140625,-0.45166015625,0.78662109375
30057235982,-0.23779296875,-0.44775390625,0.802734375
30057257030,-0.21826171875,-0.46875,0.779296875
30057278220,-0.14306640625,-0.48583984375,0.80859375
30057296053,-0.0732421875,-0.5537109375,0.833984375
30057318494,-0.0419921875,-0.56982421875,0.849609375
30057338232,-0.04736328125,-0.56103515625,0.85498046875
30057355996,-0.03857421875,-0.515625,0.86962890625
30057378511,-0.01708984375,-0.50390625,0.8623046875
30057398196,0.0166015625,-0.5048828125,0.85009765625
30057415981,0.01953125,-0.52001953125,0.8720703125
30057438513,0.0322265625,-0.52099609375,0.87744140625
30057458202,0.0390625,-0.4833984375,0.8662109375
30057476062,0.0615234375,-0.48388671875,0.87353515625
30057498478,0.080078125,-0.49560546875,0.85595703125
30057518890,0.09326171875,-0.49462890625,0.8564453125
30057535221,0.083984375,-0.51220703125,0.8486328125
30057557690,0.09814453125,-0.51416015625,0.85205078125
30057578854,0.1162109375,-0.51806640625,0.84375
30057595213,0.123046875,-0.521484375,0.84423828125
30057617702,0.12158203125,-0.51904296875,0.85302734375
30057638865,0.13671875,-0.50390625,0.841796875
30057655168,0.1435546875,-0.47021484375,0.8310546875
30057677696,0.1328125,-0.4609375,0.8203125
30057698841,0.14697265625,-0.49267578125,0.826171875
30057714950,0.17333984375,-0.5537109375,0.88037109375
30057737674,0.17138671875,-0.55859375,0.93115234375
30057758857,0.14111328125,-0.48681640625,0.87548828125
30057775176,0.1552734375,-0.49267578125,0.8720703125
30057797726,0.17333984375,-0.4921875,0.85693359375
30057818850,0.17626953125,-0.49755859375,0.84228515625
30057835168,0.17822265625,-0.4951171875,0.8232421875
30057857709,0.17578125,-0.4794921875,0.80517578125
30057878989,0.177734375,-0.4853515625,0.7880859375
30057895195,0.1748046875,-0.48779296875,0.79443359375
30057917504,0.17724609375,-0.4853515625,0.80224609375
30057938968,0.17626953125,-0.4853515625,0.82177734375
30057955227,0.15771484375,-0.47998046875,0.833984375
30057977694,0.171875,-0.4658203125,0.8291015625
30057998824,0.181640625,-0.46337890625,0.83447265625
30058015151,0.18408203125,-0.48193359375,0.8310546875
30058037702,0.16845703125,-0.47314453125,0.81494140625
30058058945,0.181640625,-0.47314453125,0.8173828125
30058075170,0.18701171875,-0.46875,0.82470703125
30058097724,0.17578125,-0.46044921875,0.82373046875
30058118882,0.18017578125,-0.458984375,0.83154296875
