29964716095,0.0712890625,-0.75439453125,0.640625
29964731020,0.07080078125,-0.7490234375,0.634765625
29964752317,0.15380859375,-0.642578125,0.45947265625
29964776137,0.2724609375,-0.83935546875,1.04248046875
29964797453,0.154296875,-0.84619140625,0.99951171875
29964812397,-0.49853515625,-0.87060546875,0.44775390625
29964836107,-0.3203125,-0.6669921875,0.20556640625
29964857527,0.5625,-0.5478515625,0.80078125
29964902312,0.517578125,-0.73388671875,1.193359375
29964913138,-0.38671875,-0.880859375,0.5888671875
29964915189,-0.37646484375,-0.69580078125,0.17578125
29964928882,0.53515625,-0.5068359375,0.7626953125
29964947532,0.28955078125,-0.66455078125,0.7734375
29964971104,0.06201171875,-0.6513671875,0.712890625
29965014751,0.09521484375,-0.63232421875,0.70849609375
29965024875,0.08203125,-0.623046875,0.70947265625
29965039196,0.09033203125,-0.623046875,0.71435546875
29965046047,0.2255859375,-0.669921875,0.86767578125
29965068571,0.0556640625,-0.73291015625,0.9736328125
29965098027,0.46630859375,-0.69287109375,1.19384765625
29965113612,-0.154296875,-0.84619140625,0.87158203125
29965136751,-0.55908203125,-0.8427734375,0.255859375
29965165395,0.1474609375,-0.70703125,0.47021484375
29965173592,0.703125,-0.6650390625,1.1328125
29965196723,-0.0947265625,-0.82568359375,0.853515625
29965219246,-0.73583984375,-0.83935546875,0.19189453125
29965233553,0.04541015625,-0.59619140625,0.54345703125
29965256696,-0.5146484375,-0.74853515625,0.48388671875
29965279241,-0.0986328125,-0.69091796875,0.6953125
29965293596,-0.025390625,-0.72216796875,0.69873046875
29965316719,-0.0107421875,-0.72607421875,0.70068359375
29965339197,-0.025390625,-0.73828125,0.6875
29965353609,-0.06005859375,-0.70458984375,0.71484375
29965367229,-0.07470703125,-0.72802734375,0.7109375
29965389756,-0.06689453125,-0.73876953125,0.71728515625
29965404707,-0.05615234375,-0.7099609375,0.7158203125
29965427309,-0.08642578125,-0.66064453125,0.7109375
29965449710,-0.134765625,-0.69677734375,0.6865234375
29965464754,-0.19189453125,-0.68310546875,0.689453125
29965487218,-0.23095703125,-0.68701171875,0.693359375
29965509641,-0.244140625,-0.68798828125,0.6943359375
29965524720,-0.197265625,-0.66064453125,0.73974609375
29965547285,-0.19287109375,-0.6650390625,0.7470703125
29965569698,-0.15478515625,-0.69091796875,0.740234375
29965584732,-0.17578125,-0.68603515625,0.74365234375
29965607214,-0.16748046875,-0.669921875,0.7451171875
29965629781,-0.24560546875,-0.7177734375,0.7265625
29965644701,-0.2119140625,-0.74072265625,0.7353515625
29965667282,-0.2705078125,-0.7109375,0.74072265625
29965689729,-0.29150390625,-0.64404296875,0.7587890625
29965704717,-0.302734375,-0.62890625,0.73681640625
29965727229,-0.3203125,-0.61376953125,0.7109375
29965749630,-0.3623046875,-0.6083984375,0.7041015625
29965764605,-0.37744140625,-0.615234375,0.677734375
29965787154,-0.376953125,-0.609375,0.67724609375
29965809696,-0.40576171875,-0.59130859375,0.66259765625
29965824729,-0.431640625,-0.58740234375,0.6455078125
29965847404,-0.44580078125,-0.591796875,0.60009765625
29965869694,-0.4482421875,-0.5791015625,0.5869140625
29965884786,-0.462890625,-0.5693359375,0.60400390625
29965907268,-0.484375,-0.54736328125,0.5732421875
29965922268,-0.48974609375,-0.56005859375,0.56201171875
29965944724,-0.50634765625,-0.5546875,0.5732421875
29965967246,-0.541015625,-0.5439453125,0.55322265625
29965982201,-0.54296875,-0.5400390625,0.537109375
29966004751,-0.54736328125,-0.5224609375,0.54150390625
29966027232,-0.56591796875,-0.5283203125,0.54052734375
29966045019,-0.5791015625,-0.521484375,0.53857421875
29966064729,-0.60546875,-0.498046875,0.5224609375
29966087317,-0.61083984375,-0.50390625,0.515625
29966104999,-0.6142578125,-0.4990234375,0.5224609375
29966124705,-0.63232421875,-0.49755859375,0.49267578125
29966149995,-0.6220703125,-0.5009765625,0.51171875
29966165015,-0.61767578125,-0.49951171875,0.5205078125
29966184731,-0.63671875,-0.5205078125,0.53173828125
29966207195,-0.6533203125,-0.51708984375,0.537109375
29966224993,-0.64599609375,-0.49072265625,0.51416015625
29966244589,-0.63720703125,-0.49560546875,0.53955078125
29966267192,-0.64697265625,-0.52099609375,0.552734375
29966285017,-0.65673828125,-0.51318359375,0.5537109375
29966306047,-0.64453125,-0.49609375,0.55810546875
29966327196,-0.6494140625,-0.50732421875,0.544921875
29966352531,-0.64111328125,-0.5078125,0.55810546875
29966366104,-0.65869140625,-0.4921875,0.56201171875
29966387256,-0.6513671875,-0.50439453125,0.54345703125
29966405013,-0.650390625,-0.521484375,0.533203125
29966426043,-0.65478515625,-0.5048828125,0.552734375
29966447226,-0.65087890625,-0.4990234375,0.5322265625
29966464980,-0.6416015625,-0.50390625,0.53271484375
29966486011,-0.65966796875,-0.5185546875,0.55322265625
29966507145,-0.65234375,-0.52587890625,0.546875
29966525018,-0.65185546875,-0.498046875,0.5546875
29966546060,-0.64599609375,-0.4697265625,0.54052734375
29966567151,-0.6416015625,-0.48779296875,0.55859375
29966584986,-0.6435546875,-0.52099609375,0.544921875
29966606041,-0.63330078125,-0.53271484375,0.5439453125
29966627228,-0.62841796875,-0.52294921875,0.54150390625
29966645030,-0.6435546875,-0.525390625,0.54931640625
29966667573,-0.6337890625,-0.54248046875,0.54296875
29966687246,-0.63232421875,-0.5439453125,0.53271484375
29966704985,-0.62841796875,-0.5361328125,0.5556640625
29966727499,-0.63525390625,-0.541015625,0.55322265625
29966747072,-0.6259765625,-0.5576171875,0.54931640625
29966765014,-0.6396484375,-0.54638671875,0.55126953125
29966787506,-0.64453125,-0.5439453125,0.56689453125
29966807194,-0.64599609375,-0.57763671875,0.55712890625
29966825015,-0.63427734375,-0.59375,0.544921875
29966847524,-0.64794921875,-0.5595703125,0.54443359375
29966867251,-0.6259765625,-0.54833984375,0.56591796875
29966885009,-0.62646484375,-0.57568359375,0.54248046875
29966907483,-0.6220703125,-0.59033203125,0.560546875
29966927199,-0.62646484375,-0.57080078125,0.544921875
29966944958,-0.61474609375,-0.5263671875,0.5400390625
29966966691,-0.61328125,-0.55908203125,0.548828125
29966988015,-0.61181640625,-0.59423828125,0.54638671875
29967004171,-0.603515625,-0.59521484375,0.54150390625
29967026700,-0.61669921875,-0.57373046875,0.54345703125
29967047988,-0.6181640625,-0.53076171875,0.53515625
29967064218,-0.6025390625,-0.5673828125,0.55126953125
29967086721,-0.6064453125,-0.59619140625,0.537109375
29967107801,-0.60302734375,-0.61474609375,0.5302734375
29967124240,-0.61083984375,-0.599609375,0.52880859375
29967146669,-0.625,-0.5615234375,0.54443359375
29967167863,-0.62109375,-0.560546875,0.54736328125
29967184220,-0.61572265625,-0.5927734375,0.53759765625
29967206704,-0.6240234375,-0.61328125,0.54296875
29967227726,-0.62060546875,-0.587890625,0.54296875
29967244189,-0.62255859375,-0.5654296875,0.53955078125
29967266668,-0.62109375,-0.56298828125,0.53564453125
29967287881,-0.61181640625,-0.57568359375,0.52685546875
29967304175,-0.60791015625,-0.57861328125,0.54248046875
29967326734,-0.6171875,-0.5810546875,0.54248046875
29967347765,-0.62109375,-0.5625,0.5224609375
29967364229,-0.5966796875,-0.56689453125,0.5419921875
29967386747,-0.59765625,-0.5986328125,0.54052734375
29967407873,-0.6142578125,-0.599609375,0.52880859375
29967424201,-0.60546875,-0.580078125,0.5283203125
29967446672,-0.6103515625,-0.58447265625,0.529296875
29967467856,-0.6064453125,-0.57470703125,0.54150390625
29967484239,-0.59423828125,-0.58251953125,0.54833984375
29967506697,-0.603515625,-0.58056640625,0.54296875
29967527858,-0.611328125,-0.5703125,0.5400390625
29967544168,-0.6142578125,-0.5654296875,0.544921875
29967566696,-0.6181640625,-0.5703125,0.54736328125
29967589172,-0.5888671875,-0.59521484375,0.5751953125
29967604172,-0.6201171875,-0.60107421875,0.560546875
29967626695,-0.6376953125,-0.59130859375,0.537109375
29967649165,-0.64990234375,-0.56396484375,0.51025390625
29967663551,-0.64404296875,-0.5419921875,0.51708984375
29967686704,-0.6416015625,-0.50244140625,0.54248046875
29967709175,-0.6279296875,-0.517578125,0.54833984375
29967724166,-0.6103515625,-0.57763671875,0.54638671875
29967746707,-0.61279296875,-0.5966796875,0.5576171875
29967769146,-0.62109375,-0.54541015625,0.56298828125
29967783564,-0.61328125,-0.50390625,0.56103515625
29967806478,-0.60888671875,-0.49169921875,0.5537109375
29967829196,-0.59375,-0.51416015625,0.5693359375
29967850317,-0.5947265625,-0.541015625,0.57861328125
29967866673,-0.59423828125,-0.599609375,0.56640625
29967889202,-0.59423828125,-0.58154296875,0.552734375
29967910466,-0.57470703125,-0.5322265625,0.572265625
29967926700,-0.56640625,-0.50634765625,0.58056640625
29967949167,-0.56640625,-0.5166015625,0.5693359375
29967970364,-0.55419921875,-0.55322265625,0.57275390625
29967986689,-0.53515625,-0.56787109375,0.5888671875
29968015332,-0.51318359375,-0.56591796875,0.5859375
29968030353,-0.48681640625,-0.57080078125,0.59716796875
29968046687,-0.4619140625,-0.57568359375,0.6123046875
29968069196,-0.439453125,-0.6103515625,0.6318359375
29968090440,-0.423828125,-0.60400390625,0.6279296875
29968106730,-0.41455078125,-0.58056640625,0.6279296875
29968130632,-0.408203125,-0.6083984375,0.63232421875
29968150446,-0.4033203125,-0.65380859375,0.640625
29968166702,-0.3798828125,-0.66259765625,0.65966796875
29968189214,-0.36279296875,-0.6669921875,0.69091796875
29968210365,-0.3505859375,-0.640625,0.68603515625
29968226647,-0.3369140625,-0.6494140625,0.69580078125
29968249173,-0.3232421875,-0.62890625,0.70361328125
29968270300,-0.30908203125,-0.6025390625,0.72509765625
29968286675,-0.298828125,-0.59130859375,0.7314453125
29968309202,-0.2734375,-0.56787109375,0.74951171875
29968330325,-0.23486328125,-0.55322265625,0.7412109375
29968346012,-0.22216796875,-0.52587890625,0.74560546875
29968369162,-0.20556640625,-0.49658203125,0.755859375
29968390294,-0.16162109375,-0.48388671875,0.77978515625
29968406648,-0.1279296875,-0.4599609375,0.802734375
29968429174,-0.09765625,-0.4580078125,0.8212890625
29968450451,-0.06982421875,-0.44091796875,0.8486328125
29968466018,-0.04150390625,-0.46923828125,0.84326171875
29968489176,-0.02783203125,-0.505859375,0.83740234375
29968510376,-0.0029296875,-0.537109375,0.84521484375
29968526016,0.0322265625,-0.5439453125,0.84765625
29968549191,0.01513671875,-0.56201171875,0.8564453125
29968572111,0.01171875,-0.52587890625,0.86474609375
29968585993,0.02783203125,-0.46484375,0.86767578125
29968609187,0.0380859375,-0.4482421875,0.87060546875
29968631670,0.05908203125,-0.45751953125,0.87841796875
29968645993,0.07861328125,-0.46826171875,0.8720703125
29968669139,0.09375,-0.47021484375,0.85400390625
29968691658,0.11572265625,-0.4580078125,0.83251953125
29968705993,0.1376953125,-0.47802734375,0.83203125
29968729219,0.1416015625,-0.47900390625,0.84716796875
29968751716,0.1376953125,-0.4267578125,0.888671875
29968766023,0.1298828125,-0.4228515625,0.9306640625
29968789169,0.12353515625,-0.44384765625,0.91845703125
29968811632,0.1220703125,-0.45068359375,0.890625
29968832826,0.13330078125,-0.4482421875,0.861328125
29968849646,0.14111328125,-0.45263671875,0.84521484375
29968871637,0.1611328125,-0.43408203125,0.83740234375
29968885967,0.1513671875,-0.42529296875,0.8251953125
29968909195,0.14501953125,-0.4208984375,0.8154296875
29968931669,0.14697265625,-0.45068359375,0.8115234375
29968952845,0.1513671875,-0.44873046875,0.82763671875
29968969156,0.18212890625,-0.4638671875,0.8984375
29968991676,0.20849609375,-0.462890625,0.93798828125
29969005993,0.13671875,-0.45849609375,0.85546875
29969029165,0.1201171875,-0.529296875,0.80419921875
29969051680,0.20654296875,-0.5419921875,0.8037109375
29969072870,0.2177734375,-0.416015625,0.82763671875
29969089199,0.16455078125,-0.34130859375,0.80859375
29969111649,0.17138671875,-0.38671875,0.8125
29969132852,0.1904296875,-0.4638671875,0.8330078125
29969149151,0.1650390625,-0.5,0.83935546875
29969171623,0.14208984375,-0.482421875,0.8603515625
29969200359,0.1416015625,-0.435546875,0.87890625
29969209200,0.14697265625,-0.4091796875,0.876953125
29969231646,0.138671875,-0.42041015625,0.8623046875
29969252808,0.15283203125,-0.46142578125,0.83642578125
29969269131,0.17041015625,-0.46728515625,0.81787109375
29969291681,0.18212890625,-0.45361328125,0.82275390625
29969312812,0.17138671875,-0.44189453125,0.8291015625
