28371332516,3,3,4,4,3,4,1,-1
28371332516,-4,-11,-11,-8,-3,-4,-3,-1
28371333310,2,12,3,-6,-7,-3,0,-1
28371333310,-1,-3,3,11,9,1,1,0
28371337533,-3,-15,-5,0,0,-1,0,-1
28371337533,3,18,7,-3,-3,-2,-1,0
28371338186,-3,-10,0,2,-1,-1,-2,-3
28371338186,-3,-1,-7,-12,-10,-4,-3,-3
28371352084,1,0,4,8,4,0,-1,0
28371352084,2,-5,1,0,0,-1,0,-1
28371352807,-2,1,0,0,3,0,-2,-2
28371352807,-2,3,-1,-2,-1,0,-1,0
28371359444,-3,-4,-6,-6,-4,-5,-6,-4
28371359444,-5,1,-4,-4,-6,-3,-1,0
28371375139,1,-2,5,8,2,4,2,2
28371375139,4,0,2,4,2,2,2,0
28371380922,-1,3,-2,-5,-4,-2,-1,0
28371380922,0,6,-3,0,-2,-1,-2,-1
28371404662,-4,-9,-5,-6,-2,1,1,0
28371404662,-4,-2,-4,-4,-5,-3,-2,-2
28371406146,-1,-2,-5,-10,-11,-5,-3,-2
28371406146,1,-1,7,15,16,7,2,-2
28371427796,-2,4,0,3,3,1,0,-1
28371427796,0,-4,-3,0,-2,-2,-1,0
28371429157,-4,5,0,-5,-2,-4,-1,-3
28371429157,-1,-1,-3,-6,-7,-3,-3,1
28371442590,1,2,1,0,-3,-2,0,-1
28371442590,-1,-7,-6,-5,-4,-3,-1,-2
28371480062,0,-3,-3,-5,-1,1,0,1
28371480062,-1,-2,0,3,1,-1,-1,-2
28371480739,-2,-3,-2,-2,-1,-2,-2,-1
28371480739,0,1,1,6,4,1,-1,-1
28371481572,-1,0,-1,-1,-3,-2,-1,0
28371481572,-1,1,-1,2,0,0,-1,-3
28371482371,-1,1,-2,-6,-5,-1,-3,0
28371482371,-4,-11,-6,-3,0,1,0,-2
28371501881,3,17,8,3,1,-1,-2,-2
28371501881,-3,-2,1,1,2,0,2,-1
28371503447,0,-1,1,2,-1,-3,1,-2
28371503447,-1,-6,-7,-1,2,1,0,0
28371508138,-1,5,7,0,-2,-2,-2,-2
28371508138,-1,1,0,-6,-4,-3,-2,0
28371531929,-2,-1,-3,-3,-1,-1,-1,-1
28371531929,-3,-7,-8,-9,-5,-4,-1,-2
28371532610,-4,-11,-7,2,-4,-3,-1,-2
28371532610,1,6,6,8,8,4,0,-1
28371545479,-2,-10,-3,0,2,-2,0,0
28371545479,2,17,7,-6,-5,-4,-2,-2
28371553687,-5,-19,-8,-8,-3,0,0,-2
28371553687,-1,1,0,4,5,2,0,-1
28371568601,1,0,-2,-2,-3,-1,-1,-1
28371568601,1,0,-1,1,4,1,-1,2
28371569397,0,1,7,5,2,1,-1,-2
28371569397,-5,-12,-9,-10,-7,-3,-2,-1
28371592016,-2,4,0,-4,1,2,2,-1
28371592016,3,-3,8,5,-1,-3,-2,-1
28371592566,-2,-3,-24,-19,-9,-7,-4,-4
28371592566,1,4,0,2,-1,-2,-2,-1
28371605477,-9,-9,-6,-9,-7,-3,-1,-3
28371605477,2,4,5,-6,-8,0,0,-1
28371613794,9,2,-1,-2,4,5,4,3
28371613794,-6,3,2,9,6,1,-1,-3
28371628910,3,1,-22,-14,-3,-3,-3,-4
28371628910,-7,-13,37,22,6,2,-2,-3
28371629471,-7,-2,-6,3,3,-4,-2,-2
28371629471,-13,12,4,-9,-6,-1,-2,-6
28371651926,1,10,-11,-6,-4,1,3,4
28371651926,27,-25,-25,-2,9,5,1,6
28371652626,-1,4,29,17,3,-2,-2,-2
28371652626,10,-1,-11,-9,-5,1,-2,0
28371674486,-12,8,21,11,2,0,-3,-5
28371674486,-10,7,-21,-17,-8,-6,-2,-3
28371675131,1,-4,-4,6,7,1,0,1
28371675131,-3,-14,-20,-9,-1,0,0,1
28371688625,2,19,33,9,-1,-3,-4,-2
28371688625,-8,1,13,5,-3,-2,-1,-1
28371689433,-2,-8,-26,-13,-2,-1,-1,-1
28371689433,-4,1,19,6,-4,-4,0,-3
28371711906,14,-4,-3,7,10,6,4,6
28371711906,-21,-3,1,4,0,1,-1,-6
28371712628,-7,1,2,-19,-15,-7,-3,-2
28371712628,16,-4,-39,-12,1,3,4,6
28371734502,-3,-13,12,23,4,-2,-1,-3
28371734502,4,11,19,4,4,4,2,-2
28371735141,22,11,3,8,2,2,-2,2
28371735141,-11,29,22,-5,-12,-9,-5,-3
28371756863,2,-42,-18,-9,-6,-1,-1,-1
28371756863,-2,22,-31,-21,-4,-3,-1,2
28371757603,-16,-27,-19,-16,-10,-5,-5,-5
28371757603,-24,-4,48,38,14,1,-4,-10
28371771950,23,20,5,-4,-3,1,4,8
28371771950,5,20,-20,-18,-12,-11,-12,-5
28371772639,-19,-16,13,4,4,6,6,6
28371772639,43,-15,-31,-8,2,-4,-3,-1
28371794413,-17,7,3,-1,-2,-1,3,6
28371794413,3,-6,2,0,-5,-6,1,1
28371795154,-5,20,1,-8,-8,-2,-1,-3
28371795154,-23,-14,-28,-23,-10,-1,-2,-3
28371808722,5,-12,31,32,19,5,-3,-6
28371808722,16,23,-7,-9,-2,-1,-1,1
28371809464,-28,-3,15,10,8,5,1,-7
28371809464,-6,-31,-8,8,2,-5,-14,-4
28371831921,15,0,-53,-36,-10,-7,-19,-8
28371831921,-20,6,27,24,14,11,34,9
28371832683,31,4,-16,-13,-10,-5,-12,2
28371832683,0,7,21,27,12,8,24,8
28371861945,9,12,11,-3,-3,-5,-1,-1
28371861945,6,22,5,5,-4,-7,-23,-12
28371862620,-6,-17,-33,-32,-11,-6,6,-1
28371862620,-1,4,-17,2,1,5,-1,-2
28371868750,-51,-65,-15,-1,-4,-9,-29,-16
28371868750,43,30,14,3,1,-1,-21,0
28371869429,21,31,36,18,7,8,41,19
28371869429,-28,-39,-17,-26,-15,-9,-11,-9
28371891940,12,23,4,6,-1,-2,8,-1
28371891940,-14,-26,-25,-9,-9,-10,-19,-2
28371892613,-1,3,2,14,16,13,-5,-3
28371892613,18,20,11,-6,-2,1,14,9
28371914394,-16,-13,-11,-8,-3,-3,-10,-5
28371914394,3,-25,41,8,-10,2,39,9
28371915110,27,34,-15,11,7,-4,-33,4
28371915110,-6,1,35,9,3,2,5,5
28371928777,-13,-18,-60,-34,-8,-1,-6,-1
28371928777,-9,12,48,31,5,-1,7,-5
28371929422,-13,-9,6,-10,-9,-7,-4,-1
28371929422,6,5,-10,11,12,4,-1,3
28371959422,-1,2,-32,-12,3,5,6,2
28371959422,-12,-15,15,14,8,5,-3,-11
28371960103,3,2,23,9,-7,-6,-35,-20
28371960103,-1,-1,7,-7,-3,1,32,16
28371981992,0,2,20,5,-2,-4,-19,-4
28371981992,-14,-14,-42,-20,-4,-4,-1,-13
28371982647,-15,-31,22,21,11,8,33,16
28371982647,17,19,-12,-17,-9,3,22,15
28371988771,8,5,-31,-19,-18,-8,-2,2
28371988771,-8,-9,24,15,5,-6,-27,-28
28371989443,7,14,-59,-28,-3,2,7,11
28371989443,-17,-20,88,31,-6,-13,-23,-14
28372012007,-11,-5,-5,-6,-6,-7,-4,-10
28372012007,-17,-18,-86,-57,-18,-21,-51,-39
28372012647,6,12,16,34,11,15,49,28
28372012647,13,15,-17,-9,9,16,21,9
28372034458,10,15,1,11,7,9,15,14
28372034458,1,8,93,47,17,9,6,12
28372035116,-19,-21,-34,-24,-11,-25,-50,-40
28372035116,0,-6,-58,-38,-15,-4,-21,-4
28372048058,3,22,43,35,8,-1,-2,2
28372048058,0,-14,-63,-23,1,12,17,11
28372056558,6,-17,-40,-39,-15,1,22,0
28372056558,-9,19,104,82,6,-21,-71,-34
28372071829,-7,-22,-49,-29,-6,2,27,6
28372071829,-1,-1,15,16,0,-2,24,30
28372072625,0,-8,-42,-22,-1,0,-12,-6
28372072625,2,-7,-1,-20,-9,-9,-22,-5
28372094317,-2,13,74,43,9,6,3,-13
28372094317,5,-8,-33,-26,-11,-3,11,18
28372095124,-9,-2,-1,-6,0,-5,-10,-10
28372095124,-1,2,-27,1,0,-2,6,-6
28372108748,1,23,61,33,2,-11,-17,-11
28372108748,3,-5,-25,-18,8,8,4,14
28372109432,7,1,42,6,-1,21,42,3
28372109432,2,0,-14,4,8,1,-7,4
28372139419,-21,-18,-16,-16,-12,-22,-36,-22
28372139419,13,15,-25,9,3,2,2,9
28372140106,7,16,50,39,16,30,45,18
28372140106,-1,-18,-90,-61,-18,-5,17,7
28372154899,1,7,1,11,-6,-16,-16,1
28372154899,-6,3,29,19,-4,-35,-84,-41
28372156443,-2,-13,-41,-35,-5,17,20,13
28372156443,-1,-5,-42,-15,2,13,12,-5
28372168094,6,9,2,2,6,13,26,-11
28372168094,29,7,13,21,0,5,25,51
28372176983,-9,3,17,-4,-7,-28,-41,-32
28372176983,2,-7,7,-5,-5,-24,-53,3
28372191296,-3,12,12,-3,10,23,13,12
28372191296,-11,-14,-32,-16,7,21,64,-3
28372198103,-4,-8,28,55,7,-12,-19,-6
28372198103,23,24,31,-6,-4,-18,-23,-11
28372214480,2,10,33,16,2,6,2,18
28372214480,-7,-16,-68,-58,-12,9,-2,-38
28372215939,-1,-29,-109,-107,-15,-6,0,10
28372215939,7,31,93,87,14,-1,19,10
28372236951,-7,-30,-98,-49,-14,-24,-31,-23
28372236951,28,-4,-5,-10,0,30,49,56
28372238399,-23,-3,22,2,-7,-5,-17,-34
28372238399,-7,-21,-67,-47,-13,2,44,7
28372259196,4,2,-42,-17,-5,1,-19,-9
28372259196,-13,-3,47,3,-5,-20,-35,-5
28372266965,15,36,120,105,10,-13,-25,-3
28372266965,-18,-28,-90,-61,-16,9,22,-8
28372275752,5,13,95,54,12,-5,0,-5
28372275752,-24,-19,-64,-24,-17,-16,-18,-9
28372277379,4,-8,-17,-4,4,2,10,17
28372277379,-14,19,76,20,1,-20,-52,-38
28372288166,11,-20,-11,-6,-1,16,58,35
28372288166,-16,-9,-79,-39,-23,-17,-32,-42
28372296997,-2,32,115,86,16,-11,-12,-12
28372296997,-2,-15,-106,-67,-16,0,4,-6
28372310604,8,-8,37,3,3,23,33,35
28372310604,0,-11,-26,-53,-14,-11,-23,-9
28372319480,0,2,-25,0,2,3,12,9
28372319480,-2,-16,-95,-42,-9,-3,7,5
28372350119,13,24,108,56,17,3,-5,7
28372350119,0,-3,-48,-49,-13,3,11,-21
28372351630,-12,-18,1,2,-9,-15,-15,-8
28372351630,-7,-7,-1,13,1,0,-59,-42
28372352438,18,1,-82,-36,-1,18,90,69
28372352438,-18,-3,6,25,6,-8,-39,-16
28372364480,12,30,21,-7,-1,-1,-10,-36
28372364480,4,13,34,35,6,12,69,47
28372386924,-8,-6,-35,-21,-6,-5,-12,-17
28372386924,-4,-6,36,18,3,-14,-35,-3
28372388406,1,-12,-99,-58,-2,1,-17,-13
28372388406,1,-2,-14,12,3,5,25,19
28372394415,2,-6,-17,-34,-6,-7,-14,-1
28372394415,5,25,63,81,17,0,11,11
28372395930,2,-5,-26,-25,-4,-2,-1,6
28372395930,1,16,77,45,20,22,3,4
28372408023,-2,-10,-22,-6,-6,-14,-20,-14
28372408023,-8,-1,-2,5,1,-2,-27,-37
28372423092,-9,10,-22,8,10,18,22,26
28372423092,-2,-8,-7,-9,-1,-6,-14,-8
28372439313,-11,1,-23,-4,-15,-32,-57,-32
28372439313,-6,-7,-11,-24,0,15,20,3
28372440917,-4,-12,-7,5,-3,-6,10,12
28372440917,0,-4,15,-13,-5,-7,-13,9
28372462103,-15,-14,-3,-8,0,13,23,5
28372462103,6,22,127,81,17,4,22,23
28372463430,-6,1,-55,-36,-9,-21,-39,-15
28372463430,5,-1,52,31,16,25,31,4
28372484176,-4,-9,-18,-15,-6,-9,-7,-15
28372484176,14,12,13,46,12,11,38,29
28372499836,-2,-2,51,13,-8,-15,-15,-1
28372499836,-13,-10,41,17,0,-12,-33,-26
28372500561,5,20,46,13,1,-8,-9,-2
28372500561,-4,-14,-31,-24,-7,-3,0,0
28372514296,-1,-6,-28,-2,3,30,35,5
28372514296,0,-20,-68,-44,-21,-19,-9,2
28372515079,-14,-12,-56,-46,-8,2,-3,-21
28372515079,16,29,81,40,9,-8,-23,7
28372521998,14,2,79,17,4,-3,8,-12
28372521998,10,3,-4,-7,2,15,22,21
28372552240,7,-10,-34,-4,7,9,20,5
28372552240,-2,-8,-35,-40,-2,7,2,7
28372567463,-2,13,-42,7,4,-17,-49,-17
28372567463,10,32,23,41,23,24,46,19
28372568264,-12,-16,-31,-6,-12,-19,-36,-24
28372568264,-2,-10,-29,-35,-9,1,0,1
28372569949,-13,-31,-53,-44,-18,-14,-55,-13
28372569949,-4,-13,-21,-19,-4,7,47,10
28372572939,-3,11,69,54,9,11,56,21
28372572939,9,7,24,-3,2,-6,-23,12
28372589435,-4,-6,-51,-39,-4,14,-3,-25
28372589435,-6,3,-14,14,0,-4,2,-8
28372596810,-11,3,-14,-10,-2,6,19,1
28372596810,-6,6,40,45,10,3,25,-5
28372598422,-6,-17,-3,-15,-3,-6,-8,9
28372598422,-17,-6,49,32,-2,-32,-54,-30
28372619762,11,-1,-80,-52,-11,7,21,18
28372619762,2,13,77,95,22,15,20,0
28372621380,-6,12,42,14,-3,-6,-1,10
28372621380,-3,1,-3,-9,-7,-9,-34,-14
28372641896,8,-7,-51,-36,1,-14,-27,-10
28372641896,-15,-13,-30,-41,-6,7,17,-9
28372643432,8,5,6,6,7,22,63,28
28372643432,14,-2,-49,-26,-10,-3,-2,9
28372664404,-1,2,-2,-46,-14,-6,-2,-4
28372664404,-7,1,-39,1,-4,-16,-34,-24
28372665998,4,-16,-58,-23,-8,7,7,19
28372665998,-30,-10,51,1,-3,-6,5,-15
28372679418,-5,-1,-17,8,0,-3,-38,-24
28372679418,-9,-20,-63,-38,-23,-15,-6,4
28372680923,9,7,55,23,1,-7,-26,-1
28372680923,-1,-7,-21,-13,-5,-3,-9,1
28372693053,11,19,48,45,7,4,-2,4
28372693053,-15,-15,24,-7,-3,-2,3,-11
28372702003,12,19,50,50,11,2,15,17
28372702003,-8,-17,-118,-56,-12,-21,-81,-38
28372717054,-16,-20,28,-14,2,9,53,17
28372717054,26,13,13,-1,3,21,84,68
28372718426,2,-6,-63,-37,-9,-1,-1,-20
28372718426,10,24,125,68,19,-1,-30,-7
28372739486,-19,-35,-91,-87,-26,14,32,10
28372739486,-2,6,45,18,-5,-13,-16,-9
28372746933,-3,10,44,9,2,-1,3,1
28372746933,4,-2,-6,-2,-2,-2,3,2
28372761613,14,6,-7,35,7,0,-28,-1
28372761613,-1,-8,-66,-52,-19,-10,-37,-22
28372768065,-7,-17,-1,-25,-18,-11,11,6
28372768065,-1,1,-66,5,26,20,52,3
28372776918,15,25,37,24,6,0,5,18
28372776918,-15,-33,-96,-74,-22,-20,-24,-8
28372778407,-6,-1,13,27,0,-3,13,-3
28372778407,1,-18,-94,-98,-28,3,26,15
28372799448,-3,22,56,49,12,-26,-76,-13
28372799448,15,22,46,47,34,42,44,0
28372800941,-9,-7,11,16,8,-8,-21,-5
28372800941,-12,-2,32,8,-8,5,49,28
28372821903,-1,6,46,33,0,-22,-62,-34
28372821903,-8,8,37,24,-22,-4,13,11
28372823402,-4,-24,-61,-27,23,14,-6,-7
28372823402,24,46,70,80,27,10,-4,15
28372844849,-10,2,30,-12,-7,-5,-9,-12
28372844849,3,-20,-99,-27,7,6,-4,0
28372846401,-14,15,33,28,-1,-7,-21,-17
28372846401,11,-7,-53,-61,-16,3,34,26
28372859759,18,9,-51,-28,-13,2,19,9
28372859759,4,0,-81,-72,-9,-12,-28,-25
28372865574,-24,-2,21,43,4,-27,-60,-22
28372865574,10,-17,-49,-69,-5,24,5,10
28372872992,8,30,88,81,25,11,-6,-2
28372872992,-6,-13,10,-2,4,4,-14,-16
28372898960,6,-17,-90,-61,-25,-14,12,14
28372898960,-18,-3,64,56,-5,-23,3,-7
28372899768,-1,-8,84,40,14,12,9,2
28372899768,-5,-2,-9,0,1,-12,-30,-19
28372903065,14,7,44,22,5,14,31,12
28372903065,-14,3,25,27,-2,-8,-32,-14
28372919369,2,0,-43,-16,11,11,0,2
28372919369,-14,8,81,62,4,-10,-38,-16
28372920959,24,10,-30,-28,-2,15,74,33
28372920959,-17,-24,-4,-13,-10,-6,-34,-16
28372943064,10,3,-37,10,6,9,41,25
28372943064,-7,-11,-44,-70,-27,-32,-38,-16
28372948003,17,3,-21,3,15,50,84,52
28372948003,-14,-22,-35,-23,-9,-20,-41,-37
28372972036,0,-25,-116,-79,-18,8,36,22
28372972036,8,8,16,16,16,4,7,-1
28372973471,6,14,6,13,-1,-9,-27,-1
28372973471,0,1,-17,-19,-10,-17,-38,-14
28372979478,-3,-4,55,26,10,3,-20,-9
28372979478,12,25,-37,-27,-5,11,56,23
28372980902,-28,-21,24,6,-4,-16,-52,-31
28372980902,21,8,-15,-3,3,12,21,24
28372993081,-6,-8,-38,-9,-3,4,14,1
28372993081,4,-18,-55,-34,-7,8,15,7
28373001972,-9,32,44,38,0,-41,-85,-46
28373001972,1,-2,20,9,17,38,94,29
28373016989,10,24,72,89,31,2,-1,3
28373016989,-11,-14,-44,-18,-3,3,19,21
28373018429,-9,-15,24,-17,-9,-6,-20,-5
28373018429,-4,10,-38,-11,-15,-25,-52,-35
28373047417,-20,-25,14,-19,-10,-17,-34,-23
28373047417,-3,9,53,37,16,18,30,17
28373048912,18,18,31,26,-1,-12,-26,3
28373048912,-14,-10,29,41,5,-2,19,-25
28373053102,6,12,20,-1,-1,5,11,3
28373053102,-8,-23,-63,-49,-16,-19,-33,-20
28373069458,-2,-11,-38,-7,9,19,15,5
28373069458,3,24,23,13,2,-13,-24,-16
28373076336,10,-11,-40,-33,-13,23,79,63
28373076336,-21,-20,14,-2,6,9,11,-6
28373099946,-19,4,-4,10,-7,-27,-71,-55
28373099946,19,-5,-42,-39,5,35,91,62
28373100751,-2,-8,-78,-38,-15,-14,-4,-15
28373100751,6,21,56,33,5,-9,-38,-3
28373102357,14,-3,16,36,8,22,46,20
28373102357,-24,3,24,15,-5,-15,-37,-34
28373121762,1,-14,-46,-31,-8,-5,-18,-8
28373121762,7,19,78,48,15,7,14,7
28373123369,-10,-29,-110,-89,-27,-20,-72,-39
28373123369,10,-8,-47,-45,-2,12,73,49
28373136917,-4,12,77,69,11,-7,-25,-22
28373136917,-5,8,19,5,-6,-18,-40,-16
28373138432,-7,-5,-9,-13,5,22,62,25
28373138432,9,-1,2,-5,-1,-4,-32,-7
28373174441,-20,-21,-48,-58,-18,-12,-33,-24
28373174441,12,18,43,53,23,-1,-25,-9
28373175925,2,-3,-38,-20,-6,6,37,27
28373175925,10,4,-11,16,6,7,-11,-18
28373189871,4,20,89,28,8,3,19,36
28373189871,-1,4,23,28,-4,-10,-16,-12
28373197596,2,5,-45,-23,-2,2,19,6
28373197596,-2,-1,9,18,2,-13,-60,-18
28373198262,-3,10,35,21,2,-9,-19,-23
28373198262,-1,-13,-74,-34,-10,2,6,5
28373199906,4,16,84,70,19,-2,-6,1
28373199906,1,9,70,12,3,16,45,21
28373219397,-11,-4,17,10,1,-1,-11,-25
28373219397,9,0,6,-12,1,11,30,37
28373220922,-6,-6,-15,-6,-8,-9,-2,-15
28373220922,-1,-7,28,1,4,1,5,12
28373249868,9,11,-44,-3,1,-3,-2,1
28373249868,-9,18,92,52,13,13,22,-4
28373251415,1,-10,-9,-30,-11,-6,-17,-14
28373251415,-12,-27,-51,-14,-11,-15,-20,-8
28373256203,1,-1,-66,-27,-14,-11,-22,-7
28373256203,-4,-2,-7,-9,-5,-3,-22,2
28373263124,13,15,90,29,13,18,61,31
28373263124,-4,5,-32,-5,-5,-10,-43,-18
28373279413,-8,-7,-17,-22,-8,-7,-22,-26
28373279413,5,2,-11,24,10,8,35,35
28373280901,-10,5,40,9,5,1,4,-6
28373280901,13,5,-10,-15,-15,-11,-25,8
28373301826,-14,-11,-23,-21,-10,-19,-62,-36
28373301826,3,8,16,11,2,7,68,24
28373303473,-12,-25,-118,-83,-26,-5,7,-8
28373303473,3,0,1,-20,2,-5,-29,-15
28373316660,-5,-4,61,62,18,5,25,32
28373316660,-2,1,-31,-8,-1,4,-8,-29
28373324619,5,7,-4,-5,-4,-18,-53,-10
28373324619,-19,-37,-61,-44,-7,19,72,11
28373339543,10,17,-35,-35,-12,-5,-13,2
28373339543,14,-22,-68,-37,-12,-12,-24,-2
28373340930,1,12,22,23,11,9,19,14
28373340930,-6,20,104,55,8,-11,-35,-15
28373369532,-15,-33,-66,-49,-16,-2,1,-15
28373369532,4,-15,-38,-3,-1,7,32,10
28373370921,4,22,32,7,2,1,-37,-8
28373370921,0,3,-4,-10,-4,-3,-2,10
28373376267,12,-5,-2,-20,-1,4,18,12
28373376267,-4,17,95,54,9,-11,-38,-32
28373383082,-11,-48,-100,-65,-13,11,40,10
28373383082,14,21,18,24,10,-3,-52,-13
28373399477,-25,-20,-53,-23,4,14,66,31
28373399477,-3,11,20,0,3,-11,-43,-25
28373400928,-6,-18,-41,-46,-12,10,33,8
28373400928,-2,10,-31,6,6,2,-7,-16
28373421898,9,0,22,-3,1,7,7,16
28373421898,4,-6,-21,-18,-6,-3,-10,-1
28373423396,-4,-1,-4,-5,-5,-3,14,16
28373423396,3,-4,-21,-8,-8,-18,-38,-27
28373451948,-26,-10,-29,-5,-7,-26,-66,-65
28373451948,29,4,33,3,8,37,74,66
28373453406,13,21,93,83,21,10,39,17
28373453406,1,-3,-12,-6,-9,-3,9,17
28373459425,2,5,-10,-6,-3,-5,-27,-21
28373459425,-20,-13,48,43,11,-10,-41,-21
28373460929,-1,11,12,27,3,-5,-28,-20
28373460929,2,13,63,43,14,5,16,3
28373481893,-4,-7,-15,-16,-6,-1,8,20
28373481893,2,-3,-28,-11,-1,2,10,5
28373483392,12,-1,-31,-6,0,2,-10,6
28373483392,-21,5,49,39,-1,-12,6,-7
28373496291,-14,-8,39,17,-2,-13,-50,-41
28373496291,6,4,-76,-39,-4,16,48,22
28373503105,-4,-12,0,-10,-6,-2,32,14
28373503105,1,-3,46,7,2,-1,4,19
28373526896,4,23,73,53,7,-3,-12,-30
28373526896,-4,-11,-45,-31,-12,-7,-14,-10
28373528410,-6,0,-2,3,4,-7,-31,-19
28373528410,11,33,55,44,28,16,29,25
28373549827,6,-8,-56,-22,-3,4,3,14
28373549827,-16,-12,-60,-33,-14,-14,-14,-16
28373556781,-5,-12,-31,-21,-8,-7,-18,-7
28373556781,11,9,-36,-14,-5,6,11,-2
28373557622,10,8,14,18,3,3,0,24
28373557622,-7,-17,-60,-45,-10,0,4,-12
28373570648,7,12,-2,26,8,0,-27,5
28373570648,-10,-14,18,1,-4,0,2,-16
28373579493,12,15,63,80,21,8,11,34
28373579493,2,-11,-42,-45,-16,-16,-25,-11
28373580930,-1,9,48,16,8,11,29,10
28373580930,-14,-11,-15,-14,-9,-15,-44,-36
28373602236,11,-9,-50,-59,-12,22,73,31
28373602236,-23,-19,10,30,7,-14,-43,-28
28373603895,20,2,-52,-18,-3,7,37,27
28373603895,-17,3,-12,0,-5,-8,-15,-16
28373624276,-18,-2,14,-1,1,-8,-34,-26
28373624276,15,-3,-50,-36,-7,12,48,40
28373625905,-8,-21,-83,-36,-9,-6,-12,-15
28373625905,10,-2,-33,-28,-17,-10,-6,10
28373646880,2,6,-25,9,11,9,20,-6
28373646880,2,19,59,37,5,-13,-29,-12
28373648421,-6,-14,3,-7,-7,7,53,11
28373648421,-2,-18,-3,-12,-2,-2,-7,14
28373661894,-10,-10,4,-23,-11,8,8,-14
28373661894,10,18,5,38,13,4,15,9
28373663380,-1,13,37,9,-1,-6,-18,-7
28373663380,10,-8,-13,-3,10,17,18,9
28373675561,-18,-24,-54,-61,-23,-10,8,10
28373675561,-5,-5,-20,-29,-12,-10,-24,-22
28373684458,-10,-2,27,-5,-9,-14,-32,-19
28373684458,-6,-8,4,18,-3,-10,-9,-1
28373699420,13,14,37,40,14,3,-5,7
28373699420,-1,11,27,18,10,7,-1,-3
28373700927,-5,2,-1,-7,-9,-29,-70,-20
28373700927,9,-6,-37,-24,6,35,88,31
28373721868,6,14,-4,0,-5,-3,24,5
28373721868,-7,-21,-34,-24,-11,-15,-57,-40
28373723419,2,-6,1,-1,2,21,88,51
28373723419,1,-9,-7,42,4,-2,-15,4
28373735568,2,12,79,82,26,7,-3,3
28373735568,-5,10,40,11,5,7,16,3
28373751953,-4,0,-53,-39,-20,-29,-59,-26
28373751953,-3,-9,-40,-30,-11,-10,-30,-8
28373759456,-2,-12,-11,-9,-4,-3,12,3
28373759456,10,-15,10,-15,-14,-8,-7,4
28373760924,-7,4,-5,14,10,2,-30,-29
28373760924,-7,-1,33,4,-7,-13,-8,-8
28373781896,12,16,-27,-28,-4,3,15,26
28373781896,-9,-2,-15,-9,-6,-7,-4,-22
28373783413,19,-10,-21,-18,-1,16,33,49
28373783413,0,14,44,16,12,12,7,-5
28373804422,3,-27,-88,-72,-24,-21,-49,-16
28373804422,-23,-10,-50,21,1,-4,-4,-12
28373805957,13,17,41,24,9,13,31,-3
28373805957,3,-7,-75,-47,-21,-12,-4,17
28373819390,-4,-13,-6,-8,-3,-1,-5,-7
28373819390,-11,7,13,-6,0,-11,-19,-5
28373820943,3,-11,17,21,4,10,16,0
28373820943,2,-5,-31,-48,-11,-5,-1,5
28373849951,0,16,72,63,15,0,-11,-10
28373849951,6,-3,1,-16,-5,12,28,10
28373857613,-6,-13,-46,-19,-9,-9,-12,-7
28373857613,1,-8,-58,-42,0,0,-7,-11
28373858456,0,0,-40,5,4,3,25,16
28373858456,1,9,35,-6,4,10,20,-4
28373881442,-6,-6,31,32,1,-24,-73,-12
28373881442,5,34,64,42,19,26,38,12
28373882254,3,-1,-13,-9,-4,-6,-16,-10
28373882254,-1,1,-15,-6,-1,6,21,12
28373885513,-16,6,38,1,-2,-9,-6,-21
28373885513,6,-39,-70,-59,-21,-15,-37,-13
28373901813,-6,28,74,59,17,-4,-8,-9
28373901813,16,23,76,53,13,9,20,23
28373903405,-7,-12,-62,-64,-16,-6,-7,-17
28373903405,-10,4,19,32,8,-7,-30,-24
28373924453,-4,-2,-50,-17,-8,-21,-65,-6
28373924453,20,-6,6,8,18,63,98,61
28373925930,-5,15,-8,0,-1,-7,-17,-12
28373925930,-4,14,-7,-5,-6,-4,5,1
28373939460,-10,-43,-73,-85,-22,-8,-23,-30
28373939460,-6,26,114,96,23,-14,-35,-23
28373940891,-4,-10,3,-9,-9,0,-2,23
28373940891,5,-11,24,8,7,14,27,15
28373961791,-13,12,31,19,2,-7,-1,-17
28373961791,-3,-3,-34,-1,-6,-21,-51,-8
28373963389,5,19,101,36,18,9,2,-7
28373963389,-17,-9,10,13,-6,-25,5,-4
28373975547,12,-3,1,0,8,28,41,8
28373975547,-10,-30,-92,-84,-17,7,28,11
28373984466,5,15,4,43,9,-14,-37,-39
28373984466,1,-3,-58,-54,-9,5,24,19
28373998446,6,10,110,84,25,13,8,9
28373998446,-7,17,51,9,-3,-20,-15,-10
28374006960,6,6,-5,4,11,27,52,13
28374006960,-1,-10,-10,-9,-1,7,15,9
28374029315,0,-15,-49,-53,-13,3,22,14
28374029315,4,-14,-100,-61,-20,-11,-18,-12
28374030895,-9,-6,41,23,4,-12,-26,-9
28374030895,7,24,-11,0,-2,0,-5,4
28374052612,-5,-16,-43,-34,-7,8,17,6
28374052612,-1,0,22,33,-1,-13,-29,-8
28374054065,-12,-55,-125,-99,-15,4,5,-4
28374054065,7,54,101,90,25,-2,-46,-20
28374059391,8,11,0,-1,-1,6,27,29
28374059391,1,-6,-22,-23,-10,-8,19,23
28374060929,-5,-8,23,12,5,19,33,-3
28374060929,0,-36,-44,-27,-13,-3,-3,-3
28374081923,-8,17,22,12,-9,-26,-43,-23
28374081923,-3,-4,18,14,7,-2,-17,-12
28374083404,7,11,-16,-2,-1,12,46,36
28374083404,-4,-18,7,-8,-14,-20,-39,-21
28374104287,2,21,62,34,4,-3,-4,-10
28374104287,2,-22,-36,-22,-4,7,12,6
28374105911,-10,-18,11,9,-6,-17,-28,-15
28374105911,-7,-8,-38,-23,-3,1,1,-3
28374126756,-13,-2,34,0,-7,1,11,4
28374126756,3,28,39,23,14,9,7,-2
28374128364,-13,-21,-9,-5,-4,-6,-15,0
28374128364,16,-31,0,13,5,7,14,10
28374140833,0,-32,-48,-20,-9,-3,7,0
28374140833,3,44,11,0,-7,-13,-25,-11
28374156957,0,47,12,5,1,3,5,6
28374156957,20,21,28,24,4,-5,4,-1
28374164326,-8,5,-12,-4,2,0,-11,-6
28374164326,0,-30,-29,-19,-9,-4,-6,-3
28374165904,-4,-5,0,-5,-9,-8,-2,2
28374165904,-15,9,13,8,7,8,9,3
28374179330,-7,-38,-26,-7,0,-2,-8,-9
28374179330,1,30,14,8,6,9,6,5
28374180938,6,-42,-1,16,4,3,3,3
28374180938,-4,23,20,9,5,2,-3,-2
28374201800,13,6,-15,-14,-7,-5,-3,1
28374201800,-21,13,-5,-14,-11,-2,3,-3
28374203406,0,-7,8,9,1,-6,-6,-3
28374203406,-1,-16,-20,-7,-3,-1,-2,-2
28374231951,0,10,-5,-6,1,2,1,3
28374231951,4,-27,-9,-4,-2,-2,-1,0
28374233412,10,56,15,6,-2,-5,-8,-3
28374233412,-13,-10,-11,-5,0,-1,0,1
28374238753,4,-6,-11,-6,-3,1,6,4
28374238753,5,-1,-1,4,0,-1,-7,-4
28374253103,-7,-15,-5,-6,-3,-2,-2,-5
28374253103,-11,5,-10,-8,-5,-3,1,-3
28374261825,2,2,3,6,3,2,0,1
28374261825,1,2,2,3,1,-2,-4,-3
28374263396,3,16,18,12,7,3,0,2
28374263396,3,-16,-25,-18,-7,-2,0,1
28374284851,-1,35,25,15,3,-1,-1,-2
28374284851,-8,-16,-1,-6,-4,-2,-2,-2
28374286368,0,1,-13,-3,0,0,-2,-2
28374286368,1,0,3,-2,-4,-5,-5,-3
28374306922,-1,-28,-9,-1,5,5,6,5
28374306922,5,15,20,10,8,5,4,3
28374308410,3,5,0,-1,-3,-2,-2,0
28374308410,6,30,16,4,2,0,0,0
28374329282,-14,-29,-16,-1,0,1,-2,-4
28374329282,5,3,-14,-9,-6,-1,1,1
28374330906,7,4,9,3,1,1,1,3
28374330906,-7,-20,-12,-5,-4,0,0,-1
28374361390,5,-15,-1,-4,-3,-3,-1,0
28374361390,-4,1,-6,-9,-3,-5,-4,-3
28374363310,-5,0,-6,3,4,1,1,-1
28374363310,3,6,9,8,2,1,1,1
28374367043,-1,22,-2,3,7,2,-1,-3
28374367043,5,0,-13,-14,-12,-6,-4,1
28374383935,-2,-3,6,4,4,-1,0,-1
28374383935,5,18,22,11,5,3,3,2
28374384747,3,31,5,-1,3,3,1,3
28374384747,-6,-23,-13,-2,-1,-1,-2,-2
28374388072,0,19,0,-1,-3,-2,-3,-5
28374388072,-1,-2,1,-1,-1,2,2,1
28374412256,6,-13,-4,-1,-1,3,4,6
28374412256,2,31,22,5,0,-3,-2,-3
28374413913,6,-8,-8,-6,-5,-1,-2,-1
28374413913,-32,-43,-18,-10,-7,-5,-4,-9
28374434392,10,37,14,3,0,0,0,0
28374434392,-7,-31,7,4,2,1,1,-1
28374435897,-1,-2,0,-3,-3,-2,-1,0
28374435897,4,12,0,-1,-3,-3,-2,-3
28374441871,-8,-2,-5,-12,-8,-5,-4,-6
28374441871,-10,-56,-29,1,4,2,-1,-2
28374443392,11,32,17,6,2,-1,-2,1
28374443392,4,14,4,-4,-2,0,1,3
28374464427,-16,-25,-20,-14,-10,-9,-6,-7
28374464427,-9,-38,-4,3,0,-2,0,-3
28374466260,5,27,4,-2,-4,-1,0,0
28374466260,-3,-24,-18,2,2,-1,-1,0
28374486868,-2,-7,-17,-12,-5,-2,-3,-4
28374486868,0,19,8,3,0,-1,0,1
28374488404,-6,-25,1,4,3,0,-1,1
28374488404,2,3,-3,-6,-5,-1,-1,0
28374517343,3,27,12,1,-1,-4,-4,-1
28374517343,-3,1,-2,-4,-3,0,-1,-3
28374518913,-5,-27,-11,-3,0,0,-2,0
28374518913,4,15,9,5,6,0,-1,-2
28374523497,-3,-11,-3,2,-1,-2,0,-1
28374523497,3,0,-2,2,3,0,0,0
28374531933,-2,-8,-7,-4,0,-1,-1,0
28374531933,-6,-4,6,-1,-3,-1,-2,-2
28374538050,0,-5,-9,-2,3,1,0,0
28374538050,-2,6,1,-6,-5,-3,-1,-5
28374564133,-4,-30,-12,10,5,3,2,-1
28374564133,-20,-56,-27,-9,-2,2,1,-1
28374564726,11,29,14,4,1,1,2,4
28374564726,1,1,-4,-4,-2,-1,-2,0
28374568046,-1,0,-8,-8,-5,-2,-3,-4
28374568046,-2,-7,-1,2,-3,-1,-1,-1
28374584264,3,-3,6,10,4,1,0,0
28374584264,-8,-8,4,0,-2,-1,-1,-2
28374585914,2,7,4,0,-1,0,-2,-1
28374585914,3,8,-3,-2,0,0,1,3
28374614408,-6,-17,-5,0,-4,-4,-3,-4
28374614408,13,42,17,-3,-2,-3,-1,1
28374615903,-9,-12,-8,-6,-3,-4,-1,-3
28374615903,7,15,1,-5,-4,-3,-2,-1
28374637542,-6,-24,-11,-2,-2,0,-1,0
28374637542,-1,2,-3,3,-1,0,-1,0
28374639080,-4,7,2,-8,-4,-3,-2,-6
28374639080,5,-1,0,-4,-5,-3,-2,0
28374643626,2,2,6,8,6,5,2,4
28374643626,-5,-15,-12,-6,-3,-2,-2,-1
28374644385,-2,4,-3,-4,-3,-1,-2,0
28374644385,7,20,7,2,0,-2,-2,-4
28374666121,-12,-14,-2,-6,-2,-1,-2,-7
28374666121,7,18,-1,-1,2,3,1,3
28374666901,4,16,8,2,-1,-1,1,1
28374666901,-3,-2,2,-3,-5,-4,-6,-6
28374682563,8,-8,-15,-3,0,-1,1,3
28374682563,-2,1,3,3,-4,-6,-2,-3
28374683404,-3,-9,-6,-9,-5,-1,0,-2
28374683404,-1,9,8,6,3,1,-3,-4
28374711736,-6,-11,-7,-5,-4,-2,-2,-3
28374711736,-5,-13,-7,-1,0,-2,0,-2
28374712573,12,9,4,0,1,1,0,0
28374712573,-15,-3,2,-1,-3,-4,-1,-3
28374734791,-8,-31,-14,-5,-2,-1,0,-1
28374734791,11,35,13,1,-2,-2,-2,1
28374735515,-9,21,17,7,2,2,-1,-1
28374735515,3,-15,-9,-7,-2,0,3,2
28374741205,3,9,6,-4,-5,-5,-2,1
28374741205,-2,-12,-5,-2,-1,-1,-1,-2
28374741964,-9,-14,-10,-4,-2,-3,-3,-4
28374741964,8,-1,-5,-5,-5,-3,-3,2
28374763661,-2,8,6,6,0,-2,1,1
28374763661,-4,-13,-10,-3,-1,0,-1,-1
28374764400,4,3,6,2,1,-1,0,1
28374764400,-2,-7,-1,-3,0,-1,0,-4
28374786194,3,17,1,-2,-3,-1,-3,-3
28374786194,-1,6,4,2,1,2,0,1
28374786924,-6,-26,-14,-2,-3,-2,-1,0
28374786924,2,20,10,10,5,2,1,0
28374809422,0,3,3,-3,-4,0,-1,-2
28374809422,-2,-5,-4,-1,1,1,0,-3
28374810078,-7,-6,-5,-2,-2,-3,-1,-3
28374810078,3,-10,-5,1,3,0,-1,-2
28374839396,-6,7,11,2,0,1,-1,2
28374839396,-16,-3,-6,-5,-4,-2,-3,-4
28374840097,4,0,0,0,0,-1,-1,-1
28374840097,10,6,0,0,-1,1,2,5
28374846189,-2,-13,-9,-1,1,-1,0,-1
28374846189,-11,-12,-3,-3,-5,-1,-2,-3
28374846947,2,-7,-5,-8,-3,-3,-2,0
28374846947,-2,13,-8,-3,1,2,-2,-4
28374862584,16,-1,-4,0,2,2,6,8
28374862584,-8,2,24,14,5,0,-1,-3
28374863382,-6,-11,-9,-1,0,0,0,-2
28374863382,-6,-4,3,-3,-6,-3,-4,-3
28374891971,5,4,-4,-5,-3,-2,-2,-2
28374891971,7,-7,-8,-4,-1,-3,-1,2
28374892526,1,12,-5,-3,-2,1,3,1
28374892526,-1,12,19,8,1,0,1,4
28374914398,4,11,2,-1,-1,-3,-1,0
28374914398,-1,-5,-5,-1,0,0,0,1
28374915071,3,-1,-1,1,-3,-3,-3,1
28374915071,-4,-6,-12,-9,-1,-2,0,-2
28374921248,-9,-1,10,7,0,-3,-5,-8
28374921248,-3,-2,-5,-7,-5,-4,-3,-3
28374921921,20,5,-6,3,2,2,2,5
28374921921,-1,3,8,1,-1,0,1,1
28374943549,-16,-16,-1,-2,-4,-4,-4,-7
28374943549,0,0,-21,-15,-1,-1,-2,-2
28374944321,-3,11,18,8,0,0,-3,-4
28374944321,-2,-17,-18,-7,-6,-4,-3,-2
28374966185,1,6,14,-1,-2,1,1,0
28374966185,7,-5,-23,-12,-4,-2,-2,1
28374966910,-5,2,23,4,-4,-2,-3,-2
28374966910,-1,-6,-8,0,-1,-3,-4,-1
28374989481,0,2,-2,7,5,4,5,-1
28374989481,-1,-6,6,-2,-1,0,-1,-2
28374990066,-1,5,-2,2,-1,-3,-2,-3
28374990066,-3,-8,-28,-15,-9,-6,-3,-2
28375011894,0,9,13,6,0,-4,-5,-1
28375011894,-4,-15,-11,-2,0,0,1,0
28375012581,-3,-10,-13,-8,-5,-4,-3,-4
28375012581,2,-9,3,2,2,2,-1,-3
28375034340,2,-8,-11,-6,-2,-2,0,2
28375034340,6,-1,-3,8,3,2,-1,1
28375035084,0,9,9,-6,-2,0,5,3
28375035084,-2,10,16,7,2,-1,0,-5
28375041220,-6,1,-11,-7,-3,-1,2,-1
28375041220,7,2,5,0,-2,-6,-4,-5
28375041906,-6,-21,-13,-3,0,0,-3,-3
28375041906,5,1,5,-2,-3,-1,-1,2
28375065073,-7,-10,-24,-8,-3,-2,-4,-3
28375065073,4,8,17,14,6,4,2,1
28375065897,-12,-3,-10,-11,-4,-3,-4,-3
28375065897,12,5,8,11,5,3,3,5
28375086169,-6,5,11,2,-3,-4,-11,-16
28375086169,0,-9,-15,-8,-6,-4,3,5
28375086909,-13,0,8,3,0,-2,1,1
28375086909,12,2,7,2,6,4,1,-1
28375101063,-6,-4,-9,-5,-5,-4,-1,-5
28375101063,-16,-4,0,-3,-2,-1,-6,-6
28375101915,0,2,-5,-3,-4,-5,-3,-1
28375101915,-11,-7,2,0,0,0,-1,-1
28375123650,0,-9,-8,3,3,1,1,-4
28375123650,4,10,7,-1,0,-1,1,-3
28375124365,12,5,-2,0,2,4,2,5
28375124365,-8,1,0,0,-1,-2,0,8
28375146089,17,0,-1,-4,-3,-4,-3,7
28375146089,-27,-13,2,5,-4,-1,0,-5
28375146977,7,7,2,2,2,-2,-4,-4
28375146977,-11,-9,-12,-6,-3,-2,0,-5
28375161177,-17,-6,3,5,1,2,0,-3
28375161177,7,2,5,6,2,0,0,2
28375161917,-9,9,1,1,0,2,-2,-6
28375161917,13,2,1,-2,-1,-2,3,4
28375183641,-10,-6,-3,-10,-6,-2,-5,-2
28375183641,17,0,-11,0,-2,3,7,7
28375184365,-1,-11,-1,1,-1,0,0,0
28375184365,-7,10,3,-8,0,1,2,-4
28375214386,18,9,16,10,2,1,1,5
28375214386,-12,-8,1,1,1,-2,-5,-6
28375215028,15,1,-3,0,-3,-4,-2,5
28375215028,0,-4,-11,-8,-4,-2,-3,-1
28375221129,-10,4,1,-2,-3,0,2,-3
28375221129,9,6,11,22,20,8,-1,1
28375221944,2,-4,-2,-4,0,1,1,0
28375221944,-12,-7,-4,0,-2,-3,-4,-7
28375243699,-3,-1,-10,-13,-8,-6,-2,0
28375243699,-18,-5,2,-6,-10,-8,-2,-1
28375244458,-2,-6,-5,-4,-9,-4,-4,-5
28375244458,5,8,10,21,14,9,4,2
28375266922,16,-2,-5,-6,-5,-3,-2,1
28375266922,9,32,6,-5,-3,-2,-2,-1
28375267603,-20,-22,-17,-9,-3,-3,0,-5
28375267603,-5,-12,3,1,-3,-1,0,1
28375289476,8,5,-1,-1,2,0,2,2
28375289476,15,7,3,-2,1,1,0,-3
28375290055,2,-8,-11,-5,-4,-1,0,4
28375290055,7,-5,4,4,-1,-1,-3,1
28375311610,-5,2,-5,3,3,-1,-2,0
28375311610,0,1,-2,-10,-6,-3,-3,-4
28375312291,1,13,13,3,-2,-1,0,-3
28375312291,-10,-3,-4,-2,-2,-4,-3,-3
28375326972,-3,-4,-1,-3,-1,1,2,0
28375326972,1,-9,-6,-3,-1,0,-1,0
28375327535,1,4,3,5,5,1,-1,-1
28375327535,-15,-10,-8,-4,-3,-3,-2,-2
28375341198,8,10,13,6,4,1,0,2
28375341198,-13,-8,-3,0,-1,0,1,0
28375341921,-1,0,-1,1,2,-1,0,-3
28375341921,4,5,-1,-4,-4,-2,-3,-2
28375363683,2,-4,-5,-5,1,2,0,-1
28375363683,-24,-17,-4,1,-3,-1,-3,-6
28375364365,1,23,13,4,2,1,0,2
28375364365,3,-12,-4,1,2,1,-2,-2
28375386187,-6,7,-1,-2,-2,0,1,1
28375386187,5,-3,-1,0,3,-1,1,1
28375386961,-4,-3,-4,-5,-4,-4,-3,-3
28375386961,-8,-1,-4,1,5,2,0,-1
28375401157,3,4,-4,-9,-6,-5,-5,-4
28375401157,2,-12,1,14,8,5,2,2
28375401906,5,14,14,7,0,-2,0,6
28375401906,6,3,5,1,-3,-3,-1,0
28375423673,-7,-13,-9,-2,0,-2,-1,-4
28375423673,3,3,-3,-12,-9,-5,-2,-2
28375424345,-2,-5,-5,-2,0,0,0,-3
28375424345,4,2,-2,-2,-1,-2,-3,-4
28375446868,-15,-7,0,0,-2,0,-3,-2
28375446868,1,-3,-4,-4,-3,0,0,1
28375447569,0,-5,-4,-1,2,2,-1,-2
28375447569,-1,14,3,-5,-4,-4,-2,-3
28375461188,1,-8,-1,-1,0,-1,1,1
28375461188,-4,-1,0,-1,-2,-2,-1,-1
28375461919,-6,-6,-5,-3,-2,0,-3,-4
28375461919,-5,-3,0,-2,-2,-1,-1,0
28375483726,7,-2,-4,-1,-1,-2,0,0
28375483726,-1,23,9,3,0,1,1,2
28375484399,-2,-18,-10,-3,-1,-2,0,-2
28375484399,0,2,0,-5,-4,-2,0,-2
28375506893,-6,-2,13,14,9,5,2,0
28375506893,2,-2,-5,-8,-6,-4,-1,-1
28375507606,0,-4,-4,5,2,3,0,2
28375507606,-2,-1,-2,-2,-2,-1,-1,-1
28375521178,3,5,-1,-1,0,-1,0,2
28375521178,-1,-6,-6,-5,-4,-3,-2,-1
28375521926,-1,1,-1,-2,-1,-2,0,-2
28375521926,1,-4,-5,-2,-3,-1,-2,-1
28375543670,0,1,-2,-3,-3,-2,-2,0
28375543670,2,-3,-1,-1,0,-2,-1,-3
28375544350,-5,-4,-3,-2,0,-2,-2,-2
28375544350,-1,1,0,-1,1,-2,0,-2
28375566873,-2,-2,-1,0,-1,0,-1,0
28375566873,4,1,1,-1,0,-1,0,0
28375567603,1,-1,0,-1,0,-1,0,-1
28375567603,-1,0,-1,0,-2,1,-1,-1
28375580518,-1,2,-1,-5,-3,-4,-1,0
28375580518,0,0,0,-1,0,0,-2,-1
28375588728,0,-6,-3,0,-1,-1,-1,-2
28375588728,-1,-1,-4,-9,-5,-3,-4,-2
28375603698,-2,-4,1,10,2,4,0,1
28375603698,3,3,6,6,5,1,1,2
28375604396,-1,0,-1,-2,1,1,-1,-1
28375604396,-5,-2,1,0,2,-2,0,0
28375626997,-1,-1,-5,-7,-6,-3,-2,-2
28375626997,1,-1,-5,-5,-4,-3,-2,0
28375627545,-3,-1,-1,-2,0,0,0,-1
28375627545,5,6,7,7,6,4,2,3
28375640490,-3,-4,-1,0,2,-1,2,1
28375640490,-2,-4,-1,6,2,3,0,-1
28375648716,0,-2,2,-2,-1,-2,-2,1
28375648716,-2,-3,-3,-4,-6,-3,-3,0
28375663680,0,0,2,3,4,2,0,-1
28375663680,-1,-1,-5,-4,-1,-1,-1,-2
28375664363,-3,-4,-3,0,-4,-3,1,1
28375664363,-1,-1,0,0,0,0,-1,-1
28375694411,0,-1,-1,-2,-3,-1,-1,0
28375694411,-2,-2,-1,-3,-2,-2,-1,1
28375695039,1,1,0,0,-1,2,-1,-1
28375695039,0,-1,-2,0,-1,0,-1,-1
28375700573,0,1,-3,-8,-6,-3,-1,-2
28375700573,-3,-4,3,10,7,1,3,-1
28375716182,-1,0,0,-3,-1,-2,-2,-1
28375716182,0,-2,-2,0,-2,-2,-1,-1
28375723708,1,1,-2,0,-2,-2,-2,0
28375723708,1,-2,-4,-6,-5,-4,-1,-2
28375724390,-4,-3,-2,1,2,-1,0,-4
28375724390,-3,1,-2,1,-2,-2,0,-1
28375746744,-4,3,6,0,0,-1,0,-2
28375746744,-5,-1,-1,-1,-1,0,-3,0
28375747555,-2,2,-2,0,-1,-2,0,0
28375747555,-5,-2,-3,-3,-3,-1,0,-1
28375769505,-3,-2,-2,2,1,0,-3,-1
28375769505,-5,-3,1,-2,-2,0,0,-3
28375770067,-1,2,2,-3,-3,0,-1,-1
28375770067,0,-7,-3,-2,-1,-1,-1,-3
28375783724,-1,2,2,0,0,-1,0,-2
28375783724,2,1,0,-3,-3,-1,-2,0
28375784396,1,-4,-7,-2,-3,-3,-1,-1
28375784396,-1,3,5,1,2,1,-1,0
28375806880,-3,-22,-9,-3,-1,0,-1,-1
28375806880,4,19,2,-3,-2,-2,-1,-2
28375807536,1,-2,-1,0,-3,0,-1,1
28375807536,4,8,3,-2,-1,-2,-1,0
28375820491,-1,1,-3,-1,-1,0,-2,-1
28375820491,-1,-9,-5,-2,-3,-1,-2,-1
28375828676,-2,-5,-2,-2,-1,-2,-2,0
28375828676,-6,-8,-9,-1,-2,-1,-1,-1
28375843596,4,11,4,1,-1,-4,0,-1
28375843596,-2,-7,-1,1,-1,-1,1,0
28375844405,1,7,0,-2,-2,-1,-2,0
28375844405,-2,-5,-1,-2,-3,0,-2,-1
28375874363,2,0,-2,1,2,2,0,1
28375874363,-1,-2,0,-1,0,-2,-3,-2
28375875111,-3,-2,3,-1,0,1,1,-2
28375875111,-3,-2,-2,-1,-1,-2,-2,-2
28375880540,-6,-9,-5,-3,-3,0,-2,-2
28375880540,-2,4,1,-3,-2,0,-1,-3
28375888752,-1,-10,-6,0,-1,0,-2,0
28375888752,2,9,6,1,-1,-1,0,-1
28375903729,3,11,2,-1,-2,-1,-1,1
28375903729,-3,-6,-4,-1,-1,-1,-1,0
28375904394,2,4,1,-1,-1,-2,0,0
28375904394,-5,-3,-2,1,0,-1,1,-2
28375926877,-2,-5,-4,-1,1,-3,-1,-1
28375926877,1,0,-1,-2,-1,-1,0,-2
28375927543,-3,-2,-3,-1,0,-1,0,-1
28375927543,0,-19,-10,-2,0,-1,-2,0
