27787613341,-0.117797851562,0.207153320312,-0.826416015625,0.510131835938
27787637058,-0.117736816406,0.207153320312,-0.826416015625,0.510131835938
27787658377,-0.117614746094,0.207336425781,-0.826599121094,0.509826660156
27787673298,-0.119689941406,0.205932617188,-0.826843261719,0.509521484375
27787705209,-0.120849609375,0.204467773438,-0.827209472656,0.509216308594
27787707266,-0.12109375,0.204162597656,-0.827270507812,0.509155273438
27787733861,-0.116027832031,0.210266113281,-0.825805664062,0.510314941406
27787740726,-0.115539550781,0.2109375,-0.825622558594,0.510437011719
27787764557,-0.116638183594,0.209411621094,-0.825988769531,0.510192871094
27787810204,-0.118835449219,0.205932617188,-0.826904296875,0.509582519531
27787812272,-0.114013671875,0.211547851562,-0.825500488281,0.510681152344
27787832733,-0.111145019531,0.214782714844,-0.824645996094,0.511352539062
27787847455,-0.107299804688,0.217224121094,-0.824157714844,0.511962890625
27787863459,-0.107482910156,0.216796875,-0.824035644531,0.51220703125
27787892656,-0.107604980469,0.216247558594,-0.82421875,0.51220703125
27787936206,-0.107666015625,0.216186523438,-0.82421875,0.51220703125
27787945810,-0.107604980469,0.215759277344,-0.824340820312,0.512145996094
27787947297,-0.108154296875,0.21533203125,-0.824584960938,0.511901855469
27787966409,-0.103271484375,0.219421386719,-0.823669433594,0.512634277344
27787981948,-0.1044921875,0.217834472656,-0.824096679688,0.512329101562
27788004474,-0.101928710938,0.220825195312,-0.823303222656,0.512817382812
27788025686,-0.0968627929688,0.226928710938,-0.821655273438,0.513793945312
27788040650,-0.0979614257812,0.225463867188,-0.822082519531,0.513549804688
27788063133,-0.103332519531,0.218505859375,-0.824096679688,0.512268066406
27788085535,-0.102722167969,0.219482421875,-0.823913574219,0.512268066406
27788108025,-0.0977172851562,0.22607421875,-0.822204589844,0.51318359375
27788130725,-0.0986938476562,0.224792480469,-0.822631835938,0.512878417969
27788145631,-0.103454589844,0.218994140625,-0.824340820312,0.51171875
27788160647,-0.102416992188,0.218322753906,-0.824584960938,0.511779785156
27788185939,-0.102355957031,0.218566894531,-0.824829101562,0.51123046875
27788208455,-0.10205078125,0.218444824219,-0.825134277344,0.510925292969
27788220569,-0.102783203125,0.218688964844,-0.8251953125,0.510559082031
27788243139,-0.105041503906,0.221008300781,-0.82470703125,0.509887695312
27788265687,-0.10791015625,0.224853515625,-0.823974609375,0.5087890625
27788283407,-0.109313964844,0.227233886719,-0.823303222656,0.508483886719
27788303006,-0.108093261719,0.227294921875,-0.823059082031,0.509216308594
27788325660,-0.104736328125,0.225036621094,-0.823486328125,0.510131835938
27788340632,-0.1015625,0.222290039062,-0.824279785156,0.5107421875
27788363109,-0.0999755859375,0.220764160156,-0.824829101562,0.510803222656
27788388444,-0.0999145507812,0.220642089844,-0.824951171875,0.5107421875
27788409479,-0.100402832031,0.221008300781,-0.824890136719,0.510498046875
27788423125,-0.100463867188,0.220581054688,-0.825134277344,0.510314941406
27788445592,-0.100158691406,0.219787597656,-0.825561523438,0.510009765625
27788463458,-0.0997924804688,0.219055175781,-0.826049804688,0.509643554688
27788483075,-0.0993041992188,0.218444824219,-0.826477050781,0.509338378906
27788505500,-0.0986328125,0.218139648438,-0.826782226562,0.509033203125
27788521903,-0.0978393554688,0.21826171875,-0.826782226562,0.509094238281
27788543176,-0.0965576171875,0.218078613281,-0.826782226562,0.509460449219
27788566947,-0.0947265625,0.217651367188,-0.826721191406,0.510131835938
27788589456,-0.0919189453125,0.216613769531,-0.826721191406,0.511047363281
27788603128,-0.0883178710938,0.215270996094,-0.82666015625,0.512329101562
27788625718,-0.0841674804688,0.214172363281,-0.826293945312,0.514099121094
27788641975,-0.079833984375,0.213317871094,-0.825622558594,0.516174316406
27788663094,-0.0753173828125,0.213134765625,-0.824829101562,0.518188476562
27788695100,-0.0701293945312,0.212158203125,-0.824340820312,0.520141601562
27788702610,-0.0634155273438,0.209106445312,-0.82421875,0.522338867188
27788723076,-0.0562133789062,0.206237792969,-0.824523925781,0.523864746094
27788745703,-0.0509643554688,0.206481933594,-0.823608398438,0.525817871094
27788769466,-0.04638671875,0.208618164062,-0.821716308594,0.528381347656
27788783082,-0.0413208007812,0.210571289062,-0.819946289062,0.530700683594
27788805622,-0.0355224609375,0.21240234375,-0.818359375,0.532836914062
27788823492,-0.029296875,0.214233398438,-0.81689453125,0.534790039062
27788843100,-0.0234985351562,0.217041015625,-0.815246582031,0.536437988281
27788865611,-0.0170288085938,0.218933105469,-0.814086914062,0.537658691406
27788890939,-0.00872802734375,0.21826171875,-0.813720703125,0.538696289062
27788918662,0.0018310546875,0.215087890625,-0.813598632812,0.540161132812
27788926321,0.0120239257812,0.212585449219,-0.813110351562,0.541748046875
27788942627,0.0203247070312,0.212768554688,-0.811584472656,0.543762207031
27788965140,0.0270385742188,0.214599609375,-0.8095703125,0.545715332031
27788986232,0.0336303710938,0.217163085938,-0.807250976562,0.547729492188
27789002623,0.0407104492188,0.220092773438,-0.804565429688,0.550109863281
27789025060,0.0488891601562,0.222778320312,-0.801635742188,0.552551269531
27789046293,0.0582275390625,0.224914550781,-0.799011230469,0.554626464844
27789070177,0.0681762695312,0.227111816406,-0.796325683594,0.556457519531
27789092611,0.0785522460938,0.229858398438,-0.793334960938,0.558227539062
27789106262,0.0883178710938,0.234008789062,-0.789672851562,0.560180664062
27789122646,0.09814453125,0.238891601562,-0.785766601562,0.56201171875
27789145166,0.108154296875,0.243896484375,-0.781799316406,0.563537597656
27789167661,0.117858886719,0.249267578125,-0.777648925781,0.565002441406
27789181945,0.128051757812,0.25390625,-0.773559570312,0.566345214844
27789205126,0.138549804688,0.2578125,-0.769470214844,0.567687988281
27789226247,0.149108886719,0.26220703125,-0.765197753906,0.568725585938
27789250137,0.159973144531,0.266479492188,-0.7607421875,0.569763183594
27789265636,0.169555664062,0.271362304688,-0.755981445312,0.570983886719
27789296522,0.178161621094,0.277099609375,-0.7509765625,0.572265625
27789302041,0.186828613281,0.282348632812,-0.745971679688,0.573425292969
27789325113,0.196166992188,0.286682128906,-0.740966796875,0.574645996094
27789347592,0.205017089844,0.291198730469,-0.73583984375,0.575866699219
27789370120,0.21337890625,0.295776367188,-0.730712890625,0.577087402344
27789392597,0.221435546875,0.2998046875,-0.725830078125,0.578125
27789407593,0.229736328125,0.303466796875,-0.720886230469,0.579162597656
27789421926,0.237243652344,0.307312011719,-0.715759277344,0.580444335938
27789445087,0.244140625,0.310913085938,-0.710693359375,0.581909179688
27789475112,0.250854492188,0.314270019531,-0.705749511719,0.583251953125
27789497575,0.257568359375,0.317443847656,-0.700805664062,0.584533691406
27789505094,0.263793945312,0.320495605469,-0.695922851562,0.585998535156
27789528023,0.269287109375,0.323669433594,-0.691040039062,0.587524414062
27789550572,0.274536132812,0.326354980469,-0.686279296875,0.589111328125
27789572576,0.279602050781,0.328857421875,-0.681701660156,0.590698242188
27789594942,0.284545898438,0.331298828125,-0.677185058594,0.592163085938
27789625745,0.289367675781,0.333312988281,-0.6728515625,0.593627929688
27789628053,0.293884277344,0.335144042969,-0.668640136719,0.595092773438
27789649091,0.2978515625,0.3369140625,-0.664672851562,0.596618652344
27789677626,0.3017578125,0.338806152344,-0.660888671875,0.597778320312
27789685061,0.305725097656,0.340576171875,-0.657165527344,0.598876953125
27789707595,0.309326171875,0.341979980469,-0.653625488281,0.60009765625
27789728882,0.312438964844,0.343688964844,-0.650390625,0.601013183594
27789745073,0.315246582031,0.345458984375,-0.647399902344,0.601745605469
27789775120,0.318176269531,0.346984863281,-0.644470214844,0.602416992188
27789788788,0.320922851562,0.348754882812,-0.641662597656,0.602966308594
27789805092,0.323547363281,0.350158691406,-0.639099121094,0.603515625
27789827572,0.325805664062,0.351257324219,-0.636840820312,0.604064941406
27789848777,0.327819824219,0.352478027344,-0.634582519531,0.604614257812
27789872390,0.32958984375,0.353515625,-0.632629394531,0.605102539062
27789887603,0.331237792969,0.354553222656,-0.630676269531,0.605590820312
27789908641,0.333068847656,0.355773925781,-0.628723144531,0.60595703125
27789925083,0.334716796875,0.356750488281,-0.626770019531,0.606506347656
27789955093,0.336486816406,0.357360839844,-0.624816894531,0.607177734375
27789968883,0.337768554688,0.358520507812,-0.622802734375,0.607849121094
27789985096,0.339050292969,0.359619140625,-0.620849609375,0.608459472656
27790007548,0.340454101562,0.360473632812,-0.618957519531,0.609069824219
27790030063,0.341979980469,0.360900878906,-0.6171875,0.609802246094
27790045020,0.34326171875,0.36181640625,-0.615295410156,0.610412597656
27790067594,0.344177246094,0.362731933594,-0.613647460938,0.611083984375
27790105683,0.344970703125,0.363464355469,-0.612243652344,0.611572265625
27790108025,0.34619140625,0.363891601562,-0.610900878906,0.611999511719
27790127545,0.347534179688,0.364318847656,-0.609436035156,0.612365722656
27790149853,0.3486328125,0.365051269531,-0.60791015625,0.612854003906
27790165046,0.349487304688,0.365783691406,-0.606567382812,0.61328125
27790187577,0.350524902344,0.366271972656,-0.605285644531,0.613647460938
27790208726,0.351318359375,0.366821289062,-0.604125976562,0.614074707031
27790231214,0.352111816406,0.367370605469,-0.602905273438,0.614379882812
27790247616,0.353088378906,0.368041992188,-0.6015625,0.61474609375
27790276149,0.353820800781,0.368469238281,-0.600341796875,0.615295410156
27790285096,0.354431152344,0.369018554688,-0.59912109375,0.615783691406
27790307583,0.355224609375,0.36962890625,-0.597900390625,0.616149902344
27790330095,0.355773925781,0.369812011719,-0.596862792969,0.616760253906
27790351132,0.356262207031,0.369934082031,-0.596008300781,0.617248535156
27790367546,0.356262207031,0.370544433594,-0.59521484375,0.617614746094
27790390041,0.356323242188,0.370788574219,-0.594543457031,0.618041992188
27790411129,0.356262207031,0.370910644531,-0.594055175781,0.618530273438
27790435546,0.3564453125,0.37109375,-0.593383789062,0.618896484375
27790457565,0.356384277344,0.371337890625,-0.592834472656,0.619384765625
27790464405,0.35595703125,0.371459960938,-0.592590332031,0.619750976562
27790487595,0.355712890625,0.371398925781,-0.592590332031,0.619934082031
27790510518,0.355712890625,0.371276855469,-0.592468261719,0.6201171875
27790532544,0.355407714844,0.371398925781,-0.592102050781,0.620544433594
27790561195,0.354919433594,0.371887207031,-0.591735839844,0.620910644531
27790570121,0.354431152344,0.372253417969,-0.591613769531,0.62109375
27790584379,0.354125976562,0.372741699219,-0.591491699219,0.62109375
27790607587,0.354125976562,0.372802734375,-0.591491699219,0.62109375
27790630987,0.35400390625,0.372680664062,-0.591247558594,0.621398925781
27790644395,0.353637695312,0.372619628906,-0.59130859375,0.62158203125
27790667624,0.353271484375,0.372741699219,-0.591430664062,0.621643066406
27790690069,0.353210449219,0.372741699219,-0.591369628906,0.621704101562
27790704397,0.35302734375,0.37255859375,-0.591369628906,0.621948242188
27790735072,0.352966308594,0.372131347656,-0.591552734375,0.622009277344
27790765748,0.352661132812,0.372131347656,-0.591613769531,0.622192382812
27790788329,0.352233886719,0.372131347656,-0.591613769531,0.622436523438
27790790618,0.351684570312,0.372009277344,-0.591735839844,0.622680664062
27790810078,0.351196289062,0.371643066406,-0.591979980469,0.622924804688
27790840085,0.350463867188,0.37158203125,-0.592041015625,0.623352050781
27790847570,0.349487304688,0.371520996094,-0.591979980469,0.623962402344
27790870081,0.348266601562,0.371154785156,-0.592102050781,0.624755859375
27790891248,0.34716796875,0.37060546875,-0.592407226562,0.625427246094
27790913775,0.345764160156,0.3701171875,-0.592651367188,0.626220703125
27790930133,0.344116210938,0.369934082031,-0.592895507812,0.627014160156
27790950833,0.342834472656,0.36962890625,-0.593139648438,0.627685546875
27790967539,0.341918945312,0.369262695312,-0.593383789062,0.628173828125
27790990037,0.341186523438,0.368835449219,-0.593688964844,0.628540039062
27791012631,0.340576171875,0.36865234375,-0.593811035156,0.628845214844
27791042644,0.339965820312,0.368530273438,-0.594055175781,0.629089355469
27791050149,0.339660644531,0.368286132812,-0.59423828125,0.629150390625
27791071207,0.339660644531,0.368225097656,-0.59423828125,0.629150390625
27791095027,0.339416503906,0.368530273438,-0.594360351562,0.629028320312
27791116168,0.339660644531,0.36865234375,-0.594604492188,0.628601074219
27791140472,0.339782714844,0.368530273438,-0.594909667969,0.628295898438
27791149036,0.340026855469,0.368530273438,-0.594970703125,0.628112792969
27791170521,0.340087890625,0.368713378906,-0.595092773438,0.627868652344
27791192596,0.340148925781,0.368835449219,-0.595153808594,0.627685546875
27791215066,0.340209960938,0.368896484375,-0.595153808594,0.627624511719
27791230073,0.340270996094,0.36865234375,-0.595397949219,0.627563476562
27791268979,0.340270996094,0.36865234375,-0.595397949219,0.627563476562
27791274748,0.340026855469,0.368469238281,-0.595520019531,0.627624511719
27791291534,0.339721679688,0.368469238281,-0.595520019531,0.627746582031
27791320094,0.33935546875,0.3681640625,-0.595703125,0.627990722656
27791341171,0.339050292969,0.367919921875,-0.595825195312,0.628173828125
27791350061,0.338684082031,0.36767578125,-0.595886230469,0.628479003906
27791373045,0.338134765625,0.367553710938,-0.595886230469,0.628845214844
27791395105,0.337646484375,0.367309570312,-0.595886230469,0.629272460938
27791417559,0.336853027344,0.367370605469,-0.595947265625,0.629577636719
27791440019,0.3359375,0.366943359375,-0.596374511719,0.6298828125
27791446922,0.335266113281,0.366271972656,-0.597045898438,0.630004882812
27791471562,0.335083007812,0.365295410156,-0.598022460938,0.629699707031
27791492546,0.335388183594,0.364318847656,-0.598876953125,0.629272460938
27791506938,0.335205078125,0.36376953125,-0.599731445312,0.628967285156
27791530710,0.334655761719,0.362915039062,-0.600524902344,0.629028320312
27791552546,0.334106445312,0.361694335938,-0.601257324219,0.629272460938
27791566881,0.333374023438,0.3603515625,-0.602111816406,0.629638671875
27791597597,0.331909179688,0.359436035156,-0.602966308594,0.630065917969
27791620062,0.329895019531,0.358581542969,-0.604187011719,0.630493164062
27791626912,0.327880859375,0.35693359375,-0.605651855469,0.631103515625
27791650498,0.325439453125,0.355163574219,-0.607360839844,0.631652832031
27791672569,0.322326660156,0.353149414062,-0.609741210938,0.632080078125
27791695062,0.318786621094,0.351135253906,-0.61279296875,0.632141113281
27791717575,0.314819335938,0.34912109375,-0.616455078125,0.631652832031
27791748244,0.310974121094,0.346862792969,-0.620361328125,0.630981445312
27791770628,0.307250976562,0.344116210938,-0.624694824219,0.630004882812
27791773072,0.302795410156,0.340942382812,-0.629211425781,0.62939453125
27791793998,0.297302246094,0.338256835938,-0.633972167969,0.628723144531
27791815079,0.2919921875,0.334838867188,-0.639038085938,0.627868652344
27791830041,0.285949707031,0.33154296875,-0.644409179688,0.626892089844
27791852574,0.279602050781,0.328002929688,-0.650207519531,0.625671386719
27791873762,0.273010253906,0.323913574219,-0.656494140625,0.624145507812
27791890070,0.266906738281,0.318969726562,-0.6630859375,0.622314453125
27791912519,0.260681152344,0.314025878906,-0.669494628906,0.62060546875
27791933752,0.25341796875,0.309753417969,-0.67578125,0.618957519531
27791950067,0.2451171875,0.305847167969,-0.682250976562,0.6171875
27791972545,0.236450195312,0.301696777344,-0.688903808594,0.615234375
27791977917,0.228210449219,0.296997070312,-0.695617675781,0.612976074219
27792000436,0.219970703125,0.292175292969,-0.702575683594,0.610412597656
27792016883,0.211730957031,0.287170410156,-0.70947265625,0.607666015625
27792045578,0.20263671875,0.2822265625,-0.716491699219,0.604858398438
27792060534,0.193420410156,0.276977539062,-0.723449707031,0.602111816406
27792075453,0.184387207031,0.271240234375,-0.730407714844,0.59912109375
27792097995,0.175659179688,0.265197753906,-0.737365722656,0.595886230469
27792120549,0.166809082031,0.259033203125,-0.744262695312,0.592590332031
27792143044,0.157409667969,0.253051757812,-0.750915527344,0.589294433594
27792158046,0.147644042969,0.24755859375,-0.757446289062,0.585815429688
27792180601,0.137878417969,0.241760253906,-0.763793945312,0.582336425781
27792198383,0.129028320312,0.235290527344,-0.770141601562,0.578674316406
27792219402,0.120483398438,0.228515625,-0.776489257812,0.574768066406
27792240653,0.111389160156,0.222106933594,-0.782592773438,0.570861816406
27792255573,0.101440429688,0.21630859375,-0.788452148438,0.566833496094
27792278134,0.0913696289062,0.210571289062,-0.793884277344,0.563049316406
27792303374,0.081787109375,0.204833984375,-0.799011230469,0.559448242188
27792315515,0.0731201171875,0.199035644531,-0.803833007812,0.555786132812
27792345538,0.0650024414062,0.193115234375,-0.808471679688,0.552124023438
27792360508,0.0564575195312,0.187866210938,-0.812805175781,0.548522949219
27792375490,0.0475463867188,0.18359375,-0.816528320312,0.545227050781
27792400918,0.0386352539062,0.179565429688,-0.81982421875,0.542358398438
27792423407,0.0308837890625,0.175109863281,-0.822814941406,0.539733886719
27792435493,0.0243530273438,0.170593261719,-0.825622558594,0.537231445312
27792458104,0.0179443359375,0.166931152344,-0.828186035156,0.534729003906
27792480437,0.0108642578125,0.164184570312,-0.830505371094,0.5322265625
27792498366,0.00347900390625,0.162231445312,-0.83251953125,0.529724121094
27792518074,-0.00396728515625,0.16064453125,-0.834533691406,0.527038574219
27792548760,-0.0117797851562,0.159484863281,-0.836608886719,0.523986816406
27792556923,-0.0198364257812,0.1591796875,-0.838317871094,0.521057128906
27792580904,-0.0278930664062,0.159851074219,-0.839538574219,0.5185546875
27792600398,-0.0352783203125,0.16162109375,-0.840393066406,0.51611328125
27792623049,-0.0413818359375,0.164733886719,-0.841369628906,0.513061523438
27792638049,-0.0482788085938,0.168518066406,-0.842041015625,0.510131835938
27792660428,-0.0537109375,0.17236328125,-0.84228515625,0.507995605469
27792675520,-0.0576171875,0.175598144531,-0.842468261719,0.506042480469
27792700995,-0.0606079101562,0.178405761719,-0.842651367188,0.50439453125
27792729347,-0.0623168945312,0.180114746094,-0.842956542969,0.503051757812
27792735546,-0.0633544921875,0.181335449219,-0.843383789062,0.501831054688
27792758047,-0.0640869140625,0.181945800781,-0.843933105469,0.500610351562
27792780428,-0.0648193359375,0.182556152344,-0.844299316406,0.499694824219
27792796916,-0.0657348632812,0.18310546875,-0.844482421875,0.4990234375
27792825555,-0.0665893554688,0.18359375,-0.844665527344,0.498474121094
27792835854,-0.0673828125,0.183776855469,-0.844909667969,0.497802734375
27792856922,-0.068359375,0.183898925781,-0.845092773438,0.497314453125
27792878055,-0.0693359375,0.183898925781,-0.84521484375,0.497009277344
27792903345,-0.0699462890625,0.183410644531,-0.845275878906,0.496948242188
27792916922,-0.0704345703125,0.182678222656,-0.845520019531,0.496765136719
27792938196,-0.0709838867188,0.182250976562,-0.845703125,0.496520996094
27792955807,-0.0717163085938,0.182006835938,-0.845825195312,0.496276855469
27792978346,-0.0723876953125,0.181701660156,-0.845886230469,0.496215820312
27792997999,-0.0730590820312,0.181396484375,-0.845947265625,0.496154785156
27793015860,-0.0735473632812,0.180908203125,-0.846069335938,0.495971679688
27793036931,-0.073974609375,0.180358886719,-0.846313476562,0.495727539062
27793058223,-0.0743408203125,0.179870605469,-0.846496582031,0.49560546875
27793075917,-0.07470703125,0.179626464844,-0.846496582031,0.495544433594
