28121444325,-1,-2,-1,-2,0,-1,-1,-1
28121444325,-1,-3,-2,-2,-2,0,2,-1
28121445076,-1,0,-1,-1,0,1,-2,-2
28121445076,-1,0,-2,-2,-1,-1,0,0
28121449269,0,-1,-3,-2,0,-1,-1,-1
28121449269,-1,0,1,-1,1,-1,-1,0
28121450854,1,0,0,-1,0,-2,0,-1
28121450854,0,-2,-1,-2,0,-1,-3,-2
28121454939,0,1,0,-1,-2,-1,-1,-2
28121454939,-2,0,-2,0,-2,-2,-1,-2
28121463804,0,1,-2,-3,-1,-2,0,-2
28121463804,-1,0,-1,-1,0,-1,-1,-1
28121486898,-2,-2,0,-2,-1,-1,0,-1
28121486898,2,2,-1,-2,1,0,-1,-2
28121488983,-1,-1,-2,0,0,0,-3,0
28121488983,-2,-1,-1,-2,-3,-1,0,0
28121493915,-2,0,1,-1,-1,-1,-1,-1
28121493915,-2,-5,-5,-1,0,-1,-1,-1
28121517566,0,3,-1,-1,0,-1,0,0
28121517566,-1,-2,0,-1,0,0,-1,-2
28121520461,-1,-2,-2,0,0,-1,-2,0
28121520461,0,2,2,0,-2,1,-2,-2
28121537251,-1,-1,-3,-1,-2,-2,0,-1
28121537251,-2,-3,-1,-2,1,0,-1,1
28121570907,0,-1,0,0,-2,0,-1,-1
28121570907,-1,-4,-2,-2,-1,-1,0,-1
28121571724,-1,0,-1,-2,-1,-2,-2,-1
28121571724,0,-3,-1,-2,0,-1,0,-2
28121575462,0,-1,-2,0,-1,-1,-2,-2
28121575462,-1,-1,-1,-1,-1,-2,-1,-1
28121576190,0,-2,-1,-2,-1,0,0,-1
28121576190,-2,0,-1,-1,-2,0,0,0
28121582413,0,-1,0,0,-2,-1,-1,0
28121582413,0,2,2,1,0,1,-1,0
28121597274,-2,-1,-1,0,-1,-1,-1,1
28121597274,0,0,1,0,-2,-2,-3,-2
28121604874,-1,0,1,-2,1,-1,0,1
28121604874,-1,-1,0,0,0,-1,-1,-1
28121613736,-2,0,1,0,-1,-1,1,-1
28121613736,1,-2,-2,-1,-1,-2,-1,-1
28121628037,-1,1,-1,-2,0,-2,-2,-1
28121628037,-1,-2,1,-4,-1,-1,-1,-2
28121642968,0,0,0,0,-1,0,-1,1
28121642968,1,-1,-1,-1,0,0,0,-2
28121643648,-1,-1,-1,0,-1,-1,1,-1
28121643648,-1,1,-1,-1,0,0,-1,1
28121665479,1,-2,-3,0,-2,-2,1,-1
28121665479,-1,3,2,0,-2,-2,-2,0
28121666139,-1,0,-1,-1,-2,0,-1,-1
28121666139,1,-2,0,-1,0,-2,-2,-2
28121679834,0,-1,-2,-3,0,-1,-2,-2
28121679834,-1,0,-2,-1,-1,0,-2,1
28121688054,-2,-1,-1,-2,-1,-3,0,0
28121688054,0,-2,-2,-1,-3,0,-2,-1
28121702834,0,0,1,-3,0,0,-3,0
28121702834,0,-2,1,-1,-1,0,0,-3
28121703658,0,-2,-2,-3,1,2,-1,1
28121703658,-1,0,-4,-2,0,-2,0,1
28121725386,-1,-2,-2,-3,1,-1,-1,-3
28121725386,-1,-3,-2,-1,-1,0,-2,-2
28121726188,-1,-1,0,-2,-1,0,-2,0
28121726188,-1,-1,-1,0,-2,-1,-1,0
28121748555,-1,-1,-1,-1,-2,-2,-1,-2
28121748555,-2,-1,-1,-2,1,-1,0,0
28121749334,0,-1,0,-1,-2,-2,-1,0
28121749334,-2,-1,-1,-1,0,-1,0,0
28121762925,0,1,-1,0,0,1,-2,-2
28121762925,0,0,-3,-1,-2,-3,-3,-2
28121763664,-1,0,-3,1,-2,-1,-2,-1
28121763664,-2,-2,-2,-2,-3,-2,-3,-3
28121785374,0,-2,-2,-1,0,-1,0,0
28121785374,-2,-1,-2,-1,-1,-2,-1,-1
28121786156,1,-1,0,0,-2,-1,-2,-2
28121786156,-1,-1,-2,0,-2,-2,-2,-1
28121808717,-1,1,-1,1,1,-2,-1,1
28121808717,-2,-5,-2,0,-1,-1,-2,1
28121809406,-1,-1,0,0,-1,-1,-1,0
28121809406,0,0,-1,-1,-1,-1,-1,0
28121822865,-1,0,0,-2,-1,-1,-1,-2
28121822865,-2,-2,-1,-2,-2,-1,1,-2
28121823670,-2,-2,-2,-1,-1,-2,0,-1
28121823670,1,1,2,1,-1,1,0,-2
28121846201,-2,-2,-1,0,-2,-1,-1,0
28121846201,-1,0,0,1,0,-1,-1,0
28121846912,0,-2,-2,-3,-1,-1,-2,-1
28121846912,-1,-1,-3,-1,-1,-2,-1,-1
28121868647,-3,1,3,-1,-1,-1,0,-2
28121868647,0,-1,0,-2,0,-1,-1,-1
28121869347,-1,-1,-2,0,-1,-1,0,0
28121869347,-1,0,1,-1,-1,-1,-1,-1
28121882966,0,-3,-3,0,-3,-1,-1,-2
28121882966,-1,-1,-1,1,-2,0,0,-1
28121883694,0,2,0,-1,1,-1,-1,-1
28121883694,0,-1,-3,-1,-1,-1,-1,-1
28121906237,-2,-5,-3,0,1,1,-1,-4
28121906237,0,2,2,-1,0,-2,0,-1
28121906917,-1,-5,-4,-1,-1,-1,1,-2
28121906917,-2,1,1,-2,-4,-2,0,-1
28121928744,0,0,-2,-2,-4,0,-1,-1
28121928744,0,1,1,2,1,1,0,-2
28121929372,-1,1,0,0,-1,1,-1,-1
28121929372,1,-1,-2,-1,-2,-1,-1,-2
28121943045,-1,-2,-8,-17,-9,-5,-4,-1
28121943045,0,1,-1,-2,-10,-4,-3,-3
28121943670,1,-4,3,23,23,10,5,1
28121943670,-1,3,2,-6,-2,-2,-1,-1
28121966228,-1,2,6,5,2,0,0,-1
28121966228,-1,-5,-4,-7,-1,-1,2,-1
28121966914,-3,-2,-7,-14,-8,-6,-2,-3
28121966914,-1,-1,5,11,1,-3,-2,-3
28121988686,1,1,1,4,4,3,1,0
28121988686,-1,-1,-4,-4,-2,-2,-2,-1
28121989354,-1,-1,1,-1,-3,-2,-2,0
28121989354,-1,-5,-7,-8,-5,-3,0,0
28122002947,0,1,-2,-3,-4,-3,-1,0
28122002947,-2,-4,-1,1,2,1,0,-1
28122003685,-1,-4,-4,-7,-7,-3,-3,-1
28122003685,0,4,3,6,1,1,-1,-1
28122026184,-3,-3,-1,1,-1,-2,-1,-2
28122026184,-2,-3,-2,-4,-3,-3,0,0
28122026962,-1,5,-2,-12,-8,-6,-4,-4
28122026962,-2,-2,-6,-8,-3,-3,-1,-1
28122048710,2,4,15,20,6,4,0,0
28122048710,2,6,6,20,22,11,5,2
28122049364,-2,-4,0,2,0,-1,-1,-1
28122049364,0,-1,0,6,8,5,1,1
28122063009,-2,-4,-10,-16,-9,-5,-1,-3
28122063009,-2,-1,-5,-10,-10,-7,-3,-3
28122063647,-1,1,-2,-2,-1,0,-2,-2
28122063647,-2,-1,-6,-13,-5,-2,-2,-2
28122086188,-1,-7,-4,-4,-7,-4,-1,0
28122086188,-1,-3,1,11,13,5,1,0
28122086923,0,5,5,4,-2,-2,0,-1
28122086923,2,3,5,0,-1,0,-1,-1
28122108672,-2,-2,-1,-5,-1,-3,-2,-2
28122108672,0,-1,-3,-4,-5,-2,0,-1
28122109395,-1,-2,-3,-4,-3,-2,0,-1
28122109395,-3,-6,-3,-3,0,1,-2,-1
28122122977,2,0,0,-1,5,-1,-8,-8
28122122977,-4,-9,-13,-20,-14,-7,-3,5
28122123671,3,7,10,15,4,1,6,3
28122123671,2,1,8,19,20,11,4,2
28122145496,-2,-8,-14,-6,1,4,1,1
28122145496,1,6,19,4,2,1,-4,-3
28122146140,-1,-4,-5,-9,-9,-5,-6,-2
28122146140,-3,-5,0,-2,-6,-6,-2,1
28122168676,-3,-10,-6,2,4,6,4,5
28122168676,1,3,-7,-5,-5,-3,-4,-4
28122169438,-6,-10,-9,-11,-4,-3,-1,3
28122169438,10,25,11,2,-3,2,4,3
28122183050,-2,4,3,-7,-5,-5,-7,-3
28122183050,-4,-7,-3,7,5,2,4,1
28122183687,1,-4,7,14,16,6,1,-2
28122183687,-5,-12,-10,-7,-6,-5,-4,-4
28122205492,1,4,2,-1,-3,-5,-1,1
28122205492,-1,1,-1,-5,-5,-2,-3,-3
28122206211,-3,-3,-6,-11,-11,-4,-6,-4
28122206211,0,-5,-1,8,7,1,0,0
28122228726,-2,4,0,-2,-1,-2,-3,-5
28122228726,-1,-2,-5,-10,-7,-6,0,3
28122229400,-1,1,4,16,8,1,-4,-5
28122229400,-3,-2,-5,-9,-7,-6,-1,2
28122242971,2,2,2,5,1,3,4,-1
28122242971,-1,-2,-4,-1,1,1,-1,1
28122243670,-3,0,-1,-8,-5,-3,-3,-2
28122243670,-3,-7,-7,-6,-4,-3,-5,-7
28122265489,-1,3,0,-2,-2,-4,-2,-1
28122265489,0,-2,-1,-5,-3,-1,-2,-6
28122266148,2,3,6,7,5,5,3,2
28122266148,-1,-4,-4,-6,-7,-7,-7,-3
28122288538,0,1,-2,-2,-3,-2,2,2
28122288538,-1,1,-1,-4,-3,-1,-2,-1
28122289332,0,1,-3,-8,-6,0,-1,-2
28122289332,1,-4,2,16,9,7,3,-2
28122303015,-2,-6,-1,-3,-3,0,2,3
28122303015,2,3,2,1,-5,-8,-4,-1
28122303672,-1,0,-9,-16,-8,-5,-3,-3
28122303672,-2,-3,-1,-1,2,3,1,-1
28122325498,3,2,-2,-5,-6,-5,-6,-2
28122325498,-3,-6,3,8,3,-1,1,-1
28122326196,0,4,-3,-8,-5,-1,2,2
28122326196,-4,-5,-7,-6,-8,-5,-2,-2
28122348656,0,-1,7,17,19,8,3,3
28122348656,-2,-2,-3,-3,-3,-1,1,-3
28122349342,1,0,-2,-3,-1,-1,2,5
28122349342,0,0,-3,-8,-5,-4,-2,-4
28122362293,0,2,3,10,6,2,-1,-2
28122362293,-2,1,3,0,0,-1,-3,-1
28122370510,1,-1,-2,-4,-7,-10,-4,1
28122370510,-5,-3,-5,-6,1,3,-6,-10
28122385234,-1,0,3,-2,-5,-4,1,4
28122385234,3,4,-2,-2,0,0,-1,-1
28122393051,-2,-2,-5,-13,-12,-7,-4,-4
28122393051,0,-3,2,5,-1,0,1,3
28122408622,2,4,8,18,18,9,1,-1
28122408622,-1,-2,-2,-1,-1,1,-1,-1
28122409373,-1,-7,-2,3,5,1,-5,-3
28122409373,1,1,-8,-16,-12,-5,8,15
28122422352,-8,-5,-3,-9,-10,-4,-2,-10
28122422352,-1,0,-5,-2,0,-1,-1,-6
28122430591,1,4,10,13,7,5,2,3
28122430591,-1,0,-2,-1,1,2,-2,-1
28122446198,-2,1,-3,-4,-7,-3,-3,0
28122446198,-1,-2,-7,-7,-4,-4,-2,3
28122446906,-2,0,2,2,0,-1,-5,-5
28122446906,-1,-4,-12,-6,1,1,6,3
28122469166,2,5,14,10,5,-1,-2,2
28122469166,-1,-2,0,-4,-3,-6,-4,1
28122469918,2,0,1,5,3,3,-6,4
28122469918,-5,-1,1,3,0,1,7,-5
28122482306,0,-5,-12,-13,-3,-1,0,-5
28122482306,1,4,8,10,5,7,7,1
28122490525,8,17,26,19,12,8,7,9
28122490525,-5,-13,-18,-12,-4,-3,-2,-4
28122504840,4,2,-6,-11,-4,2,0,1
28122504840,-6,-16,-16,-5,-6,-3,-1,-1
28122513716,-4,-7,-12,-14,-8,-8,-4,-1
28122513716,2,13,21,15,1,-5,-10,-3
28122536211,-3,-10,-8,-17,-11,-4,0,2
28122536211,-1,0,-4,3,2,-1,-9,-2
28122537711,-1,1,-2,1,0,0,1,-5
28122537711,6,3,12,10,7,6,11,8
28122551196,-4,-5,-10,-8,-5,-1,-2,-5
28122551196,2,9,11,4,2,1,0,-3
28122552712,-6,-14,-23,-15,-7,-3,-3,-10
28122552712,3,1,-2,-3,0,-4,-9,-1
28122573797,-1,8,27,24,2,-7,-7,1
28122573797,2,3,7,-2,-1,9,12,3
28122575154,-2,-13,-31,-22,-6,-2,6,5
28122575154,-5,-2,11,7,-4,-4,-6,-4
28122587250,1,5,-2,13,13,5,5,-2
28122587250,-3,0,0,0,1,-3,-8,-4
28122596185,4,4,-1,-2,0,-2,-5,9
28122596185,-10,-13,-17,-5,-7,-8,-5,-11
28122611620,-3,-13,-13,-18,-12,1,7,6
28122611620,-4,-9,-20,-5,-2,-2,-7,-6
28122613130,12,23,33,21,11,10,17,13
28122613130,2,7,8,-1,3,0,-9,-11
28122641144,0,3,4,3,-1,-2,-4,-4
28122641144,-11,-21,-30,-24,-7,-6,-4,0
28122642609,0,7,15,12,0,-1,5,-4
28122642609,2,2,2,1,-2,0,-4,1
28122647379,-1,-1,-6,-10,-2,-1,-3,-6
28122647379,-5,-2,-2,1,2,3,-1,-5
28122656207,-12,-11,0,-2,-5,-10,-12,-12
28122656207,-3,4,1,3,1,-2,0,1
28122671203,6,13,7,1,-1,0,-3,0
28122671203,-8,-19,-9,-4,-4,-5,-2,-1
28122672660,0,2,7,8,3,0,-2,-2
28122672660,1,-6,-20,-20,1,3,6,2
28122693718,-4,-6,2,4,-7,-7,-5,2
28122693718,-2,-20,5,11,3,-1,-3,-6
28122695192,-3,25,9,-1,-1,0,-8,-18
28122695192,6,0,-1,-4,1,4,14,14
28122707267,1,13,8,9,2,-1,-5,-3
28122707267,8,18,14,-2,-2,-1,1,6
28122716207,-4,-23,-38,-27,-8,-2,-3,-5
28122716207,-1,10,28,25,2,-9,-19,-12
28122731128,-5,-4,4,2,-4,-6,-3,2
28122731128,6,0,0,0,6,16,22,7
28122732664,-3,-4,-1,1,-1,-3,-1,0
28122732664,-1,-11,-18,-16,-6,1,5,4
28122753666,-4,-10,-11,-2,-1,-3,-5,-3
28122753666,3,11,8,-1,-4,-5,-8,-1
28122755202,-2,-6,-8,-10,-8,-6,-4,-2
28122755202,-5,-7,-13,-14,-8,-1,0,-2
28122767246,4,13,22,19,11,4,1,0
28122767246,-4,-5,-22,-6,-6,-6,-8,-6
28122776204,-2,-6,-1,-6,-3,0,-3,1
28122776204,-2,-2,-6,-8,-6,-3,7,4
28122791036,-9,-9,-18,-16,-2,-2,-5,-6
28122791036,3,9,11,-2,1,1,4,2
28122792659,-1,-1,11,22,9,-5,-11,-2
28122792659,-3,-4,-7,-1,-1,4,-1,-1
28122813661,3,-5,-2,4,-2,6,13,8
28122813661,-2,5,9,9,-2,-5,-2,3
28122815168,1,4,4,-4,-4,-11,-9,-11
28122815168,2,12,16,3,1,-10,-22,-4
28122827302,-20,-27,-37,-23,-18,-14,-17,-21
28122827302,9,2,3,6,12,41,61,31
28122836236,-3,-6,-11,-7,0,12,18,1
28122836236,-5,1,8,11,3,-3,-2,-8
28122851234,0,-8,-11,-21,-14,-22,-23,-6
28122851234,0,11,9,3,0,-19,-27,-10
28122852682,0,1,-5,-1,-4,6,7,4
28122852682,-3,-17,-30,-20,-6,-2,-3,-3
28122873767,5,4,9,8,7,7,8,6
28122873767,-4,1,25,1,-6,-10,-12,-8
28122875147,1,-3,-1,11,10,1,7,4
28122875147,5,0,-17,-9,-3,-6,-10,-1
28122887321,-4,-16,-16,-6,4,12,16,3
28122887321,-8,-8,-12,-12,-11,-10,-21,-14
28122896193,8,3,16,10,9,15,26,20
28122896193,8,29,52,22,5,8,7,2
28122918684,-3,-13,-31,-13,4,6,6,1
28122918684,13,12,18,18,17,13,7,8
28122920184,-15,-16,-10,-13,-14,-13,-15,-11
28122920184,-16,-26,-20,1,0,-4,-8,-15
28122933641,11,21,31,17,6,5,14,22
28122933641,8,20,1,-12,0,-7,-9,1
28122935185,2,8,10,7,2,4,4,0
28122935185,-10,-22,-24,-14,-8,-2,-2,-5
28122947354,11,32,35,19,6,1,-2,0
28122947354,-4,-1,-4,-21,-14,-12,-6,-6
28122956181,-8,-14,-14,0,-7,-4,-7,-8
28122956181,0,-3,9,11,7,2,0,4
28122971146,6,12,5,-4,2,6,3,-3
28122971146,3,5,5,13,1,-11,-16,0
28122972582,2,5,-12,-12,0,3,4,2
28122972582,9,13,26,10,3,12,23,11
28122993644,-2,-2,-10,3,-8,-9,-5,-4
28122993644,6,6,-7,-6,-3,0,5,3
28122995177,-5,-6,18,19,4,-6,-16,-10
28122995177,-10,-13,-50,-35,-15,-7,-2,-5
28123007141,8,7,19,4,1,3,4,10
28123007141,-12,-23,-24,-1,-3,-2,-10,-12
28123022155,-4,-9,-22,-13,0,-2,4,7
28123022155,-7,5,23,0,-5,-20,-30,-13
28123029765,-17,-32,-11,-1,4,27,37,1
28123029765,13,-13,-31,-8,-2,4,10,13
28123038703,5,7,25,8,5,1,-7,2
28123038703,2,0,-1,0,1,1,10,8
28123053652,-18,-16,-12,-24,-11,-19,-27,-21
28123053652,-15,-8,-4,-4,-5,-3,-8,-14
28123055163,-14,-28,-35,-12,-12,-12,-12,-9
28123055163,9,11,8,7,6,10,16,7
28123076050,-1,-1,-8,3,-1,-7,-13,-8
28123076050,-5,6,14,2,1,-12,-19,-6
28123077557,3,-2,-13,-11,0,2,5,2
28123077557,1,8,20,22,-6,-20,-29,-9
28123090946,-5,-7,6,-2,10,21,22,5
28123090946,-1,18,60,38,5,-2,0,1
28123097231,-3,-17,-28,-11,-10,-9,-7,4
28123097231,11,-6,15,8,1,5,16,18
28123113694,8,8,-5,-9,0,-4,-6,2
28123113694,-5,4,-8,-17,-12,-8,-15,-11
28123115179,-8,2,9,14,18,7,6,0
28123115179,-3,16,22,3,-2,5,3,-6
28123136167,-1,-2,-10,16,-3,-22,-37,-10
28123136167,6,-11,-10,-10,6,27,37,15
28123137583,13,20,15,1,2,5,13,8
28123137583,-22,-56,-108,-61,-6,-6,-15,-16
28123150423,-2,10,17,-2,-9,-18,-10,-3
28123150423,3,2,-16,-4,4,15,17,4
28123157278,-3,-11,11,3,-4,-1,-8,-7
28123157278,9,18,17,13,7,4,12,8
28123173651,-11,-7,-9,-11,-12,-14,-29,-18
28123173651,4,-6,-14,-1,8,6,21,20
28123175157,-4,11,13,-7,-6,-1,-7,-10
28123175157,-4,-8,-37,-22,-11,-5,-1,-6
28123187252,-7,-14,-17,-5,-3,-2,-2,-5
28123187252,2,6,25,30,2,-11,-13,-5
28123196201,-7,-27,-43,-10,3,16,18,4
28123196201,7,13,27,13,5,-3,-10,3
28123219268,4,8,12,-7,6,5,10,11
28123219268,-17,-46,-42,-6,1,13,17,0
28123220811,3,15,64,36,-11,-19,-16,-8
28123220811,9,33,70,45,14,10,7,3
28123233545,-10,-24,7,24,-7,-11,-7,-2
28123233545,7,22,20,-7,3,0,-7,-4
28123235181,-4,-8,-50,-33,-3,-6,-10,-5
28123235181,4,-8,7,-7,1,12,17,14
28123256228,14,27,29,11,8,11,8,1
28123256228,4,1,2,10,-9,-15,-11,3
28123257688,-2,2,14,20,-1,-1,2,2
28123257688,-3,-6,-24,-12,-1,9,9,-1
28123270411,2,8,-11,-16,-1,-17,-23,-9
28123270411,7,9,20,8,10,32,42,10
28123277249,-13,-1,-8,-20,-14,-18,-20,-24
28123277249,-7,-7,-9,-3,-5,-5,-9,-2
28123293572,18,9,4,8,6,16,24,19
28123293572,-6,1,-9,-14,-6,-18,-27,-11
28123295129,-6,-19,-47,-41,-5,-2,5,3
28123295129,-3,12,32,35,11,5,-1,-9
28123316142,-9,-6,6,10,-9,-6,-4,-8
28123316142,11,1,3,-1,1,-1,0,13
28123317578,4,-7,-19,-15,3,9,10,9
28123317578,5,0,-15,-14,-10,-11,-17,7
28123331043,3,0,-15,-20,7,14,26,8
28123331043,-15,-12,-25,-18,-7,-11,-17,-19
28123337280,20,43,93,69,-2,-1,2,9
28123337280,-4,-17,-28,-9,-2,-2,2,1
28123353598,-7,-4,-13,-13,-9,-4,-13,-9
28123353598,-11,-13,-29,-32,-4,-3,-2,-4
28123355146,13,12,-5,-10,-2,0,4,13
28123355146,13,17,16,9,1,3,8,5
28123376094,1,-5,-2,4,4,7,5,11
28123376094,-3,1,14,3,-8,-16,-19,-12
28123377578,-10,1,34,28,-6,-10,-10,-10
28123377578,7,16,56,47,-1,-19,-22,-7
28123390351,-7,-15,-15,-10,6,32,45,11
28123390351,22,30,18,-4,-4,-5,-1,12
28123397326,-19,-35,-60,-40,7,8,3,-8
28123397326,-14,-27,-52,-37,-9,-7,-7,-7
28123413692,3,8,27,18,5,-10,-18,-1
28123413692,-5,-9,-18,5,0,2,3,-4
28123415197,5,11,5,-17,-5,-3,-4,-2
28123415197,-13,-12,-43,-41,-17,-7,-4,-15
28123437004,11,5,12,18,10,2,-1,14
28123437004,-18,-24,-9,7,13,9,4,-10
28123438346,14,18,22,16,0,-1,-5,5
28123438346,-13,-14,-36,-35,-9,-1,1,-12
28123450491,17,26,44,41,3,-3,-1,4
28123450491,2,4,19,18,3,-3,-7,-2
28123457312,-14,-13,-7,4,5,4,3,-8
28123457312,11,9,-10,-31,-15,-8,-1,3
28123473637,-10,-14,-15,-6,-8,-6,-7,-8
28123473637,2,4,33,39,-6,-4,-3,1
28123475218,8,15,12,8,3,1,3,1
28123475218,-15,-12,-13,-10,4,6,4,-5
28123495794,2,4,-28,-34,-11,-9,-8,-5
28123495794,-5,12,4,15,-2,-13,-14,-8
28123502154,1,0,14,7,-9,-7,-12,-7
28123502154,9,5,24,25,14,15,17,13
28123509727,1,-7,-32,-26,-7,-6,1,1
28123509727,-6,-6,-1,-9,-11,-12,-19,0
28123518715,10,3,-14,-7,11,20,32,8
28123518715,-4,2,35,27,5,1,1,-4
28123533579,-16,-22,-30,-24,-9,-11,-18,-19
28123533579,-12,-15,-20,-4,2,-13,-22,-12
28123535146,-6,-21,-53,-43,3,22,26,8
28123535146,4,-11,3,13,12,10,13,11
28123556170,5,11,20,3,1,7,14,8
28123556170,1,7,-11,-24,-13,-10,-11,-7
28123557577,-5,2,25,28,6,-9,-20,-7
28123557577,-2,4,-31,-29,-13,-5,-1,-3
28123569801,-15,-15,6,11,-1,-6,-15,-18
28123569801,-1,-3,8,4,-1,4,11,7
28123578666,0,-10,-35,-33,-7,-1,-1,4
28123578666,12,25,34,21,14,4,6,3
28123593703,-2,25,54,52,2,-7,-12,-6
28123593703,-10,-19,1,5,2,5,4,-4
28123595183,24,20,-3,9,1,-2,3,9
28123595183,-10,1,48,48,8,-3,-12,-7
28123616050,-3,-13,-37,-43,-6,12,17,7
28123616050,-11,-11,-12,-14,-4,-10,-17,-18
28123617612,17,12,19,13,11,26,37,24
28123617612,-2,7,-4,4,-2,-12,-21,-24
28123630436,-20,-32,-46,-29,-7,-1,4,3
28123630436,6,6,-5,-17,0,8,19,5
28123637305,-10,-3,7,-1,-9,-25,-38,-16
28123637305,-1,-5,-19,-23,-2,1,-5,4
28123661218,-1,-23,-44,-19,-2,5,9,15
28123661218,4,10,2,1,0,0,10,-2
28123662682,-10,0,4,12,-2,-16,-21,-21
28123662682,-9,-5,17,5,-8,-23,-41,-14
28123676227,-1,8,48,53,18,37,55,11
28123676227,15,-4,-25,-29,-5,6,13,14
28123677656,-8,5,-2,-4,-6,-10,-11,-10
28123677656,3,-6,-35,-33,-12,-7,-6,7
28123689807,14,21,0,-30,-9,-10,-10,-4
28123689807,-17,-6,18,26,6,2,-10,-12
28123698681,2,-3,10,9,1,5,20,9
28123698681,2,-20,-33,-16,-7,5,12,4
28123714271,0,5,-29,-39,-16,-18,-17,1
28123714271,3,-1,-11,0,6,12,18,1
28123715809,-2,-6,-8,-15,-4,-11,-26,-2
28123715809,-3,-4,-7,-6,-3,4,11,0
28123736079,2,-8,-15,-18,-6,1,-2,-2
28123736079,1,5,13,13,8,-9,-25,-4
28123737677,-14,-30,-38,-21,9,21,26,3
28123737677,0,-6,-52,-52,-12,2,8,2
28123749801,-27,-16,5,9,-7,-19,-30,-22
28123749801,6,10,-6,-22,0,8,12,6
28123758716,31,23,54,28,-4,-11,-16,12
28123758716,-6,-10,-14,-3,-1,28,48,13
28123773516,-10,-16,-20,-25,-9,-16,-26,-16
28123773516,-9,4,5,13,-2,-10,-8,-14
28123779835,-10,-1,1,2,5,-2,-10,-10
28123779835,9,20,35,26,9,0,-6,-5
28123796062,2,-3,-25,-15,11,9,10,3
28123796062,16,28,75,61,8,7,12,16
28123797562,-14,-13,-35,-49,-18,-10,-11,-18
28123797562,-3,19,48,52,0,-29,-49,-18
28123809792,5,-5,3,15,16,23,32,12
28123809792,13,4,-23,-29,3,22,37,17
28123818630,-19,-27,-15,3,-12,-10,-8,-9
28123818630,4,7,30,18,13,12,11,8
28123833662,-1,3,0,0,-7,-16,-16,-8
28123833662,-13,-10,0,7,-4,-5,-12,-15
28123835130,-6,-3,18,29,4,3,1,-3
28123835130,-7,-11,-42,-30,-14,-20,-16,-7
28123856822,3,0,4,10,10,22,36,7
28123856822,-3,-9,-16,-13,-11,-7,-7,-1
28123858306,15,9,-1,-11,4,5,10,10
28123858306,11,18,54,41,-5,-33,-50,-4
28123869829,-11,5,22,30,-6,0,-8,-11
28123869829,-14,-8,-20,-19,11,30,38,-3
28123878683,12,12,-11,-24,-6,-5,-1,4
28123878683,10,24,37,24,14,20,31,14
28123894310,25,24,25,19,6,-15,-18,14
28123894310,-8,-12,-12,-3,-3,-6,-7,-6
28123895899,-4,-11,-4,1,-3,1,4,1
28123895899,-7,-14,-41,-46,-11,-3,-7,-18
28123916179,3,13,-6,-3,-5,-8,-5,13
28123916179,-10,-10,5,1,-5,-13,-19,-10
28123917685,11,11,-22,-39,-12,-2,5,8
28123917685,7,-7,2,19,20,14,11,10
28123929838,10,18,19,18,3,1,-4,-3
28123929838,-13,-14,-21,-17,-17,-32,-42,-14
28123938695,-21,-13,-10,-18,-12,14,36,-4
28123938695,8,1,-1,-7,5,24,33,19
28123953768,-18,-20,-31,-12,-8,-13,-17,-17
28123953768,20,32,31,3,6,1,0,13
28123955147,1,9,30,35,21,17,7,-2
28123955147,-5,-1,-19,-23,-12,-10,3,-3
28123976276,-7,-27,-22,-26,-14,-8,-4,-2
28123976276,0,16,8,-1,-4,-11,-30,-16
28123977630,3,11,24,34,12,1,-1,9
28123977630,-9,-27,-50,-54,-12,5,10,0
28123989766,18,32,86,90,40,18,5,5
28123989766,-8,-11,17,26,4,-2,0,-6
28123998708,1,5,15,5,4,-1,-11,-10
28123998708,-17,-31,-74,-61,-10,1,6,0
28124013657,8,-1,-6,-19,-6,-7,-6,0
28124013657,5,7,-11,-8,-8,4,11,12
28124015185,-12,-24,-23,0,-15,-36,-47,-14
28124015185,8,16,25,19,9,15,19,1
28124036498,-11,-29,-87,-84,-16,6,13,-5
28124036498,14,30,85,74,24,8,9,15
28124038086,6,1,-10,-8,-2,4,-1,1
28124038086,-16,-14,-11,-10,-10,-8,-4,-6
28124058671,13,-6,-55,-76,-6,4,10,14
28124058671,-7,-7,-13,-6,5,1,-2,-7
28124060185,-9,-6,-16,-14,-5,-8,-17,-12
28124060185,1,6,26,27,3,-1,-8,-2
28124073530,-13,1,15,12,-9,-6,-5,-13
28124073530,-7,-27,-65,-56,-16,-6,-4,1
28124075218,28,38,74,62,18,9,13,17
28124075218,-14,-30,-29,-15,-6,-5,-8,-8
28124096205,12,28,54,42,8,-2,-8,-2
28124096205,4,-7,-33,-30,-14,1,14,7
28124097601,1,5,-18,-20,-10,-13,-4,2
28124097601,5,-6,-36,-44,-7,-11,-17,-4
28124109817,-14,-4,17,2,3,11,12,-11
28124109817,25,-6,-17,-16,1,7,10,24
28124118661,4,5,6,7,-2,11,26,13
28124118661,-9,-20,-51,-47,-14,-19,-29,-12
28124133668,-26,-35,-26,4,-8,-6,-10,-14
28124133668,-11,-17,-29,-16,-6,3,3,-6
28124135172,-8,-9,-29,-54,-17,-5,-6,-7
28124135172,-2,10,45,50,9,1,-5,0
28124156113,14,23,31,32,2,-21,-16,3
28124156113,3,-2,18,12,9,19,26,11
28124157583,-7,-23,-55,-53,-22,-7,-5,-4
28124157583,-12,6,3,2,-5,-26,-41,-21
28124169830,32,16,9,8,14,40,62,36
28124169830,-16,-7,-15,-20,-14,-20,-27,-31
28124178660,-10,2,-1,12,16,10,14,5
28124178660,28,21,19,16,3,15,25,21
28124201046,-4,13,53,58,17,-7,-19,-6
28124201046,-6,-9,-14,-13,-9,-7,-11,-3
28124202617,-5,4,11,0,6,0,-1,-8
28124202617,-7,7,61,73,13,4,5,-10
28124216160,3,4,20,19,6,-3,-8,1
28124216160,-7,-8,18,14,-1,-1,0,-1
28124217627,-14,-9,-22,-18,-7,-22,-42,-22
28124217627,30,36,51,40,16,15,21,27
28124238628,12,-9,-39,-43,1,29,49,21
28124238628,5,1,-13,-8,-5,-6,-1,2
28124240129,-25,-21,-3,6,-12,-11,-6,-11
28124240129,-5,1,-44,-42,-8,-13,-28,-19
28124253626,12,12,38,24,11,15,16,13
28124253626,-23,-33,-42,-26,-3,-7,-12,-11
28124255131,2,-14,-9,1,8,12,18,1
28124255131,-17,-21,-41,-55,-14,-2,-1,-7
28124276062,5,26,54,53,16,-4,-14,-1
28124276062,2,0,-32,-41,-4,-4,-7,-3
28124277578,8,9,45,58,22,14,3,7
28124277578,-15,-27,-20,-8,-1,-1,5,-4
28124298600,-22,-30,-58,-62,-30,-24,-25,-18
28124298600,5,26,50,44,0,-12,-15,-12
28124300114,23,14,1,9,10,20,20,18
28124300114,21,-4,33,25,4,5,22,28
28124312276,-9,6,22,15,-5,-13,-14,-10
28124312276,-15,-4,1,6,-3,-28,-55,-30
28124336830,-3,7,-3,-16,-2,30,49,4
28124336830,19,-4,-57,-51,-11,7,15,17
28124337540,-19,-14,-19,-14,-2,-11,-15,-12
28124337540,-4,-23,-73,-47,-16,-8,1,4
28124339125,-6,10,49,46,7,-18,-29,-15
28124339125,-14,-1,-21,-22,-2,3,-2,-12
28124358669,-2,5,16,14,3,-2,-11,-3
28124358669,-2,0,4,2,-8,-2,8,0
28124360134,5,-5,-20,-23,-5,-6,-16,-3
28124360134,-9,-11,-33,-38,-9,-11,-3,-5
28124374299,14,4,-1,-11,-14,-14,-28,-1
28124374299,26,39,69,65,28,23,26,15
28124379804,0,4,26,23,1,9,20,7
28124379804,-20,-17,2,3,-10,-10,12,-2
28124396125,-8,-16,-53,-51,-17,-11,-17,-2
28124396125,6,3,26,11,-1,4,20,11
28124397629,-2,-9,-5,5,9,4,-6,-3
28124397629,-12,-18,-33,-20,-10,-10,-20,-12
28124418594,25,41,55,47,12,5,9,9
28124418594,-6,-20,-68,-62,-7,7,7,6
28124426184,0,12,17,32,-3,-16,-14,-8
28124426184,-4,16,44,19,10,4,-5,-7
28124433048,-6,-29,-63,-50,-15,-3,6,-1
28124433048,8,13,13,18,-3,3,7,7
28124439775,-15,19,13,-21,-17,-62,-106,-41
28124439775,41,6,44,52,41,93,107,71
28124456278,-31,-25,-18,-1,-3,-4,-6,-11
28124456278,25,22,30,18,-5,-18,-29,6
28124457591,-11,-17,-37,-17,-1,18,36,11
28124457591,-24,-3,3,8,-14,-36,-36,-32
28124478621,-13,-26,-15,-10,-6,-1,2,-7
28124478621,-13,1,2,-1,10,9,12,-6
28124480128,-3,-14,-4,1,-24,-22,-17,-6
28124480128,5,19,18,13,8,-1,-13,-6
28124493502,-1,1,-10,-4,-5,-2,3,-6
28124493502,-2,12,62,47,12,-7,-17,-8
28124499773,4,-18,-42,-49,-8,10,18,15
28124499773,6,22,68,68,14,0,-5,-5
28124516271,-13,-15,-32,-31,-14,-19,-22,-12
28124516271,-20,-15,-22,-28,-12,-8,-13,-24
28124517657,23,4,-14,-21,11,29,49,36
28124517657,2,11,30,37,2,-9,-15,-11
28124538660,-3,3,-19,-23,-3,3,6,-5
28124538660,28,10,23,20,12,7,5,25
28124540125,-27,-13,-10,-11,-2,0,7,-15
28124540125,14,23,35,28,4,-1,-2,4
28124552938,3,5,17,36,6,-5,-12,-5
28124552938,-10,-11,-27,-27,3,11,11,1
28124559848,4,-2,-9,-18,-14,-11,-14,-3
28124559848,7,26,58,62,24,1,-7,-2
28124576190,0,6,0,-15,-7,3,2,-3
28124576190,-7,-10,-9,-3,-3,2,7,0
28124577596,4,0,21,40,10,-8,-10,-2
28124577596,-17,-28,-44,-38,-13,-6,-9,-12
28124598647,3,3,4,-3,-5,4,8,6
28124598647,-3,-7,-12,-8,-1,-9,-12,-6
28124600156,-4,5,-11,-7,7,14,7,-4
28124600156,-1,-18,-27,-26,-12,-4,4,5
28124613343,4,7,8,7,3,0,2,3
28124613343,-10,-18,-53,-48,-11,-1,-1,-2
28124619647,0,7,24,14,2,-8,-14,0
28124619647,-4,-1,-24,-14,-7,-10,-8,-10
28124636147,6,-2,-1,-7,4,3,4,4
28124636147,-1,-14,-19,-10,-6,1,8,5
28124637686,-1,2,8,10,2,-1,-6,-5
28124637686,-14,-30,-79,-75,-20,-5,-4,-7
28124658647,1,2,21,31,9,-1,-1,0
28124658647,4,9,11,13,3,3,5,1
28124660182,-1,-7,-17,-20,-7,-5,-4,-4
28124660182,1,1,7,0,2,1,2,2
28124672933,0,2,-5,-6,-2,-2,-3,-1
28124672933,-5,-2,11,11,1,3,3,-2
28124687338,6,1,-3,-2,0,1,-4,-1
28124687338,5,8,5,4,2,2,8,10
28124696192,-5,-16,-9,-2,-2,-1,0,0
28124696192,-3,1,5,4,-5,-5,-2,0
28124697577,0,16,1,-5,0,-1,3,-5
28124697577,4,5,16,12,4,-2,-3,-1
28124718668,-12,-39,-31,-16,-5,-2,-4,-5
28124718668,7,27,16,3,1,-1,3,3
28124720155,8,34,18,9,4,0,1,2
28124720155,-5,6,8,6,-1,-3,-5,-4
28124732249,1,-1,-1,-2,0,0,3,1
28124732249,1,-13,-16,-3,-3,-3,-1,-1
28124741186,-3,5,14,9,0,-3,-3,-1
28124741186,-1,6,8,7,-1,-2,-4,-2
28124756145,-1,-8,-7,-10,-5,-4,-3,-1
28124756145,0,-12,-29,-24,-5,6,8,6
28124757583,0,9,25,31,6,-4,-6,-3
28124757583,-3,-10,-16,-9,-3,-3,-4,-8
28124778628,0,11,25,6,2,0,-1,4
28124778628,-7,-35,-19,-5,-3,0,0,0
28124780111,4,26,7,-8,-2,1,3,5
28124780111,-1,-11,-18,-10,-4,-1,0,-2
28124801227,-1,10,10,9,3,1,-2,-2
28124801227,-7,-28,-2,6,-1,-3,-2,-3
28124802581,-6,-16,-19,-11,-3,-2,-3,-3
28124802581,-3,-14,-1,0,-2,-1,-1,3
28124817490,6,26,1,-4,0,0,0,-4
28124817490,-3,9,10,4,-1,-1,1,0
28124819130,-4,-33,-18,-2,-1,-2,-4,-3
28124819130,4,33,25,2,-2,-4,-4,-2
28124839188,1,-28,-16,-5,-2,0,2,3
28124839188,6,52,31,6,1,1,-2,1
28124840799,-9,-27,-12,-9,-6,-3,0,-5
28124840799,-5,4,-2,-1,1,0,0,-3
28124852195,-4,-12,-2,-2,-4,-4,-8,-1
28124852195,3,3,-16,-4,-1,3,6,0
28124861162,-6,-23,-7,-3,0,-1,2,1
28124861162,0,15,14,2,0,-1,-4,0
28124876206,-3,-5,-4,1,-1,-2,-2,-5
28124876206,5,16,12,3,1,0,-3,-2
28124877622,3,8,-3,-4,-4,-3,1,2
28124877622,-13,-57,-34,-6,-2,-1,0,-2
28124898644,1,17,14,4,1,0,0,-1
28124898644,-2,6,7,0,-2,-2,-1,0
28124900154,0,-7,-8,-2,0,-1,-1,-3
28124900154,3,16,12,7,2,-1,-1,0
28124912250,-8,-39,-24,-10,-6,-1,-1,-1
28124912250,0,7,8,4,1,0,0,0
28124928633,-1,-5,-6,-6,-2,1,0,1
28124928633,-2,-18,-12,-4,-2,1,0,1
28124936123,6,26,9,2,-1,-2,1,-1
28124936123,-2,-1,8,3,-1,-4,-4,-3
28124937629,1,-5,-11,-3,-1,0,-2,1
28124937629,-4,-1,2,0,0,1,-1,-2
28124958570,1,2,-3,-2,1,-1,-1,-2
28124958570,-6,-11,3,1,-1,-3,-4,-4
28124960129,-4,-5,1,-3,-3,-1,-1,2
28124960129,7,-9,-7,-3,-2,-1,-5,0
28124972364,-8,11,-1,-2,0,0,-1,-11
28124972364,-4,-8,-9,0,-3,-3,-2,13
28124981356,7,18,23,4,3,2,2,1
28124981356,-4,-1,-2,1,-1,0,0,-2
28125004370,4,17,12,4,2,-2,2,2
28125004370,-6,-27,-15,-4,-2,-3,-5,-8
28125005904,-14,-26,-29,-16,-7,-3,-3,-6
28125005904,-1,-18,-14,-6,-4,-2,-2,6
28125017903,4,19,7,-2,-1,1,-1,-1
28125017903,3,-10,-4,2,0,0,1,1
28125018592,-2,5,6,5,-1,-3,-3,-3
28125018592,-7,-29,-14,-5,-1,-3,-1,-5
28125040449,7,19,14,4,1,2,1,6
28125040449,-1,3,-2,1,0,0,1,-1
28125041147,3,-11,-6,-6,-2,-2,-1,0
28125041147,4,28,16,5,0,-3,0,-3
28125055479,-2,-18,-15,-6,-3,-2,-2,0
28125055479,-1,5,12,0,1,0,-3,1
28125056139,-1,4,-16,-1,-1,1,-2,-4
28125056139,-1,-11,7,3,-1,-4,-2,1
28125077989,-6,23,20,3,0,0,1,8
28125077989,14,15,9,-2,-2,-3,-1,0
28125078648,-2,-3,2,0,-2,-1,0,-2
28125078648,4,9,4,1,1,0,0,1
28125100470,-9,-17,-18,-6,-3,-3,-3,-6
28125100470,-1,-9,-6,1,0,-2,-1,0
28125101173,4,12,5,1,1,0,2,4
28125101173,4,6,-7,-2,-2,0,1,-2
28125115443,0,-13,-4,-4,-1,-1,-1,1
28125115443,-4,-9,-1,3,1,0,-1,-7
28125116150,7,15,5,-1,-1,-1,-2,1
28125116150,-3,7,-10,-3,1,1,-2,-1
28125153603,-2,-5,2,-1,-1,0,-1,-1
28125153603,0,-26,-34,-11,-2,-1,0,3
28125154328,-5,1,4,6,3,1,0,-1
28125154328,2,35,28,2,-2,-1,1,0
28125160422,-3,-9,0,2,1,-1,-3,-5
28125160422,-4,-2,-9,-2,-2,0,-1,-4
28125161091,0,-23,-4,-4,-3,-2,-1,5
28125161091,-4,-1,-7,-2,-3,-1,0,-2
28125175447,3,-2,-4,-1,0,-1,-2,-2
28125175447,-4,0,9,5,0,0,-1,-3
28125176105,2,-6,-13,-9,-5,-2,0,2
28125176105,-8,2,2,0,-2,-1,-2,-2
28125197958,2,10,0,-3,-3,-3,-1,-1
28125197958,-3,4,4,0,0,0,-1,-2
28125198578,0,-2,1,-1,-1,0,-1,0
28125198578,1,12,-2,1,-1,0,-2,-7
28125220383,6,6,8,4,-1,-1,1,10
28125220383,-4,10,-4,-3,-1,-1,-1,-10
28125221053,1,-3,8,2,3,0,0,1
28125221053,-1,-4,9,1,0,-1,-3,-4
28125235467,-3,-13,-16,-6,-2,-2,-3,-4
28125235467,2,20,18,7,2,1,-1,1
28125236097,-4,7,-5,-6,-5,1,-1,-6
28125236097,4,-6,-13,-3,-1,-1,0,2
28125257860,-2,0,-2,-2,-1,-1,0,0
28125257860,-1,7,24,8,0,-2,-1,-2
28125258595,-6,-7,-13,-5,-1,-2,-1,-4
28125258595,-3,-6,5,3,1,0,-2,2
28125280513,-2,-4,-9,-4,-4,-1,-2,-2
28125280513,-6,-14,-10,-4,-1,-1,-1,-6
28125281139,-2,-1,6,2,0,0,-2,-3
28125281139,-2,-1,-4,-1,0,-1,1,-4
28125296760,2,-5,4,2,-2,-2,0,3
28125296760,6,6,-1,-2,-2,-2,-2,5
28125297641,-1,4,9,0,2,-1,-4,1
28125297641,1,6,-1,-1,-3,-4,-4,-9
28125318302,-8,-4,-5,-1,-1,3,6,0
28125318302,21,7,3,1,-1,0,0,10
28125319058,-12,15,-2,0,-1,0,1,-8
28125319058,-1,-10,-6,-2,-1,1,-3,-2
28125340453,-2,-5,-4,-2,-1,-3,-5,-11
28125340453,-10,-10,-17,-6,-2,-2,-1,5
28125341119,26,5,3,9,4,1,0,6
28125341119,6,27,21,2,1,2,6,8
28125355447,-8,-24,3,-3,0,2,2,2
28125355447,3,19,-10,-7,-2,-2,-1,1
28125356126,-3,-2,-5,-2,-3,-3,-2,-8
28125356126,-3,-10,-5,-2,-1,-2,-2,2
28125377925,4,11,1,1,-1,-1,-2,-2
28125377925,-2,-9,0,0,-1,-3,-2,-5
28125378616,-9,-10,0,0,1,-1,0,2
28125378616,6,7,4,1,0,-1,0,0
28125400433,-5,-2,-3,-3,0,-1,-3,-5
28125400433,-10,-8,6,2,-1,0,0,-3
28125401108,-4,-6,-15,-9,-5,-3,-2,-4
28125401108,-6,-4,8,4,-2,1,-1,-2
28125415357,7,10,-4,-2,-1,-1,-1,0
28125415357,-7,-4,0,2,1,0,0,-5
28125416133,3,7,10,-2,-2,-1,1,9
28125416133,-3,-19,-20,-3,1,0,-1,-2
28125437892,-1,7,18,8,7,2,-1,0
28125437892,-5,-4,1,0,-1,-1,0,-4
28125438569,-2,-12,-12,-3,0,-1,-2,-2
28125438569,1,10,10,-3,-2,-3,-2,1
28125460423,0,6,5,2,-3,-3,-2,2
28125460423,-3,-11,-10,-6,-2,-1,0,-3
28125461095,-1,-8,-9,-3,-3,-3,-2,0
28125461095,-4,-10,-6,-2,-1,0,0,0
28125475401,-4,-1,-5,-2,-1,-2,-2,-5
28125475401,3,14,10,-1,-1,-2,-1,0
28125476121,1,0,4,2,1,-2,-1,-1
28125476121,-4,-10,-6,-3,-3,-4,-2,-2
28125497921,2,21,-1,-3,-1,-1,-2,-4
28125497921,0,-1,-2,-1,0,1,-2,-1
28125498587,-7,3,-2,-1,-1,0,1,-2
28125498587,4,-1,10,3,0,0,0,-5
28125520412,0,-11,-10,-3,0,0,0,-1
28125520412,-8,-5,-3,-3,-4,-3,-4,0
28125521117,-3,0,0,-1,-1,0,0,-3
28125521117,2,7,-1,-2,-3,0,-1,2
28125535465,-3,-13,-4,-2,-1,-1,0,2
28125535465,6,22,4,0,-1,-1,-1,-4
28125536123,2,-3,10,6,0,0,1,1
28125536123,-1,-4,-8,-5,0,0,-1,-1
28125557891,-5,-10,-5,0,-2,-1,-1,-2
28125557891,-1,-2,-5,-1,2,0,-1,-2
28125558661,0,9,6,-1,-1,-1,-2,-1
28125558661,-3,-8,-8,-3,-4,-1,-2,0
28125580421,-1,2,-1,-2,0,0,-1,-2
28125580421,-6,-17,-5,-1,1,1,1,-1
28125581161,3,8,4,2,-1,-1,-3,-6
28125581161,-4,3,-2,-1,-2,-2,0,5
28125594717,1,1,9,4,0,2,0,0
28125594717,-3,-13,-14,-5,-1,0,2,0
28125602903,-2,-3,3,1,1,-1,-2,-4
28125602903,-1,-9,1,0,1,0,-1,3
28125617895,2,5,-5,-1,-1,-4,-4,-3
28125617895,-4,-2,-7,-1,0,1,1,0
28125618592,-5,-3,9,-2,-4,-2,-1,-8
28125618592,-3,-4,-23,-8,-2,0,1,2
28125640444,2,-3,-16,-3,-1,1,1,4
28125640444,-8,-4,21,6,1,-1,1,0
28125641150,4,-5,7,6,0,-1,-3,-5
28125641150,10,5,12,-5,-1,-1,-1,6
28125663566,-5,-7,-17,-7,-4,-4,-1,6
28125663566,21,7,-8,-4,-1,-1,-4,-12
28125664262,-3,0,-13,-8,-2,-2,1,5
28125664262,-24,-10,15,11,2,-1,-3,-13
28125677826,17,31,16,1,-2,-2,-1,5
28125677826,-5,-10,2,0,0,1,2,1
28125678619,8,-6,-13,-5,0,-1,-4,1
28125678619,-14,3,-3,-1,0,2,2,-8
28125700411,-3,-12,-17,-3,-2,-1,0,-2
28125700411,-8,3,2,-3,-6,-4,-3,-2
28125701123,6,12,11,8,0,-2,-1,2
28125701123,-9,-8,0,4,2,-4,-16,-10
28125714770,-11,-18,-14,-9,-4,2,-2,-6
28125714770,15,11,6,5,2,2,20,14
28125723042,-14,-15,-26,-20,-11,-18,-64,-26
28125723042,5,7,14,8,2,4,12,-3
28125737888,4,0,6,-6,-3,5,33,20
28125737888,-1,-9,-12,-5,-2,-3,5,4
28125738615,-1,2,14,10,3,1,14,3
28125738615,0,0,-14,-10,-1,2,-20,-15
28125760445,-3,-4,1,2,1,-6,-12,-9
28125760445,-2,1,9,3,3,4,2,1
28125761091,-4,-2,-4,-4,-1,-2,-1,-1
28125761091,9,7,-3,0,0,-3,-4,1
28125774668,-5,-22,-3,3,3,3,8,7
28125774668,1,6,6,1,-2,-4,-12,-10
28125782546,-8,7,4,1,0,-2,2,1
28125782546,3,-8,2,-5,-2,2,13,14
28125797984,3,-5,0,6,5,7,8,-2
28125797984,3,18,-5,-5,-3,-6,-16,7
28125798624,7,-5,18,6,-1,6,13,14
28125798624,-4,-6,-23,-13,-8,-8,2,-5
28125820378,-8,-2,-13,-7,-2,-5,-9,-6
28125820378,-1,-1,41,22,6,3,-2,-12
28125821071,4,0,-18,-5,3,2,12,8
28125821071,8,2,-2,2,-1,-5,0,14
28125834718,-15,-4,0,1,1,3,-6,-24
28125834718,8,7,8,-5,-2,4,10,12
28125842943,-3,-7,-15,-7,-3,5,14,16
28125842943,1,-2,-10,-6,-1,-2,-5,-19
28125857922,-2,0,4,4,-1,-6,-9,-2
28125857922,-9,-6,2,4,1,-1,-4,-8
28125858615,-7,1,-6,-8,-3,-1,0,2
28125858615,0,1,-3,2,0,-1,1,0
28125880517,9,8,43,25,8,-1,-2,3
28125880517,-11,-10,-33,-15,-8,-9,-12,-12
28125881091,11,12,20,0,1,2,2,1
28125881091,-7,-2,-49,-23,-9,-3,-3,-5
28125894777,2,16,26,3,0,0,-4,6
28125894777,-7,-23,-19,-5,-2,-1,-5,-1
28125903060,-11,-6,-5,-1,-3,-12,-11,-9
28125903060,4,-1,1,0,1,7,3,-3
28125917945,6,-11,-42,-15,-9,-5,1,-3
28125917945,18,12,14,2,-3,0,0,8
28125918595,-7,-8,-2,8,6,13,19,18
28125918595,-9,-8,-11,-12,-6,-16,-22,-21
28125940436,-3,6,42,25,7,18,27,11
28125940436,3,-3,-19,-11,-2,1,2,2
28125941081,1,5,-2,0,-1,-1,1,-8
28125941081,-3,-7,-16,0,0,-1,-1,5
28125963655,-5,-8,-5,-7,-3,-7,-13,-2
28125963655,-7,25,21,6,1,-1,0,-5
28125964300,3,-6,5,-1,-5,-3,-3,-8
28125964300,-5,-6,5,8,-1,-2,1,7
28125977951,4,-1,-15,-6,-2,-4,-7,-8
28125977951,4,8,7,1,0,-2,0,2
28125978641,-13,-6,4,3,1,-4,-7,-11
28125978641,11,-3,5,-9,-1,6,8,9
28126000991,-3,6,-3,-4,-3,-5,-4,2
28126000991,-12,-17,0,6,1,-2,-11,-20
28126001754,7,4,-10,-4,0,-2,1,9
28126001754,3,-2,8,7,5,15,16,8
28126014762,-4,9,8,1,0,0,-1,-10
28126014762,-8,-23,-27,-15,-7,-6,-2,-2
28126022796,1,14,4,4,-1,-7,-11,-11
28126022796,2,3,16,7,0,0,3,6
28126037770,-2,-4,0,-2,-1,-8,-12,-4
28126037770,-3,-3,-18,-7,2,9,16,4
28126038540,-4,-2,13,7,-1,-1,-1,-11
28126038540,2,15,29,6,1,-1,1,8
28126061088,-3,-1,-15,-13,-5,-3,-5,-5
28126061088,-3,-2,0,2,4,0,-3,2
28126061816,0,-14,-17,-8,0,4,1,3
28126061816,-4,3,10,6,-1,-6,-5,-2
28126083525,11,1,-11,-8,-1,3,1,-1
28126083525,2,0,1,7,2,2,0,-1
28126084269,-3,-18,-14,-7,-2,0,3,7
28126084269,-2,11,-2,-1,-2,-2,-1,-1
28126097955,-1,4,14,4,-1,-5,-6,-1
28126097955,4,-3,7,1,-2,0,0,11
28126098618,-3,-5,-16,-7,-4,-5,-9,-10
28126098618,5,-6,3,4,2,3,6,7
28126120964,-15,-8,-19,-10,-4,-3,-2,-16
28126120964,-2,1,15,0,-1,2,2,-3
28126121783,7,3,-3,-3,-2,-1,0,6
28126121783,-8,-10,-15,-11,-4,-3,-2,2
28126143675,7,9,-8,3,4,2,-2,0
28126143675,-2,9,14,6,-1,-5,-5,-1
28126144291,9,8,9,5,0,4,5,-4
28126144291,-11,-16,-7,-3,0,-1,-2,-7
28126157967,1,-6,-9,-3,0,-1,2,7
28126157967,-6,-2,-10,-7,-3,-3,-2,-8
28126158616,6,-2,-7,-6,-3,0,0,-2
28126158616,3,8,17,11,1,-2,-4,-11
28126181066,-8,-11,5,-5,-1,1,3,6
28126181066,-1,-1,-17,-1,-1,-1,-2,1
28126181779,-6,1,3,1,3,2,1,-4
28126181779,-6,-7,-4,-1,-3,-2,-2,-6
28126203623,1,6,-10,-8,-6,-2,-2,-2
28126203623,1,5,22,8,-1,-1,1,4
28126204346,-5,-1,-13,-4,-1,-1,0,-3
28126204346,3,-1,-3,4,4,-1,-4,-4
28126217904,2,-1,16,0,-2,-3,-3,6
28126217904,-14,-12,-16,-2,-4,-2,-4,-19
28126218597,-2,-3,-1,-5,-1,1,2,-1
28126218597,6,14,-3,-1,-2,-2,2,4
28126241139,-4,-6,-3,-6,-2,0,1,0
28126241139,7,6,18,5,3,-2,-3,-4
28126241812,-8,-28,-21,1,2,1,0,-1
28126241812,0,33,46,4,-5,-8,-4,0
28126264078,7,0,-5,-2,-2,-2,-2,2
28126264078,-8,-19,-17,-5,-1,0,-1,1
28126264725,2,14,12,1,-1,1,2,3
28126264725,-1,-6,-8,-5,-2,0,-1,1
28126279325,-1,-7,4,5,0,-3,-2,-3
28126279325,1,8,9,1,-1,-1,-3,18
28126280104,-6,-10,-15,-4,-3,-1,-2,-5
28126280104,0,-2,-6,-5,-3,-1,-3,-1
28126301065,0,4,6,5,-1,-1,-1,4
28126301065,-14,-10,-8,-5,-2,-4,0,-4
28126301815,-9,-4,-7,-3,-2,0,0,-2
28126301815,10,-1,2,3,1,2,0,2
28126323464,-7,-6,-1,-1,-1,1,-2,-5
28126323464,7,6,-11,-4,-2,1,3,2
28126324237,-4,3,17,4,-1,-4,-2,2
28126324237,-5,-10,0,1,0,-1,-4,-6
28126337893,-4,-6,-12,-5,-2,-2,-1,-2
28126337893,-1,1,-3,-2,0,-1,-3,0
28126338551,3,1,-7,-5,-3,0,-2,-3
28126338551,0,-18,-16,-3,-1,1,3,1
28126361158,3,22,35,13,6,1,-1,-2
28126361158,2,8,-3,-5,-1,-2,0,1
28126361821,2,9,12,5,0,-2,-2,-1
28126361821,-6,-12,-16,-6,-1,-1,-1,-4
28126383631,-4,-8,-17,-7,-4,-1,-1,1
28126383631,2,-9,-6,-1,0,-2,-3,-11
28126384288,3,11,18,8,4,3,7,7
28126384288,-5,-2,1,1,1,-1,-1,0
28126397961,2,2,-8,-7,-3,-4,-2,-2
28126397961,7,-3,-8,-4,1,0,1,3
28126398618,0,-7,-5,-4,-2,-2,-2,-2
28126398618,3,11,21,9,4,1,1,5
