27609424796,-0.114440917969,0.117919921875,-0.814514160156,0.556396484375
27609438751,-0.114013671875,0.116943359375,-0.814575195312,0.556640625
27609462498,-0.113098144531,0.115783691406,-0.814819335938,0.556701660156
27609483743,-0.109619140625,0.116882324219,-0.815246582031,0.556518554688
27609498835,-0.107238769531,0.117858886719,-0.815368652344,0.556640625
27609522503,-0.104736328125,0.119812011719,-0.815185546875,0.556945800781
27609543851,-0.107421875,0.115173339844,-0.815795898438,0.556518554688
27609558855,-0.108520507812,0.113830566406,-0.815979003906,0.556274414062
27609613203,-0.107055664062,0.116882324219,-0.815612792969,0.556518554688
27609615365,-0.1025390625,0.122009277344,-0.814880371094,0.557312011719
27609622143,-0.103515625,0.118774414062,-0.8154296875,0.557006835938
27609635174,-0.107971191406,0.1123046875,-0.816589355469,0.555847167969
27609657537,-0.106628417969,0.114379882812,-0.816589355469,0.5556640625
27609678843,-0.104858398438,0.112426757812,-0.817138671875,0.555541992188
27609695242,-0.10400390625,0.112243652344,-0.817504882812,0.555236816406
27609738752,-0.103637695312,0.111694335938,-0.817810058594,0.554992675781
27609748770,-0.103271484375,0.111083984375,-0.818054199219,0.554748535156
27609754996,-0.102966308594,0.110656738281,-0.818359375,0.554504394531
27609784230,-0.104309082031,0.109497070312,-0.818481445312,0.554321289062
27609799289,-0.104553222656,0.105529785156,-0.819213867188,0.553894042969
27609823161,-0.101379394531,0.108032226562,-0.819030761719,0.554260253906
27609837497,-0.102783203125,0.105041503906,-0.819580078125,0.553771972656
27609860633,-0.107482910156,0.0988159179688,-0.820495605469,0.552673339844
27609883121,-0.106750488281,0.100036621094,-0.820556640625,0.552551269531
27609897523,-0.1015625,0.106018066406,-0.820007324219,0.55322265625
27609920670,-0.101806640625,0.104309082031,-0.820434570312,0.552856445312
27609943120,-0.106384277344,0.0985717773438,-0.821350097656,0.551696777344
27609957487,-0.104858398438,0.101745605469,-0.821166992188,0.551696777344
27609986680,-0.10595703125,0.103515625,-0.820983886719,0.551391601562
27610003131,-0.104431152344,0.104675292969,-0.821228027344,0.551147460938
27610024283,-0.104370117188,0.106018066406,-0.821044921875,0.551147460938
27610040664,-0.104187011719,0.108154296875,-0.820739746094,0.551208496094
27610063111,-0.103881835938,0.111083984375,-0.820434570312,0.551147460938
27610084314,-0.103332519531,0.114929199219,-0.820007324219,0.551147460938
27610100671,-0.102661132812,0.119506835938,-0.819519042969,0.550964355469
27610123195,-0.101684570312,0.124267578125,-0.819030761719,0.550842285156
27610144275,-0.100646972656,0.129455566406,-0.818176269531,0.551147460938
27610160676,-0.099609375,0.1357421875,-0.81689453125,0.551635742188
27610183160,-0.099365234375,0.142822265625,-0.815673828125,0.5517578125
27610204339,-0.0982666015625,0.151000976562,-0.814025878906,0.55224609375
27610220604,-0.09765625,0.160522460938,-0.811218261719,0.5537109375
27610243166,-0.0968017578125,0.170593261719,-0.807983398438,0.5556640625
27610264231,-0.0955810546875,0.179748535156,-0.804870605469,0.557373046875
27610280626,-0.093505859375,0.186584472656,-0.802368164062,0.559143066406
27610303176,-0.090087890625,0.191467285156,-0.800415039062,0.560791015625
27610324364,-0.0847778320312,0.192687988281,-0.799560546875,0.5625
27610340484,-0.0773315429688,0.190856933594,-0.799377441406,0.564392089844
27610363181,-0.0684204101562,0.18896484375,-0.799743652344,0.565673828125
27610384323,-0.0606689453125,0.189636230469,-0.799194335938,0.567138671875
27610399972,-0.0543212890625,0.192138671875,-0.797790527344,0.568969726562
27610423130,-0.0484619140625,0.195861816406,-0.7958984375,0.570861816406
27610445644,-0.043212890625,0.201232910156,-0.793273925781,0.573059082031
27610459935,-0.0374755859375,0.206787109375,-0.790222167969,0.575622558594
27610483094,-0.0298461914062,0.210693359375,-0.787475585938,0.578430175781
27610505606,-0.020751953125,0.21337890625,-0.785339355469,0.580749511719
27610519973,-0.0119018554688,0.216247558594,-0.783386230469,0.582580566406
27610543129,-0.003662109375,0.219970703125,-0.78076171875,0.584838867188
27610565605,0.00372314453125,0.224914550781,-0.777099609375,0.587829589844
27610579993,0.010498046875,0.230224609375,-0.773498535156,0.590393066406
27610603147,0.0177001953125,0.234802246094,-0.770690917969,0.592041015625
27610626028,0.0250244140625,0.238708496094,-0.767883300781,0.593933105469
27610646777,0.0324096679688,0.241821289062,-0.765014648438,0.596008300781
27610663142,0.0398559570312,0.244384765625,-0.762512207031,0.597717285156
27610686147,0.0474853515625,0.246398925781,-0.760437011719,0.598937988281
27610706799,0.054931640625,0.249267578125,-0.757934570312,0.600280761719
27610736772,0.063232421875,0.251770019531,-0.754089355469,0.603332519531
27610745622,0.067626953125,0.255676269531,-0.752014160156,0.603759765625
27610768179,0.0740356445312,0.259643554688,-0.747802734375,0.606506347656
27610790635,0.0794067382812,0.263671875,-0.744995117188,0.607543945312
27610813546,0.0841064453125,0.267333984375,-0.7421875,0.608764648438
27610828092,0.0889892578125,0.270324707031,-0.739318847656,0.610290527344
27610849331,0.093505859375,0.272766113281,-0.736328125,0.612060546875
27610864971,0.0982055664062,0.275024414062,-0.733581542969,0.613647460938
27610894287,0.102966308594,0.277099609375,-0.730712890625,0.615356445312
27610910605,0.107421875,0.279174804688,-0.727661132812,0.617248535156
27610925014,0.111083984375,0.281555175781,-0.724670410156,0.619079589844
27610948091,0.115112304688,0.283508300781,-0.721740722656,0.620849609375
27610971190,0.119873046875,0.28515625,-0.71923828125,0.6220703125
27610984954,0.125061035156,0.287414550781,-0.716552734375,0.623107910156
27611015610,0.130187988281,0.290649414062,-0.713317871094,0.624328613281
27611030635,0.135375976562,0.294311523438,-0.71044921875,0.624755859375
27611044990,0.140991210938,0.297790527344,-0.707824707031,0.624816894531
27611068124,0.146789550781,0.301513671875,-0.705078125,0.624816894531
27611090645,0.152465820312,0.305114746094,-0.702392578125,0.624755859375
27611112637,0.158081054688,0.309204101562,-0.699279785156,0.624816894531
27611128110,0.163208007812,0.313598632812,-0.69580078125,0.625183105469
27611150597,0.168212890625,0.317626953125,-0.692321777344,0.625671386719
27611171798,0.173706054688,0.321411132812,-0.688842773438,0.626098632812
27611194272,0.179992675781,0.324829101562,-0.685424804688,0.626281738281
27611210626,0.186157226562,0.328369140625,-0.681884765625,0.62646484375
27611231772,0.19189453125,0.332458496094,-0.678344726562,0.626525878906
27611248124,0.197692871094,0.336791992188,-0.674743652344,0.626220703125
27611270646,0.20361328125,0.341064453125,-0.671203613281,0.625854492188
27611291862,0.209594726562,0.345275878906,-0.667663574219,0.625305175781
27611308142,0.215515136719,0.349060058594,-0.664184570312,0.624938964844
27611313622,0.221435546875,0.352416992188,-0.660766601562,0.624633789062
27611336106,0.226989746094,0.355224609375,-0.657470703125,0.62451171875
27611358546,0.232238769531,0.357604980469,-0.654174804688,0.624694824219
27611373532,0.237060546875,0.359680175781,-0.650817871094,0.625183105469
27611396109,0.241760253906,0.361572265625,-0.6474609375,0.625732421875
27611418636,0.246215820312,0.363647460938,-0.644226074219,0.626159667969
27611433625,0.250183105469,0.3662109375,-0.640808105469,0.626586914062
27611456100,0.253967285156,0.369018554688,-0.637573242188,0.626708984375
27611478465,0.258178710938,0.371520996094,-0.634521484375,0.626586914062
27611493462,0.262451171875,0.3740234375,-0.631469726562,0.62646484375
27611515988,0.266723632812,0.376525878906,-0.628479003906,0.626159667969
27611533930,0.270812988281,0.379089355469,-0.625305175781,0.626098632812
27611553619,0.274658203125,0.381652832031,-0.621948242188,0.626159667969
27611576159,0.278747558594,0.384216308594,-0.618347167969,0.626342773438
27611593917,0.282958984375,0.38671875,-0.614868164062,0.626342773438
27611629919,0.287048339844,0.388732910156,-0.611694335938,0.626342773438
27611636130,0.290832519531,0.390441894531,-0.608764648438,0.626403808594
27611653918,0.294311523438,0.392211914062,-0.605773925781,0.626525878906
27611673650,0.297180175781,0.394287109375,-0.602783203125,0.626770019531
27611696182,0.299682617188,0.396301269531,-0.599975585938,0.626953125
27611713958,0.30224609375,0.39794921875,-0.59765625,0.626892089844
27611733548,0.305053710938,0.399230957031,-0.595397949219,0.626892089844
27611756111,0.307434082031,0.400634765625,-0.592834472656,0.627258300781
27611779927,0.308898925781,0.402282714844,-0.590026855469,0.628112792969
27611801166,0.310363769531,0.403442382812,-0.587463378906,0.629089355469
27611816006,0.3125,0.404052734375,-0.584716796875,0.630187988281
27611832468,0.314147949219,0.404602050781,-0.581481933594,0.632019042969
27611853569,0.315368652344,0.405151367188,-0.577758789062,0.634460449219
27611876076,0.316101074219,0.405700683594,-0.574279785156,0.636901855469
27611893957,0.317260742188,0.405700683594,-0.571044921875,0.639282226562
27611913663,0.317749023438,0.405944824219,-0.567932128906,0.6416015625
27611943603,0.318115234375,0.405822753906,-0.5654296875,0.643676757812
27611953916,0.317993164062,0.405639648438,-0.563720703125,0.645385742188
27611973472,0.318481445312,0.405517578125,-0.562438964844,0.646301269531
27611995932,0.318542480469,0.405822753906,-0.561218261719,0.647155761719
27612013876,0.317687988281,0.405883789062,-0.560546875,0.648132324219
27612033488,0.317016601562,0.406188964844,-0.560668945312,0.648132324219
27612056204,0.317687988281,0.406311035156,-0.560791015625,0.647644042969
27612081972,0.317810058594,0.406677246094,-0.560607910156,0.647521972656
27612093602,0.317443847656,0.406860351562,-0.560546875,0.647583007812
27612116011,0.317260742188,0.407287597656,-0.560607910156,0.647399902344
27612133927,0.317565917969,0.407653808594,-0.560302734375,0.647277832031
27612153548,0.317199707031,0.408325195312,-0.559814453125,0.647521972656
27612176155,0.317077636719,0.408264160156,-0.5595703125,0.647766113281
27612193910,0.317321777344,0.408203125,-0.5595703125,0.647705078125
27612213609,0.317993164062,0.408081054688,-0.559204101562,0.647766113281
27612236099,0.317321777344,0.408447265625,-0.558715820312,0.648254394531
27612253905,0.31640625,0.408386230469,-0.558959960938,0.648559570312
27612273630,0.31640625,0.408203125,-0.559448242188,0.648254394531
27612296029,0.316528320312,0.408386230469,-0.559448242188,0.648132324219
27612313916,0.316040039062,0.408630371094,-0.559143066406,0.6484375
27612333514,0.315368652344,0.408630371094,-0.559387207031,0.648559570312
27612357513,0.315307617188,0.408447265625,-0.559692382812,0.6484375
27612373920,0.315246582031,0.408630371094,-0.559631347656,0.648376464844
27612401019,0.31494140625,0.408874511719,-0.559387207031,0.648559570312
27612416031,0.314880371094,0.408874511719,-0.559448242188,0.648559570312
27612433934,0.315063476562,0.408935546875,-0.559448242188,0.648498535156
27612453602,0.315063476562,0.408935546875,-0.559387207031,0.648498535156
27612476192,0.314819335938,0.409118652344,-0.559204101562,0.648681640625
27612493942,0.314758300781,0.409118652344,-0.559204101562,0.648681640625
27612514862,0.315063476562,0.408935546875,-0.559326171875,0.648559570312
27612536040,0.315307617188,0.409118652344,-0.559265136719,0.648376464844
27612553952,0.315063476562,0.409545898438,-0.558959960938,0.6484375
27612576405,0.314880371094,0.40966796875,-0.558959960938,0.648498535156
27612603670,0.315002441406,0.409790039062,-0.55908203125,0.648254394531
27612613901,0.315063476562,0.41015625,-0.55908203125,0.64794921875
27612634925,0.315002441406,0.410278320312,-0.559020996094,0.64794921875
27612656167,0.315002441406,0.410339355469,-0.559020996094,0.64794921875
27612673923,0.315063476562,0.41015625,-0.559265136719,0.647827148438
27612694990,0.31494140625,0.410339355469,-0.559204101562,0.647827148438
27612711417,0.314636230469,0.410400390625,-0.55908203125,0.648010253906
27612733935,0.314514160156,0.410095214844,-0.559204101562,0.648132324219
27612754939,0.314575195312,0.409912109375,-0.559326171875,0.648193359375
27612776096,0.314453125,0.409790039062,-0.559204101562,0.648376464844
27612793903,0.314208984375,0.409606933594,-0.559020996094,0.648803710938
27612814921,0.313720703125,0.409423828125,-0.559143066406,0.649047851562
27612831406,0.3134765625,0.4091796875,-0.559387207031,0.649108886719
27612853934,0.313537597656,0.408813476562,-0.559448242188,0.649291992188
27612876389,0.313537597656,0.408752441406,-0.559448242188,0.649291992188
27612891364,0.313537597656,0.408752441406,-0.559448242188,0.649291992188
27612913910,0.313659667969,0.408630371094,-0.5595703125,0.649169921875
27612935576,0.313659667969,0.40869140625,-0.5595703125,0.649169921875
27612956720,0.314025878906,0.40869140625,-0.559509277344,0.649047851562
27612973096,0.313903808594,0.409118652344,-0.559326171875,0.648986816406
27612995591,0.313903808594,0.409118652344,-0.559326171875,0.648986816406
27613016635,0.314147949219,0.408935546875,-0.559387207031,0.648986816406
27613033114,0.314208984375,0.408874511719,-0.559326171875,0.648986816406
27613055602,0.313720703125,0.409301757812,-0.559448242188,0.64892578125
27613069885,0.313659667969,0.408935546875,-0.559692382812,0.64892578125
27613093090,0.312805175781,0.408874511719,-0.559875488281,0.649169921875
27613115605,0.312377929688,0.40869140625,-0.560241699219,0.649169921875
27613138077,0.312133789062,0.408386230469,-0.560363769531,0.649353027344
27613159144,0.311340332031,0.408386230469,-0.560241699219,0.64990234375
27613175577,0.310729980469,0.408325195312,-0.560363769531,0.650146484375
27613189903,0.310852050781,0.407836914062,-0.560424804688,0.650329589844
27613213188,0.310852050781,0.407653808594,-0.560302734375,0.650512695312
27613235994,0.310485839844,0.407531738281,-0.560180664062,0.65087890625
27613249937,0.310485839844,0.407531738281,-0.560180664062,0.65087890625
27613273162,0.310424804688,0.407348632812,-0.560302734375,0.650939941406
27613295550,0.310363769531,0.4072265625,-0.560302734375,0.651062011719
27613316818,0.309936523438,0.407165527344,-0.560424804688,0.651184082031
27613333093,0.309326171875,0.407043457031,-0.560668945312,0.6513671875
27613355571,0.308715820312,0.406799316406,-0.560974121094,0.651550292969
27613376856,0.307678222656,0.406494140625,-0.561157226562,0.652038574219
27613393124,0.306091308594,0.406066894531,-0.561462402344,0.652770996094
27613415593,0.304504394531,0.405639648438,-0.561828613281,0.653442382812
27613436752,0.303466796875,0.404846191406,-0.562377929688,0.653991699219
27613453072,0.302001953125,0.404052734375,-0.562561035156,0.654968261719
27613475596,0.299926757812,0.403198242188,-0.563110351562,0.656005859375
27613496785,0.2978515625,0.402465820312,-0.563903808594,0.656677246094
27613513081,0.296997070312,0.400817871094,-0.565307617188,0.656921386719
27613535596,0.296203613281,0.399841308594,-0.566284179688,0.657043457031
27613556751,0.294372558594,0.399169921875,-0.567199707031,0.657470703125
27613573092,0.292236328125,0.398254394531,-0.568542480469,0.657775878906
27613595549,0.289916992188,0.397155761719,-0.570495605469,0.657775878906
27613616888,0.287902832031,0.395263671875,-0.572937011719,0.65771484375
27613633100,0.285705566406,0.393127441406,-0.575378417969,0.657836914062
27613655595,0.282836914062,0.391479492188,-0.577758789062,0.657958984375
27613676847,0.279663085938,0.389953613281,-0.580017089844,0.658203125
27613692451,0.277160644531,0.387878417969,-0.582092285156,0.658630371094
27613715619,0.275329589844,0.385437011719,-0.583923339844,0.659240722656
27613736753,0.272277832031,0.383483886719,-0.585876464844,0.659912109375
27613752431,0.268371582031,0.381225585938,-0.588073730469,0.660827636719
27613777051,0.263000488281,0.379089355469,-0.590270996094,0.662292480469
27613798119,0.2568359375,0.376770019531,-0.593078613281,0.663513183594
27613812442,0.250793457031,0.3740234375,-0.596618652344,0.664245605469
27613835582,0.245544433594,0.3701171875,-0.600891113281,0.66455078125
27613858773,0.239868164062,0.365844726562,-0.605651855469,0.664611816406
27613872956,0.233215332031,0.361694335938,-0.611083984375,0.664367675781
27613895597,0.225463867188,0.357543945312,-0.617004394531,0.663818359375
27613918067,0.21728515625,0.353271484375,-0.623291015625,0.662902832031
27613932377,0.209167480469,0.348815917969,-0.629760742188,0.661743164062
27613955547,0.200988769531,0.344116210938,-0.636535644531,0.660278320312
27613978070,0.192749023438,0.339050292969,-0.643432617188,0.658630371094
27613999231,0.185119628906,0.333618164062,-0.650268554688,0.656921386719
27614021723,0.178100585938,0.328308105469,-0.656921386719,0.654907226562
27614038068,0.171020507812,0.323608398438,-0.663330078125,0.652709960938
27614059142,0.163330078125,0.318969726562,-0.669677734375,0.650451660156
27614075590,0.155090332031,0.314514160156,-0.676025390625,0.648071289062
27614098067,0.14697265625,0.309997558594,-0.682312011719,0.645568847656
27614119169,0.138916015625,0.305419921875,-0.688537597656,0.642944335938
27614135549,0.130859375,0.300415039062,-0.695068359375,0.639892578125
27614158060,0.123107910156,0.294799804688,-0.701782226562,0.63671875
27614179261,0.114868164062,0.289123535156,-0.708435058594,0.633483886719
27614196017,0.106262207031,0.283447265625,-0.714965820312,0.630187988281
27614218119,0.0971069335938,0.277893066406,-0.721435546875,0.626770019531
27614239252,0.0879516601562,0.272033691406,-0.727783203125,0.623352050781
27614255598,0.0787353515625,0.265686035156,-0.733947753906,0.620056152344
27614278101,0.0698852539062,0.258911132812,-0.739929199219,0.616882324219
27614299224,0.0614624023438,0.251708984375,-0.745910644531,0.613525390625
27614315573,0.0530395507812,0.244873046875,-0.751770019531,0.609924316406
27614338085,0.043701171875,0.238952636719,-0.757690429688,0.605773925781
27614359255,0.033203125,0.2333984375,-0.763305664062,0.601501464844
27614375599,0.0223999023438,0.227355957031,-0.76806640625,0.598266601562
27614398071,0.0126953125,0.220275878906,-0.772277832031,0.595764160156
27614419199,0.00445556640625,0.212707519531,-0.776489257812,0.593139648438
27614435563,-0.00323486328125,0.205322265625,-0.780517578125,0.590454101562
27614458075,-0.0101318359375,0.197692871094,-0.784240722656,0.588012695312
27614479261,-0.0161743164062,0.190856933594,-0.78759765625,0.585693359375
27614495621,-0.0216674804688,0.185607910156,-0.790344238281,0.583435058594
27614518079,-0.027099609375,0.182189941406,-0.792541503906,0.581359863281
27614539098,-0.0323486328125,0.179504394531,-0.794189453125,0.579650878906
27614555570,-0.03662109375,0.176574707031,-0.795715332031,0.578247070312
27614578069,-0.0397338867188,0.17333984375,-0.797058105469,0.577087402344
27614599406,-0.042236328125,0.170288085938,-0.798400878906,0.576049804688
27614614980,-0.0450439453125,0.167907714844,-0.799560546875,0.574890136719
27614638078,-0.0484008789062,0.166198730469,-0.800598144531,0.573669433594
27614659256,-0.0505981445312,0.164733886719,-0.801940917969,0.572021484375
27614674909,-0.0545043945312,0.163757324219,-0.803161621094,0.570251464844
27614704144,-0.0579223632812,0.162902832031,-0.804077148438,0.56884765625
27614720567,-0.0611572265625,0.162536621094,-0.804870605469,0.567504882812
27614734935,-0.0640869140625,0.163146972656,-0.805236816406,0.566467285156
27614758051,-0.0665283203125,0.162841796875,-0.805786132812,0.565490722656
27614780536,-0.068115234375,0.161804199219,-0.806335449219,0.564758300781
27614794926,-0.0694580078125,0.160705566406,-0.806945800781,0.564086914062
27614818111,-0.0709838867188,0.159423828125,-0.807373046875,0.563598632812
27614840564,-0.0725708007812,0.157348632812,-0.807922363281,0.563293457031
27614856005,-0.0741577148438,0.154846191406,-0.80859375,0.562744140625
27614878067,-0.0759887695312,0.152099609375,-0.809448242188,0.562072753906
27614900579,-0.0783081054688,0.149353027344,-0.810302734375,0.561279296875
27614914910,-0.0806884765625,0.147033691406,-0.810668945312,0.560974121094
27614938170,-0.0830688476562,0.145446777344,-0.810729980469,0.560913085938
27614960572,-0.0851440429688,0.144104003906,-0.810546875,0.561218261719
27614974910,-0.0866088867188,0.142883300781,-0.81005859375,0.562072753906
27614998114,-0.0877075195312,0.141052246094,-0.809753417969,0.562744140625
27615020584,-0.0882568359375,0.137573242188,-0.809936523438,0.563232421875
27615042864,-0.0881958007812,0.132934570312,-0.810607910156,0.563415527344
27615058062,-0.0880737304688,0.12939453125,-0.811401367188,0.563110351562
27615080545,-0.0890502929688,0.128662109375,-0.811584472656,0.562927246094
27615101693,-0.0902709960938,0.128967285156,-0.811401367188,0.562866210938
27615118042,-0.0909423828125,0.128784179688,-0.811401367188,0.562805175781
27615140529,-0.091064453125,0.128845214844,-0.811340332031,0.562866210938
27615154919,-0.0916137695312,0.129699707031,-0.81103515625,0.563049316406
27615178104,-0.0925903320312,0.130920410156,-0.810424804688,0.5634765625
27615200562,-0.093017578125,0.13134765625,-0.809814453125,0.564208984375
27615221691,-0.093505859375,0.131896972656,-0.809020996094,0.565124511719
27615238041,-0.0942993164062,0.132751464844,-0.808166503906,0.565979003906
27615260572,-0.09521484375,0.133239746094,-0.807556152344,0.566589355469
27615281724,-0.0958862304688,0.133972167969,-0.807006835938,0.567077636719
27615298059,-0.0965576171875,0.135009765625,-0.806396484375,0.567626953125
27615320551,-0.0977172851562,0.136474609375,-0.805603027344,0.568176269531
27615341708,-0.0986938476562,0.137329101562,-0.804809570312,0.568969726562
27615358068,-0.0982666015625,0.136413574219,-0.804504394531,0.569641113281
27615380598,-0.0977172851562,0.135925292969,-0.804321289062,0.570129394531
27615401398,-0.0980834960938,0.13671875,-0.803771972656,0.570678710938
27615418030,-0.0989379882812,0.137756347656,-0.803161621094,0.571105957031
27615440598,-0.0999145507812,0.138854980469,-0.802612304688,0.571411132812
