30183967407,-0.360656738281,0.084716796875,-0.155151367188,0.915771484375
30183982476,-0.360656738281,0.084716796875,-0.155151367188,0.915771484375
30184003672,-0.361206054688,0.0838623046875,-0.154907226562,0.915710449219
30184027458,-0.362915039062,0.0858154296875,-0.154541015625,0.914855957031
30184042401,-0.365844726562,0.0939331054688,-0.1513671875,0.913452148438
30184063690,-0.368713378906,0.0989990234375,-0.149291992188,0.912109375
30184087481,-0.368469238281,0.0946655273438,-0.150939941406,0.912353515625
30184102351,-0.365356445312,0.08642578125,-0.154235839844,0.913879394531
30184154459,-0.364196777344,0.0867309570312,-0.154113769531,0.914367675781
30184155154,-0.366821289062,0.094970703125,-0.15087890625,0.913024902344
30184164328,-0.3671875,0.0953979492188,-0.150695800781,0.912841796875
30184180145,-0.366577148438,0.0933837890625,-0.151489257812,0.913208007812
30184195175,-0.366577148438,0.0922241210938,-0.152160644531,0.913208007812
30184215119,-0.365966796875,0.0911865234375,-0.151916503906,0.91357421875
30184238703,-0.365539550781,0.091064453125,-0.151977539062,0.913757324219
30184266752,-0.365112304688,0.0909423828125,-0.152038574219,0.913940429688
30184277084,-0.364807128906,0.0907592773438,-0.152099609375,0.9140625
30184296724,-0.364562988281,0.0901489257812,-0.152587890625,0.914123535156
30184311033,-0.3662109375,0.0945434570312,-0.151489257812,0.913208007812
30184333568,-0.366149902344,0.0953979492188,-0.151184082031,0.913208007812
30184356050,-0.367614746094,0.101867675781,-0.148620605469,0.912353515625
30184371104,-0.368286132812,0.103576660156,-0.14794921875,0.911987304688
30184393552,-0.368408203125,0.101013183594,-0.148986816406,0.912048339844
30184416094,-0.367553710938,0.0988159179688,-0.149841308594,0.912475585938
30184430991,-0.367248535156,0.0985717773438,-0.149963378906,0.912658691406
30184453542,-0.369995117188,0.106323242188,-0.147033691406,0.9111328125
30184475988,-0.372314453125,0.108825683594,-0.145935058594,0.910034179688
30184491129,-0.372375488281,0.104125976562,-0.147705078125,0.910278320312
30184513601,-0.373596191406,0.10546875,-0.148071289062,0.909545898438
30184536102,-0.375061035156,0.105041503906,-0.148498535156,0.908935546875
30184551281,-0.37646484375,0.105407714844,-0.149108886719,0.908203125
30184573543,-0.377990722656,0.106689453125,-0.149658203125,0.907348632812
30184596108,-0.38037109375,0.108825683594,-0.149658203125,0.906127929688
30184611113,-0.384155273438,0.112060546875,-0.149841308594,0.904113769531
30184633598,-0.388488769531,0.116271972656,-0.150573730469,0.901611328125
30184656094,-0.392822265625,0.121215820312,-0.150695800781,0.899047851562
30184671164,-0.396911621094,0.127807617188,-0.1494140625,0.896545410156
30184693433,-0.399963378906,0.135192871094,-0.148254394531,0.894287109375
30184716064,-0.401245117188,0.143371582031,-0.1474609375,0.892578125
30184731149,-0.401245117188,0.152465820312,-0.147277832031,0.89111328125
30184753551,-0.401306152344,0.162353515625,-0.147583007812,0.889221191406
30184776128,-0.402648925781,0.173950195312,-0.147033691406,0.886535644531
30184791054,-0.40625,0.186340332031,-0.144775390625,0.882751464844
30184814902,-0.409729003906,0.199890136719,-0.141235351562,0.878723144531
30184836044,-0.41064453125,0.21337890625,-0.137451171875,0.875732421875
30184851187,-0.407470703125,0.226501464844,-0.134826660156,0.874328613281
30184873580,-0.398498535156,0.239685058594,-0.132507324219,0.875305175781
30184896156,-0.3876953125,0.252197265625,-0.1318359375,0.876708984375
30184912369,-0.377319335938,0.265563964844,-0.129943847656,0.877624511719
30184933535,-0.369018554688,0.278930664062,-0.127258300781,0.877380371094
30184956067,-0.364807128906,0.292175292969,-0.123657226562,0.875305175781
30184972364,-0.363708496094,0.305236816406,-0.118774414062,0.872009277344
30184993571,-0.364135742188,0.317565917969,-0.113098144531,0.8681640625
30185018918,-0.36376953125,0.329162597656,-0.107360839844,0.86474609375
30185032436,-0.36181640625,0.339294433594,-0.102478027344,0.862243652344
30185053551,-0.358154296875,0.348937988281,-0.0975341796875,0.860473632812
30185076055,-0.35302734375,0.358032226562,-0.0925903320312,0.859375
30185092408,-0.347229003906,0.366455078125,-0.0872192382812,0.858764648438
30185113545,-0.341613769531,0.374206542969,-0.0814819335938,0.858276367188
30185136149,-0.335998535156,0.380981445312,-0.0745849609375,0.858093261719
30185152382,-0.329650878906,0.385559082031,-0.068115234375,0.859069824219
30185173590,-0.322448730469,0.39013671875,-0.0611572265625,0.860290527344
30185196086,-0.314575195312,0.394409179688,-0.0543212890625,0.861694335938
30185212396,-0.30712890625,0.398559570312,-0.0474853515625,0.862854003906
30185233530,-0.299926757812,0.402893066406,-0.0403442382812,0.86376953125
30185256795,-0.293029785156,0.407165527344,-0.0332641601562,0.864440917969
30185273074,-0.286376953125,0.411315917969,-0.0263061523438,0.864929199219
30185296026,-0.279357910156,0.41552734375,-0.0198974609375,0.865356445312
30185316686,-0.272033691406,0.419250488281,-0.013916015625,0.866027832031
30185333031,-0.265625,0.422668457031,-0.00787353515625,0.866455078125
30185355563,-0.259155273438,0.426086425781,-0.0023193359375,0.866760253906
30185376696,-0.252136230469,0.429016113281,0.00274658203125,0.867370605469
30185393060,-0.246826171875,0.430969238281,0.00830078125,0.867858886719
30185415553,-0.2421875,0.4326171875,0.0134887695312,0.868286132812
30185436712,-0.238159179688,0.434204101562,0.0185546875,0.868530273438
30185453044,-0.234741210938,0.435424804688,0.0236206054688,0.868713378906
30185475620,-0.231506347656,0.436401367188,0.0279541015625,0.868957519531
30185496809,-0.227722167969,0.437255859375,0.0314331054688,0.869384765625
30185513070,-0.224243164062,0.438110351562,0.0344848632812,0.869750976562
30185535611,-0.221740722656,0.439086914062,0.036865234375,0.869873046875
30185556783,-0.219604492188,0.439819335938,0.0388793945312,0.869934082031
30185573065,-0.217895507812,0.440246582031,0.0411376953125,0.869995117188
30185595549,-0.216491699219,0.440490722656,0.0431518554688,0.870178222656
30185616697,-0.21533203125,0.440307617188,0.0446166992188,0.870483398438
30185633035,-0.214660644531,0.439819335938,0.046142578125,0.870788574219
30185655574,-0.214050292969,0.439270019531,0.047607421875,0.871154785156
30185676725,-0.213562011719,0.438537597656,0.0487670898438,0.87158203125
30185693043,-0.213256835938,0.43798828125,0.049560546875,0.871887207031
30185715565,-0.212829589844,0.437683105469,0.0497436523438,0.872131347656
30185736832,-0.212463378906,0.437377929688,0.050048828125,0.872375488281
30185753049,-0.212280273438,0.437072753906,0.050048828125,0.87255859375
30185775531,-0.212097167969,0.436828613281,0.0499267578125,0.872741699219
30185798043,-0.212036132812,0.436584472656,0.049560546875,0.872863769531
30185813051,-0.212524414062,0.436096191406,0.048583984375,0.873046875
30185835570,-0.212707519531,0.435485839844,0.0479125976562,0.873352050781
30185858029,-0.21337890625,0.434936523438,0.0475463867188,0.873474121094
30185873026,-0.214111328125,0.434448242188,0.0469970703125,0.873596191406
30185895566,-0.214904785156,0.434265136719,0.0465698242188,0.873474121094
30185924112,-0.216125488281,0.434204101562,0.0463256835938,0.873229980469
30185933034,-0.216796875,0.433959960938,0.0457153320312,0.873229980469
30185955548,-0.217834472656,0.43359375,0.0455322265625,0.873168945312
30185978049,-0.218566894531,0.433471679688,0.0447998046875,0.873046875
30185992375,-0.21923828125,0.433288574219,0.0441284179688,0.873046875
30186015524,-0.219848632812,0.432922363281,0.0433959960938,0.873107910156
30186038093,-0.221069335938,0.4326171875,0.0431518554688,0.872924804688
30186052393,-0.222229003906,0.432434082031,0.04296875,0.872741699219
30186075582,-0.223510742188,0.43212890625,0.0428466796875,0.87255859375
30186099492,-0.224670410156,0.431579589844,0.0426025390625,0.87255859375
30186112382,-0.225402832031,0.430786132812,0.04248046875,0.872741699219
30186135564,-0.226196289062,0.429992675781,0.0424194335938,0.872985839844
30186158038,-0.226928710938,0.429382324219,0.0422973632812,0.873046875
30186172372,-0.227416992188,0.4287109375,0.042236328125,0.873291015625
30186195566,-0.22802734375,0.427978515625,0.0423583984375,0.873474121094
30186218039,-0.22900390625,0.42724609375,0.0422973632812,0.873596191406
30186232364,-0.229553222656,0.426635742188,0.0421142578125,0.873718261719
30186255531,-0.22998046875,0.426208496094,0.0418701171875,0.873901367188
30186278045,-0.230529785156,0.425964355469,0.0415649414062,0.873840332031
30186299222,-0.231140136719,0.42578125,0.0410766601562,0.873779296875
30186315543,-0.231506347656,0.425476074219,0.0405883789062,0.873840332031
30186338053,-0.232238769531,0.425109863281,0.0404052734375,0.873840332031
30186359076,-0.232727050781,0.424621582031,0.0400390625,0.873962402344
30186375515,-0.233215332031,0.424194335938,0.0396728515625,0.874084472656
30186398010,-0.234008789062,0.423645019531,0.0396118164062,0.874145507812
30186419096,-0.234802246094,0.42333984375,0.0396728515625,0.874084472656
30186435524,-0.235290527344,0.423034667969,0.0394287109375,0.874145507812
30186458037,-0.235534667969,0.422973632812,0.0391845703125,0.874084472656
30186479143,-0.236145019531,0.4228515625,0.0390625,0.873962402344
30186495517,-0.236999511719,0.42236328125,0.0389404296875,0.873962402344
30186518050,-0.237731933594,0.421569824219,0.0387573242188,0.874145507812
30186539181,-0.237976074219,0.420715332031,0.0383911132812,0.874572753906
30186555515,-0.238098144531,0.419860839844,0.0376586914062,0.874938964844
30186578041,-0.238403320312,0.419372558594,0.037109375,0.875122070312
30186599275,-0.238830566406,0.418884277344,0.0367431640625,0.875244140625
30186615545,-0.239135742188,0.418823242188,0.036376953125,0.875244140625
30186638067,-0.239379882812,0.419006347656,0.0360107421875,0.875061035156
30186659298,-0.239379882812,0.419311523438,0.0355834960938,0.874938964844
30186675572,-0.239562988281,0.419921875,0.0352783203125,0.874633789062
30186698027,-0.239868164062,0.420654296875,0.0349731445312,0.874206542969
30186719205,-0.240173339844,0.421447753906,0.0346069335938,0.873718261719
30186735573,-0.240417480469,0.422180175781,0.0341796875,0.873291015625
30186758053,-0.240478515625,0.4228515625,0.0338134765625,0.873046875
30186780586,-0.240539550781,0.423400878906,0.0335693359375,0.872741699219
30186795542,-0.240600585938,0.423828125,0.0333251953125,0.87255859375
30186818076,-0.240417480469,0.424072265625,0.0331420898438,0.872436523438
30186840614,-0.240173339844,0.424194335938,0.0330200195312,0.872497558594
30186855560,-0.240173339844,0.424194335938,0.0330200195312,0.872497558594
30186878019,-0.240356445312,0.423889160156,0.0330810546875,0.87255859375
30186900537,-0.240417480469,0.423522949219,0.032958984375,0.872741699219
30186914922,-0.240295410156,0.423278808594,0.032470703125,0.872924804688
30186938022,-0.240234375,0.423156738281,0.031982421875,0.872985839844
30186960542,-0.240539550781,0.423034667969,0.0316772460938,0.872985839844
30186981607,-0.2412109375,0.423034667969,0.0313720703125,0.872802734375
30186998037,-0.241577148438,0.423217773438,0.0307006835938,0.872619628906
30187020521,-0.241882324219,0.423583984375,0.0303344726562,0.872375488281
30187034931,-0.241882324219,0.424072265625,0.0299072265625,0.872192382812
30187058070,-0.241455078125,0.424499511719,0.029541015625,0.8720703125
30187080522,-0.240905761719,0.424865722656,0.029296875,0.8720703125
30187094924,-0.240417480469,0.425048828125,0.0291748046875,0.872131347656
30187118002,-0.238464355469,0.425354003906,0.02880859375,0.87255859375
30187140533,-0.238464355469,0.425537109375,0.0284423828125,0.872436523438
30187154926,-0.237487792969,0.425415039062,0.0275268554688,0.872802734375
30187178016,-0.236206054688,0.424865722656,0.02685546875,0.873474121094
30187200556,-0.2353515625,0.423950195312,0.0267944335938,0.874145507812
30187214952,-0.23486328125,0.42333984375,0.0264282226562,0.874572753906
30187238028,-0.234130859375,0.423095703125,0.025146484375,0.874877929688
30187260493,-0.232727050781,0.422912597656,0.0236206054688,0.875427246094
30187281670,-0.231811523438,0.422302246094,0.0225219726562,0.8759765625
30187298065,-0.231628417969,0.420837402344,0.0217895507812,0.876770019531
30187320558,-0.231567382812,0.419189453125,0.0203247070312,0.877624511719
30187341636,-0.231567382812,0.417602539062,0.0174560546875,0.87841796875
30187359460,-0.232299804688,0.415954589844,0.0148315429688,0.879089355469
30187380543,-0.233947753906,0.413635253906,0.0126953125,0.879760742188
30187401624,-0.235778808594,0.411376953125,0.01025390625,0.88037109375
30187417997,-0.237426757812,0.408569335938,0.00775146484375,0.881225585938
30187440507,-0.239624023438,0.405395507812,0.0047607421875,0.882141113281
30187461634,-0.240417480469,0.402465820312,0.00079345703125,0.883239746094
30187478053,-0.241271972656,0.399780273438,-0.00341796875,0.884216308594
30187500540,-0.24169921875,0.39697265625,-0.0074462890625,0.885375976562
30187521698,-0.239868164062,0.3935546875,-0.01220703125,0.887329101562
30187538017,-0.238037109375,0.389038085938,-0.0180053710938,0.889709472656
30187560494,-0.237609863281,0.383850097656,-0.0247802734375,0.891906738281
30187589280,-0.235595703125,0.378723144531,-0.0333862304688,0.894348144531
30187597377,-0.232971191406,0.373352050781,-0.04248046875,0.896911621094
30187620553,-0.231384277344,0.368103027344,-0.051025390625,0.899047851562
30187641559,-0.2314453125,0.363159179688,-0.0591430664062,0.900573730469
30187657352,-0.232788085938,0.3583984375,-0.0669555664062,0.901550292969
30187680497,-0.235290527344,0.352783203125,-0.0745239257812,0.902526855469
30187703009,-0.238708496094,0.346008300781,-0.0820922851562,0.903625488281
30187717433,-0.243041992188,0.339111328125,-0.0897216796875,0.904357910156
30187740539,-0.246276855469,0.332153320312,-0.097900390625,0.905212402344
30187763048,-0.248413085938,0.324523925781,-0.106506347656,0.906433105469
30187777369,-0.251098632812,0.315856933594,-0.115234375,0.907653808594
30187800513,-0.2548828125,0.306640625,-0.123779296875,0.908630371094
30187823062,-0.258544921875,0.297302246094,-0.13232421875,0.909484863281
30187837317,-0.261901855469,0.287963867188,-0.140686035156,0.910278320312
30187860542,-0.265197753906,0.278076171875,-0.148620605469,0.9111328125
30187882994,-0.269897460938,0.267395019531,-0.156311035156,0.911682128906
30187897367,-0.276000976562,0.255798339844,-0.163513183594,0.911926269531
30187920491,-0.283325195312,0.243103027344,-0.170349121094,0.911926269531
30187943016,-0.292358398438,0.229187011719,-0.1767578125,0.911437988281
30187957351,-0.302917480469,0.215393066406,-0.182800292969,0.91015625
30187980507,-0.311706542969,0.202941894531,-0.186767578125,0.909240722656
30188003043,-0.3173828125,0.191772460938,-0.189270019531,0.9091796875
30188024144,-0.321716308594,0.181274414062,-0.191833496094,0.909301757812
30188040505,-0.324523925781,0.171142578125,-0.195007324219,0.909606933594
30188070503,-0.325744628906,0.161376953125,-0.198425292969,0.91015625
30188084174,-0.3251953125,0.151794433594,-0.2021484375,0.911193847656
30188100512,-0.323791503906,0.142639160156,-0.2060546875,0.912292480469
30188123010,-0.322448730469,0.133850097656,-0.210510253906,0.9130859375
30188144146,-0.321350097656,0.125427246094,-0.21533203125,0.91357421875
30188160544,-0.321166992188,0.117492675781,-0.220092773438,0.91357421875
30188182986,-0.322021484375,0.109313964844,-0.224487304688,0.913208007812
30188204147,-0.324401855469,0.101501464844,-0.227905273438,0.912414550781
30188220497,-0.328002929688,0.0946044921875,-0.230163574219,0.911315917969
30188243019,-0.332702636719,0.0892333984375,-0.231567382812,0.909790039062
30188264190,-0.337829589844,0.0848999023438,-0.232604980469,0.908020019531
30188280488,-0.342590332031,0.0809326171875,-0.233764648438,0.906311035156
30188303066,-0.345764160156,0.077392578125,-0.234436035156,0.9052734375
30188324205,-0.3466796875,0.073486328125,-0.234680175781,0.905151367188
30188340522,-0.345825195312,0.069580078125,-0.234924316406,0.905700683594
30188363014,-0.343994140625,0.0660400390625,-0.235534667969,0.906555175781
30188384225,-0.341491699219,0.0623779296875,-0.236450195312,0.907531738281
30188400551,-0.338806152344,0.0582275390625,-0.237670898438,0.908447265625
30188422978,-0.336364746094,0.0540771484375,-0.2392578125,0.909240722656
30188444111,-0.334289550781,0.0497436523438,-0.240905761719,0.909790039062
30188460539,-0.333618164062,0.0458984375,-0.242431640625,0.909790039062
30188482982,-0.327880859375,0.0400390625,-0.244995117188,0.911499023438
30188504153,-0.322570800781,0.0350341796875,-0.24658203125,0.913208007812
30188511079,-0.318542480469,0.0301513671875,-0.247253417969,0.91455078125
30188527373,-0.317077636719,0.0260009765625,-0.24658203125,0.915405273438
30188548499,-0.315246582031,0.0228271484375,-0.245483398438,0.916442871094
30188571051,-0.313781738281,0.021240234375,-0.244323730469,0.917236328125
30188586037,-0.311645507812,0.0200805664062,-0.243713378906,0.918212890625
30188608542,-0.309143066406,0.0189819335938,-0.243347167969,0.919128417969
30188631004,-0.307189941406,0.017578125,-0.243347167969,0.919860839844
30188646056,-0.305725097656,0.0159301757812,-0.243713378906,0.920227050781
30188668500,-0.305114746094,0.0140991210938,-0.244323730469,0.920349121094
30188699791,-0.303894042969,0.01220703125,-0.2451171875,0.920532226562
30188706042,-0.302001953125,0.0104370117188,-0.245849609375,0.920959472656
30188728571,-0.299499511719,0.0086669921875,-0.24658203125,0.921630859375
30188751001,-0.296630859375,0.00714111328125,-0.246887207031,0.922485351562
30188766047,-0.294372558594,0.005859375,-0.247009277344,0.923217773438
30188788624,-0.292358398438,0.0045166015625,-0.2470703125,0.923828125
30188811174,-0.290832519531,0.00335693359375,-0.246887207031,0.924377441406
30188825926,-0.289428710938,0.00238037109375,-0.246520996094,0.924926757812
