27399502282,-0.0790405273438,0.08984375,-0.679931640625,0.723449707031
27399526032,-0.0790405273438,0.08984375,-0.679931640625,0.723449707031
27399547252,-0.07568359375,0.092529296875,-0.679931640625,0.723510742188
27399562292,-0.0753173828125,0.0902099609375,-0.680297851562,0.723449707031
27399586046,-0.0752563476562,0.08984375,-0.680358886719,0.723449707031
27399607371,-0.0760498046875,0.0879516601562,-0.680603027344,0.723388671875
27399622465,-0.0765991210938,0.087646484375,-0.680603027344,0.723327636719
27399646104,-0.0733642578125,0.0950317382812,-0.679748535156,0.723571777344
27399699293,-0.0729370117188,0.0951538085938,-0.6796875,0.7236328125
27399700094,-0.0765380859375,0.087646484375,-0.680603027344,0.723327636719
27399700900,-0.076904296875,0.087646484375,-0.680603027344,0.723266601562
27399720304,-0.0734252929688,0.0952758789062,-0.6796875,0.723571777344
27399738770,-0.0759887695312,0.0957641601562,-0.679565429688,0.723327636719
27399758820,-0.0762939453125,0.0956420898438,-0.679748535156,0.723205566406
27399775344,-0.0763549804688,0.0958251953125,-0.679748535156,0.72314453125
27399809693,-0.076416015625,0.0958251953125,-0.679748535156,0.72314453125
27399820523,-0.076416015625,0.0957641601562,-0.679748535156,0.72314453125
27399833619,-0.0758056640625,0.095947265625,-0.679931640625,0.723022460938
27399854736,-0.0795288085938,0.0899658203125,-0.680603027344,0.722778320312
27399877259,-0.0792846679688,0.0896606445312,-0.680603027344,0.722778320312
27399895035,-0.08154296875,0.08349609375,-0.681396484375,0.722534179688
27399914743,-0.0823974609375,0.082275390625,-0.681579589844,0.722473144531
27399937226,-0.08056640625,0.087890625,-0.680969238281,0.722534179688
27399955042,-0.0772094726562,0.0927734375,-0.680419921875,0.722839355469
27399974581,-0.0792846679688,0.086669921875,-0.68115234375,0.72265625
27399997172,-0.0800170898438,0.0857543945312,-0.681274414062,0.722595214844
27400014963,-0.0771484375,0.0927124023438,-0.680480957031,0.722778320312
27400035203,-0.0734252929688,0.0977783203125,-0.679931640625,0.722961425781
27400057067,-0.0755615234375,0.0971069335938,-0.679809570312,0.722961425781
27400075028,-0.0755004882812,0.097412109375,-0.679931640625,0.722839355469
27400094692,-0.0755615234375,0.0973510742188,-0.679931640625,0.722839355469
27400117280,-0.0755615234375,0.0973510742188,-0.679992675781,0.722839355469
27400134981,-0.0755615234375,0.0972900390625,-0.679992675781,0.722839355469
27400154732,-0.0756225585938,0.0972290039062,-0.679992675781,0.722839355469
27400177208,-0.0756225585938,0.09716796875,-0.679992675781,0.722839355469
27400195013,-0.0756225585938,0.0971069335938,-0.680114746094,0.72265625
27400216069,-0.0756225585938,0.0972290039062,-0.680297851562,0.722534179688
27400237205,-0.07568359375,0.097412109375,-0.680480957031,0.722290039062
27400255024,-0.0758666992188,0.0977172851562,-0.680725097656,0.722045898438
27400275997,-0.076171875,0.0982666015625,-0.680908203125,0.721740722656
27400297314,-0.0767211914062,0.0990600585938,-0.680969238281,0.721496582031
27400315017,-0.0775756835938,0.1005859375,-0.680908203125,0.721252441406
27400336074,-0.0779418945312,0.102355957031,-0.680786132812,0.721069335938
27400357333,-0.0778198242188,0.104736328125,-0.680541992188,0.721008300781
27400375003,-0.07763671875,0.107971191406,-0.680114746094,0.720947265625
27400396047,-0.0765380859375,0.111572265625,-0.679443359375,0.721130371094
27400417265,-0.073974609375,0.11474609375,-0.678649902344,0.7216796875
27400435028,-0.0706176757812,0.118041992188,-0.677795410156,0.722290039062
27400456047,-0.0665283203125,0.121337890625,-0.676818847656,0.723022460938
27400477247,-0.0621948242188,0.12451171875,-0.675659179688,0.723999023438
27400494971,-0.0577392578125,0.127319335938,-0.674255371094,0.725158691406
27400516019,-0.0529174804688,0.129821777344,-0.673278808594,0.725952148438
27400537173,-0.0485229492188,0.132873535156,-0.671691894531,0.727233886719
27400555576,-0.0446166992188,0.136657714844,-0.669311523438,0.728881835938
27400576000,-0.040283203125,0.140441894531,-0.666870117188,0.730712890625
27400597054,-0.034912109375,0.143920898438,-0.664489746094,0.732482910156
27400614964,-0.0289306640625,0.147766113281,-0.661987304688,0.734252929688
27400637462,-0.0225219726562,0.151611328125,-0.6591796875,0.736206054688
27400657200,-0.015869140625,0.155883789062,-0.656005859375,0.738342285156
27400675008,-0.00921630859375,0.160888671875,-0.652526855469,0.740417480469
27400697472,-0.00262451171875,0.166381835938,-0.648864746094,0.742431640625
27400716979,0.00390625,0.172485351562,-0.645202636719,0.744262695312
27400734959,0.0104370117188,0.178955078125,-0.641479492188,0.745910644531
27400757481,0.0170288085938,0.185791015625,-0.637634277344,0.747436523438
27400777081,0.0236206054688,0.193237304688,-0.633666992188,0.748718261719
27400800284,0.0304565429688,0.201110839844,-0.629760742188,0.749694824219
27400824975,0.0371704101562,0.209716796875,-0.625793457031,0.750305175781
27400839191,0.0440063476562,0.218688964844,-0.621887207031,0.750671386719
27400860437,0.0513916015625,0.227478027344,-0.617858886719,0.750915527344
27400876666,0.0593872070312,0.236083984375,-0.61376953125,0.7509765625
27400906625,0.0675659179688,0.244750976562,-0.609741210938,0.750854492188
27400920322,0.0753173828125,0.25390625,-0.605651855469,0.750366210938
27400936637,0.0833129882812,0.262634277344,-0.601684570312,0.749694824219
27400959187,0.0914916992188,0.271362304688,-0.597778320312,0.748718261719
27400980376,0.099365234375,0.280151367188,-0.593933105469,0.74755859375
27400996049,0.107666015625,0.288208007812,-0.590148925781,0.746337890625
27401026696,0.116821289062,0.295593261719,-0.586364746094,0.7451171875
27401040326,0.126159667969,0.302673339844,-0.582641601562,0.743591308594
27401055962,0.135009765625,0.310363769531,-0.578735351562,0.741943359375
27401079148,0.142944335938,0.318359375,-0.574768066406,0.740112304688
27401100463,0.150024414062,0.326293945312,-0.570617675781,0.738525390625
27401116068,0.157165527344,0.333740234375,-0.566528320312,0.73681640625
27401139197,0.164489746094,0.340759277344,-0.562744140625,0.734924316406
27401161696,0.171691894531,0.347290039062,-0.559326171875,0.732788085938
27401176045,0.178894042969,0.353149414062,-0.55615234375,0.730712890625
27401199199,0.185668945312,0.358703613281,-0.553100585938,0.728637695312
27401221677,0.192565917969,0.363586425781,-0.550109863281,0.726684570312
27401235992,0.198974609375,0.368347167969,-0.546936035156,0.724914550781
27401259105,0.204895019531,0.372802734375,-0.543884277344,0.723327636719
27401281684,0.210876464844,0.376953125,-0.541015625,0.721618652344
27401295985,0.216674804688,0.380859375,-0.5380859375,0.720031738281
27401319167,0.222229003906,0.384399414062,-0.535034179688,0.718688964844
27401341701,0.22705078125,0.38818359375,-0.531799316406,0.717529296875
27401364195,0.231140136719,0.392456054688,-0.528930664062,0.716003417969
27401386697,0.235107421875,0.39697265625,-0.525756835938,0.714599609375
27401401683,0.240051269531,0.400817871094,-0.522521972656,0.713195800781
27401422855,0.24560546875,0.403686523438,-0.519592285156,0.711853027344
27401439184,0.2509765625,0.406311035156,-0.5166015625,0.710632324219
27401461687,0.255859375,0.409423828125,-0.513793945312,0.709167480469
27401482855,0.260437011719,0.412170410156,-0.511535644531,0.70751953125
27401499169,0.264282226562,0.414611816406,-0.509033203125,0.706420898438
27401521650,0.267456054688,0.416564941406,-0.506896972656,0.705627441406
27401542852,0.270568847656,0.418395996094,-0.505432128906,0.704406738281
27401559194,0.273742675781,0.419982910156,-0.504638671875,0.702819824219
27401587865,0.276672363281,0.421264648438,-0.50341796875,0.701782226562
27401602830,0.278381347656,0.422790527344,-0.501892089844,0.701293945312
27401619182,0.279907226562,0.42431640625,-0.500854492188,0.700500488281
27401641705,0.282104492188,0.425476074219,-0.500549316406,0.699157714844
27401662848,0.284484863281,0.426208496094,-0.500244140625,0.697937011719
27401679121,0.286437988281,0.427185058594,-0.499755859375,0.696899414062
27401701632,0.287536621094,0.429016113281,-0.499267578125,0.695678710938
27401722849,0.28857421875,0.430541992188,-0.499206542969,0.6943359375
27401739201,0.2900390625,0.431274414062,-0.499328613281,0.693176269531
27401761642,0.29150390625,0.432189941406,-0.499450683594,0.69189453125
27401782808,0.292602539062,0.433471679688,-0.4990234375,0.690979003906
27401799150,0.293273925781,0.434814453125,-0.498291015625,0.690368652344
27401829141,0.293823242188,0.435852050781,-0.497741699219,0.689819335938
27401842841,0.294738769531,0.436462402344,-0.497497558594,0.689270019531
27401859173,0.295837402344,0.43701171875,-0.497192382812,0.688659667969
27401881682,0.296813964844,0.4375,-0.496459960938,0.688415527344
27401902728,0.297424316406,0.438171386719,-0.495788574219,0.688232421875
27401919182,0.29833984375,0.438659667969,-0.495239257812,0.68798828125
27401942081,0.299255371094,0.43896484375,-0.494567871094,0.687805175781
27401962675,0.299926757812,0.439636230469,-0.493530273438,0.687866210938
27401986638,0.300476074219,0.440185546875,-0.492492675781,0.68798828125
27402001636,0.301147460938,0.440795898438,-0.491760253906,0.687805175781
27402022746,0.30224609375,0.440979003906,-0.491027832031,0.687805175781
27402039194,0.303039550781,0.441284179688,-0.490112304688,0.687866210938
27402069199,0.303405761719,0.441589355469,-0.489379882812,0.688049316406
27402084137,0.303771972656,0.441711425781,-0.488708496094,0.688232421875
27402122961,0.304504394531,0.441711425781,-0.488098144531,0.688354492188
27402127724,0.304931640625,0.442016601562,-0.487243652344,0.688598632812
27402144139,0.305053710938,0.442321777344,-0.486511230469,0.688903808594
27402159167,0.305236816406,0.4423828125,-0.485961914062,0.689147949219
27402181686,0.305419921875,0.4423828125,-0.485412597656,0.689453125
27402204156,0.305297851562,0.4423828125,-0.484741210938,0.68994140625
27402218511,0.304992675781,0.442749023438,-0.484069824219,0.690368652344
27402249201,0.304992675781,0.442687988281,-0.483642578125,0.690673828125
27402263913,0.305114746094,0.442810058594,-0.482971191406,0.691040039062
27402278519,0.304931640625,0.44287109375,-0.482299804688,0.691528320312
27402301654,0.3046875,0.443054199219,-0.481872558594,0.691833496094
27402324176,0.304443359375,0.443176269531,-0.4814453125,0.692138671875
27402338484,0.304077148438,0.442932128906,-0.481201171875,0.692626953125
27402361610,0.303588867188,0.442749023438,-0.481079101562,0.693054199219
27402401044,0.302917480469,0.442749023438,-0.480895996094,0.693420410156
27402405351,0.302368164062,0.442626953125,-0.480895996094,0.693786621094
27402421670,0.30224609375,0.442321777344,-0.481079101562,0.693908691406
27402444173,0.301879882812,0.442199707031,-0.481140136719,0.694091796875
27402458461,0.301818847656,0.442199707031,-0.481201171875,0.694091796875
27402481602,0.301879882812,0.441833496094,-0.481262207031,0.694213867188
27402504172,0.301574707031,0.441528320312,-0.481323242188,0.694580078125
27402525212,0.301513671875,0.441528320312,-0.481323242188,0.694580078125
27402541647,0.301391601562,0.441467285156,-0.481262207031,0.694702148438
27402564201,0.300903320312,0.441345214844,-0.481140136719,0.695068359375
27402585192,0.300231933594,0.440856933594,-0.4814453125,0.695434570312
27402602083,0.300170898438,0.440734863281,-0.481506347656,0.695495605469
27402624069,0.299987792969,0.440795898438,-0.481628417969,0.695434570312
27402645191,0.299499511719,0.440368652344,-0.481689453125,0.695922851562
27402662144,0.298889160156,0.439880371094,-0.482055664062,0.696228027344
27402684135,0.298828125,0.439880371094,-0.482055664062,0.696228027344
27402705297,0.298828125,0.439819335938,-0.482055664062,0.6962890625
27402721669,0.298217773438,0.439880371094,-0.481750488281,0.696716308594
27402744145,0.297485351562,0.439575195312,-0.481750488281,0.697265625
27402765277,0.297485351562,0.439270019531,-0.481689453125,0.697509765625
27402781627,0.297424316406,0.439025878906,-0.481079101562,0.698059082031
27402804173,0.296630859375,0.43896484375,-0.480224609375,0.699035644531
27402825417,0.295288085938,0.438720703125,-0.4794921875,0.7001953125
27402841644,0.294616699219,0.438232421875,-0.478820800781,0.701293945312
27402864148,0.294067382812,0.437683105469,-0.477783203125,0.702575683594
27402885293,0.293334960938,0.43701171875,-0.476745605469,0.704040527344
27402901617,0.292419433594,0.436401367188,-0.476013183594,0.705261230469
27402924120,0.2919921875,0.435913085938,-0.4755859375,0.7060546875
27402945318,0.291870117188,0.435241699219,-0.475341796875,0.706726074219
27402961699,0.291198730469,0.434814453125,-0.475219726562,0.707275390625
27402984153,0.290649414062,0.434448242188,-0.475463867188,0.707580566406
27403005267,0.290466308594,0.434326171875,-0.475769042969,0.70751953125
27403021698,0.290344238281,0.434265136719,-0.475830078125,0.707580566406
27403050291,0.28955078125,0.434326171875,-0.475830078125,0.707824707031
27403066657,0.289245605469,0.4345703125,-0.475830078125,0.707824707031
27403081622,0.289184570312,0.434631347656,-0.475463867188,0.708068847656
27403104146,0.289184570312,0.434753417969,-0.474853515625,0.708374023438
27403126613,0.288696289062,0.434936523438,-0.474426269531,0.708801269531
27403141615,0.288391113281,0.434936523438,-0.473815917969,0.709289550781
27403164119,0.288269042969,0.434509277344,-0.473388671875,0.709899902344
27403186599,0.287841796875,0.434265136719,-0.473083496094,0.71044921875
27403201029,0.287231445312,0.433959960938,-0.472961425781,0.7109375
27403224172,0.286743164062,0.433471679688,-0.472961425781,0.71142578125
27403246731,0.286254882812,0.433044433594,-0.473022460938,0.711853027344
27403260979,0.285705566406,0.4326171875,-0.473205566406,0.712219238281
27403284121,0.285095214844,0.432312011719,-0.473449707031,0.712463378906
27403306649,0.284606933594,0.432006835938,-0.4736328125,0.712707519531
27403320972,0.284423828125,0.431579589844,-0.473815917969,0.712951660156
27403343982,0.284301757812,0.431030273438,-0.473937988281,0.713256835938
27403366615,0.283996582031,0.430114746094,-0.474182128906,0.713745117188
27403380986,0.283813476562,0.428955078125,-0.474548339844,0.714294433594
27403404593,0.283447265625,0.428039550781,-0.475280761719,0.714477539062
27403426619,0.282958984375,0.427185058594,-0.475952148438,0.714782714844
27403440930,0.282043457031,0.426147460938,-0.4765625,0.715270996094
27403464169,0.280639648438,0.424987792969,-0.477172851562,0.716125488281
27403486678,0.279113769531,0.423522949219,-0.4775390625,0.717407226562
27403492124,0.277526855469,0.422058105469,-0.47802734375,0.718505859375
27403508478,0.27587890625,0.420471191406,-0.478881835938,0.719543457031
27403529748,0.274230957031,0.418823242188,-0.479553222656,0.720642089844
27403552170,0.271179199219,0.41748046875,-0.480529785156,0.721984863281
27403583333,0.267517089844,0.415344238281,-0.481750488281,0.723754882812
27403589616,0.263671875,0.412902832031,-0.482788085938,0.725830078125
27403612070,0.260070800781,0.410339355469,-0.483764648438,0.727966308594
27403634650,0.256286621094,0.407592773438,-0.484619140625,0.730285644531
27403649597,0.251770019531,0.404663085938,-0.485046386719,0.733154296875
27403672116,0.24658203125,0.401428222656,-0.485290527344,0.736511230469
27403694693,0.241516113281,0.398010253906,-0.485778808594,0.73974609375
27403709647,0.236633300781,0.394104003906,-0.486633300781,0.742858886719
27403732161,0.232482910156,0.389526367188,-0.48779296875,0.745788574219
27403754501,0.228698730469,0.384765625,-0.488891601562,0.748718261719
27403769539,0.224670410156,0.380310058594,-0.489807128906,0.751586914062
27403792151,0.219909667969,0.376220703125,-0.490783691406,0.75439453125
27403810415,0.214599609375,0.372375488281,-0.4921875,0.756958007812
27403837148,0.209899902344,0.367736816406,-0.494201660156,0.759216308594
27403852071,0.20458984375,0.362731933594,-0.496704101562,0.761474609375
27403869937,0.198852539062,0.357482910156,-0.49951171875,0.763610839844
27403890993,0.192687988281,0.352172851562,-0.502685546875,0.765563964844
27403919705,0.186584472656,0.346740722656,-0.506469726562,0.767028808594
27403929935,0.181091308594,0.340881347656,-0.5107421875,0.768188476562
27403949610,0.175842285156,0.334350585938,-0.515563964844,0.76904296875
27403972223,0.169311523438,0.327819824219,-0.520690917969,0.769897460938
27403989903,0.161499023438,0.321166992188,-0.526184082031,0.770629882812
27404009627,0.153747558594,0.314208984375,-0.532165527344,0.77099609375
27404039654,0.146606445312,0.306579589844,-0.538757324219,0.770812988281
27404049933,0.139221191406,0.298645019531,-0.545776367188,0.770385742188
27404069627,0.130981445312,0.290710449219,-0.552917480469,0.769775390625
27404091992,0.122314453125,0.282836914062,-0.560119628906,0.768981933594
27404109940,0.114074707031,0.2744140625,-0.5673828125,0.767944335938
27404129596,0.1064453125,0.265197753906,-0.574890136719,0.766662597656
27404152215,0.0980834960938,0.256164550781,-0.582275390625,0.765319824219
27404169958,0.0892944335938,0.247497558594,-0.58935546875,0.763793945312
27404189623,0.0813598632812,0.238342285156,-0.5966796875,0.761901855469
27404212204,0.0744018554688,0.228576660156,-0.603515625,0.76025390625
27404237382,0.0659790039062,0.219543457031,-0.609619140625,0.7587890625
27404257054,0.056640625,0.210815429688,-0.615478515625,0.75732421875
27404272068,0.047607421875,0.201843261719,-0.621337890625,0.755615234375
27404289905,0.039306640625,0.192321777344,-0.627258300781,0.753662109375
27404309767,0.0324096679688,0.18212890625,-0.632995605469,0.751708984375
27404332153,0.0261840820312,0.172302246094,-0.638427734375,0.749694824219
27404363347,0.0199584960938,0.163513183594,-0.643371582031,0.747619628906
27404369607,0.0133666992188,0.15625,-0.647705078125,0.745544433594
27404391987,0.0067138671875,0.150207519531,-0.651550292969,0.743530273438
27404409913,-0.0003662109375,0.145568847656,-0.654907226562,0.741577148438
27404429651,-0.0072021484375,0.141357421875,-0.657836914062,0.73974609375
27404452127,-0.013427734375,0.137390136719,-0.660522460938,0.738037109375
27404469926,-0.0188598632812,0.133911132812,-0.662963867188,0.736328125
27404489749,-0.0238647460938,0.130859375,-0.66552734375,0.734436035156
27404514888,-0.0283203125,0.128112792969,-0.668029785156,0.732482910156
27404529971,-0.0321655273438,0.125549316406,-0.670471191406,0.730529785156
27404551001,-0.0355834960938,0.123718261719,-0.672729492188,0.728637695312
27404572312,-0.0386962890625,0.122863769531,-0.674621582031,0.726806640625
27404589892,-0.0418701171875,0.122680664062,-0.676208496094,0.725219726562
27404610899,-0.0449829101562,0.123046875,-0.677490234375,0.723754882812
27404632141,-0.0474853515625,0.123779296875,-0.678649902344,0.722412109375
27404649934,-0.049072265625,0.124267578125,-0.679809570312,0.721069335938
27404670931,-0.0505981445312,0.125,-0.6806640625,0.720092773438
27404692189,-0.0530395507812,0.126403808594,-0.681091308594,0.71923828125
27404709942,-0.0552978515625,0.127502441406,-0.681457519531,0.718505859375
27404730953,-0.0567016601562,0.1279296875,-0.68212890625,0.717712402344
27404759526,-0.0576171875,0.1279296875,-0.682861328125,0.716918945312
27404769893,-0.0581665039062,0.12744140625,-0.683532714844,0.71630859375
27404792438,-0.0590209960938,0.127197265625,-0.684143066406,0.715759277344
27404812125,-0.0601806640625,0.127014160156,-0.684692382812,0.715148925781
27404829935,-0.0615234375,0.126892089844,-0.685119628906,0.714660644531
27404850913,-0.0630493164062,0.126708984375,-0.685546875,0.714111328125
27404889950,-0.0658569335938,0.125427246094,-0.686767578125,0.712951660156
27404910932,-0.0675659179688,0.12451171875,-0.687255859375,0.712463378906
27404932083,-0.0697021484375,0.123718261719,-0.687683105469,0.711975097656
27404949930,-0.0721435546875,0.123046875,-0.688110351562,0.711486816406
27404972440,-0.0744018554688,0.122131347656,-0.688537597656,0.7109375
27404994962,-0.0760498046875,0.120971679688,-0.689147949219,0.710388183594
27405009912,-0.0777587890625,0.119873046875,-0.689819335938,0.709716796875
27405032436,-0.0792846679688,0.118957519531,-0.690368652344,0.709228515625
27405052015,-0.0806884765625,0.117492675781,-0.690979003906,0.708679199219
27405069926,-0.08154296875,0.115783691406,-0.691589355469,0.708251953125
27405091667,-0.0823364257812,0.114501953125,-0.692016601562,0.707946777344
27405112812,-0.0830688476562,0.11328125,-0.692321777344,0.707763671875
27405129203,-0.08349609375,0.112121582031,-0.6923828125,0.707824707031
27405151603,-0.0834350585938,0.110961914062,-0.6923828125,0.7080078125
27405172852,-0.082763671875,0.109924316406,-0.6923828125,0.708312988281
27405189151,-0.0820922851562,0.109130859375,-0.692199707031,0.708618164062
27405211619,-0.0814819335938,0.108276367188,-0.692016601562,0.709045410156
27405232689,-0.0809936523438,0.107482910156,-0.691833496094,0.709411621094
27405249075,-0.0806884765625,0.10693359375,-0.691772460938,0.709533691406
27405271597,-0.0806274414062,0.106506347656,-0.691711425781,0.709716796875
27405285983,-0.0807495117188,0.106018066406,-0.691650390625,0.709838867188
27405309097,-0.0808715820312,0.105285644531,-0.691711425781,0.709838867188
27405331624,-0.081298828125,0.104675292969,-0.691833496094,0.709777832031
27405346422,-0.0819091796875,0.104309082031,-0.691955566406,0.709655761719
27405369102,-0.0819702148438,0.104248046875,-0.691955566406,0.709655761719
27405391578,-0.0817260742188,0.1044921875,-0.691955566406,0.709655761719
27405405970,-0.0821533203125,0.105712890625,-0.691711425781,0.709655761719
27405429133,-0.0828857421875,0.107177734375,-0.690856933594,0.710205078125
27405451601,-0.08251953125,0.107788085938,-0.690185546875,0.710754394531
27405472576,-0.0811767578125,0.107604980469,-0.690368652344,0.710815429688
27405489152,-0.0791015625,0.106811523438,-0.69091796875,0.710632324219
27405511594,-0.0782470703125,0.106567382812,-0.691162109375,0.710510253906
27405532889,-0.078857421875,0.107177734375,-0.690734863281,0.710754394531
27405549099,-0.0792236328125,0.10693359375,-0.690368652344,0.711059570312
27405571623,-0.0780029296875,0.105163574219,-0.690673828125,0.711181640625
27405592723,-0.0765991210938,0.103393554688,-0.691101074219,0.711181640625
27405609145,-0.0763549804688,0.1025390625,-0.690979003906,0.711486816406
