27937055645,-0.124267578125,0.0819091796875,-0.964965820312,0.216125488281
27937079287,-0.124145507812,0.0821533203125,-0.964965820312,0.216125488281
27937094516,-0.127502441406,0.0816040039062,-0.964599609375,0.216064453125
27937115961,-0.131652832031,0.0797729492188,-0.964294433594,0.215698242188
27937139407,-0.132934570312,0.0790405273438,-0.964233398438,0.215454101562
27937154420,-0.131896972656,0.0809326171875,-0.964172363281,0.215698242188
27937175658,-0.130249023438,0.0820922851562,-0.964233398438,0.216003417969
27937199392,-0.129333496094,0.0816650390625,-0.964294433594,0.216186523438
27937253363,-0.135375976562,0.0773315429688,-0.964111328125,0.215148925781
27937254081,-0.136047363281,0.078125,-0.963928222656,0.215087890625
27937254926,-0.12939453125,0.083251953125,-0.964111328125,0.216430664062
27937276348,-0.127502441406,0.0836181640625,-0.964294433594,0.216735839844
27937292166,-0.12451171875,0.0867919921875,-0.964294433594,0.217102050781
27937310771,-0.123840332031,0.0872802734375,-0.96435546875,0.216979980469
27937334375,-0.123657226562,0.0877685546875,-0.96435546875,0.216918945312
27937362988,-0.123474121094,0.0880737304688,-0.96435546875,0.216918945312
27937374620,-0.123229980469,0.08837890625,-0.96435546875,0.216979980469
27937395060,-0.122924804688,0.0884399414062,-0.96435546875,0.217041015625
27937408050,-0.122192382812,0.0917358398438,-0.964111328125,0.217346191406
27937430554,-0.128051757812,0.0888061523438,-0.9638671875,0.216247558594
27937453081,-0.129638671875,0.0889892578125,-0.963684082031,0.216064453125
27937468107,-0.123718261719,0.09375,-0.963684082031,0.21728515625
27937490590,-0.119506835938,0.0961303710938,-0.963806152344,0.218078613281
27937512954,-0.124084472656,0.0927124023438,-0.963745117188,0.217224121094
27937528146,-0.127868652344,0.0914916992188,-0.963500976562,0.216674804688
27937550606,-0.122802734375,0.0962524414062,-0.963439941406,0.217895507812
27937581783,-0.11865234375,0.0989379882812,-0.963500976562,0.21875
27937587912,-0.116638183594,0.0986938476562,-0.963745117188,0.218811035156
27937610573,-0.117919921875,0.100158691406,-0.963439941406,0.21875
27937633019,-0.117553710938,0.101318359375,-0.963439941406,0.218566894531
27937648070,-0.117370605469,0.102294921875,-0.96337890625,0.218505859375
27937670572,-0.117126464844,0.103271484375,-0.963317871094,0.218322753906
27937693050,-0.116333007812,0.10498046875,-0.963317871094,0.218017578125
27937708072,-0.114990234375,0.107299804688,-0.963256835938,0.217834472656
27937730460,-0.113464355469,0.109924316406,-0.963134765625,0.217956542969
27937753059,-0.111694335938,0.113098144531,-0.962890625,0.218139648438
27937769403,-0.109741210938,0.117065429688,-0.962646484375,0.218200683594
27937790435,-0.107849121094,0.122192382812,-0.962280273438,0.217956542969
27937812899,-0.106201171875,0.128295898438,-0.961853027344,0.217224121094
27937829387,-0.104370117188,0.134216308594,-0.961364746094,0.216491699219
27937850411,-0.102355957031,0.140869140625,-0.960815429688,0.215881347656
27937884614,-0.100280761719,0.147583007812,-0.960266113281,0.214782714844
27937889388,-0.0972290039062,0.154479980469,-0.959899902344,0.212768554688
27937910609,-0.0929565429688,0.161010742188,-0.959655761719,0.211059570312
27937934365,-0.0874633789062,0.167541503906,-0.959350585938,0.209777832031
27937949405,-0.0819702148438,0.174560546875,-0.958862304688,0.208374023438
27937978072,-0.0765380859375,0.181274414062,-0.958374023438,0.206970214844
27937993055,-0.070068359375,0.187683105469,-0.9580078125,0.205322265625
27938010898,-0.06298828125,0.194091796875,-0.957397460938,0.204528808594
27938030593,-0.0565185546875,0.200988769531,-0.956359863281,0.204528808594
27938052905,-0.0501708984375,0.208862304688,-0.954956054688,0.204895019531
27938069424,-0.0441284179688,0.217102050781,-0.953369140625,0.204956054688
27938090410,-0.0377197265625,0.223937988281,-0.952209472656,0.204528808594
27938113063,-0.0313720703125,0.231262207031,-0.950622558594,0.204711914062
27938137106,-0.0244750976562,0.237670898438,-0.949096679688,0.205383300781
27938150456,-0.0167846679688,0.244140625,-0.947448730469,0.2060546875
27938172996,-0.0089111328125,0.252380371094,-0.945190429688,0.207153320312
27938190932,0.0,0.260620117188,-0.942504882812,0.209289550781
27938210390,0.0103759765625,0.267028808594,-0.93994140625,0.212341308594
27938233073,0.02197265625,0.2705078125,-0.93798828125,0.215881347656
27938250934,0.0347290039062,0.271240234375,-0.9365234375,0.219604492188
27938277905,0.04833984375,0.269409179688,-0.935546875,0.223388671875
27938292977,0.0631103515625,0.265319824219,-0.934753417969,0.227844238281
27938318323,0.0791015625,0.259887695312,-0.933776855469,0.233093261719
27938330455,0.0957641601562,0.254699707031,-0.932067871094,0.239379882812
27938353765,0.112548828125,0.250732421875,-0.929443359375,0.246276855469
27938370471,0.129638671875,0.247863769531,-0.925964355469,0.253601074219
27938392571,0.147644042969,0.243774414062,-0.922180175781,0.261413574219
27938413534,0.166259765625,0.237731933594,-0.918273925781,0.26953125
27938430031,0.184875488281,0.230529785156,-0.9140625,0.277770996094
27938452578,0.203430175781,0.222778320312,-0.909606933594,0.285766601562
27938473699,0.221618652344,0.214660644531,-0.90478515625,0.293579101562
27938490018,0.239013671875,0.205810546875,-0.899780273438,0.301574707031
27938512537,0.254943847656,0.196533203125,-0.894714355469,0.309631347656
27938533565,0.269470214844,0.187438964844,-0.889526367188,0.31787109375
27938549372,0.283569335938,0.177490234375,-0.884399414062,0.325561523438
27938574008,0.299377441406,0.166137695312,-0.878356933594,0.333557128906
27938593531,0.314697265625,0.15185546875,-0.872497558594,0.341552734375
27938609314,0.326293945312,0.141723632812,-0.866943359375,0.34912109375
27938632495,0.335815429688,0.133117675781,-0.861999511719,0.355651855469
27938653678,0.34716796875,0.122314453125,-0.856994628906,0.360717773438
27938669423,0.359802246094,0.112365722656,-0.851013183594,0.365661621094
27938692636,0.372131347656,0.101013183594,-0.845092773438,0.370361328125
27938715039,0.379638671875,0.0950317382812,-0.840209960938,0.375427246094
27938729380,0.384887695312,0.0923461914062,-0.836059570312,0.3798828125
27938752514,0.39208984375,0.0860595703125,-0.832397460938,0.382080078125
27938775054,0.402465820312,0.076416015625,-0.828308105469,0.382202148438
27938789350,0.412902832031,0.0665893554688,-0.824157714844,0.381896972656
27938812584,0.420166015625,0.0606079101562,-0.8203125,0.383239746094
27938835489,0.424865722656,0.0582275390625,-0.81689453125,0.385681152344
27938849380,0.429626464844,0.0546264648438,-0.813781738281,0.387573242188
27938872502,0.434143066406,0.0496215820312,-0.811279296875,0.388488769531
27938895527,0.436828613281,0.0469970703125,-0.809326171875,0.389831542969
27938916141,0.438659667969,0.0454711914062,-0.807739257812,0.391235351562
27938932523,0.44140625,0.04248046875,-0.806335449219,0.391357421875
27938955041,0.443481445312,0.03955078125,-0.805053710938,0.392028808594
27938976193,0.443908691406,0.037841796875,-0.803894042969,0.393981933594
27938992604,0.443786621094,0.0352783203125,-0.80322265625,0.395751953125
27939014994,0.442443847656,0.03125,-0.803649902344,0.396728515625
27939036222,0.439514160156,0.0263061523438,-0.8046875,0.398254394531
27939052523,0.436767578125,0.0195922851562,-0.805541992188,0.39990234375
27939074996,0.434448242188,0.0133666992188,-0.806213378906,0.401428222656
27939096038,0.431640625,0.00701904296875,-0.807312011719,0.402282714844
27939112452,0.427795410156,0.0008544921875,-0.808959960938,0.403137207031
27939135013,0.42333984375,-0.00567626953125,-0.810852050781,0.404113769531
27939156180,0.418334960938,-0.011962890625,-0.812438964844,0.405883789062
27939173000,0.413208007812,-0.0184326171875,-0.814086914062,0.40771484375
27939195029,0.408203125,-0.0245971679688,-0.815856933594,0.408813476562
27939217484,0.4033203125,-0.0305786132812,-0.817749023438,0.409545898438
27939232493,0.398376464844,-0.03564453125,-0.820007324219,0.409423828125
27939255020,0.392456054688,-0.0390625,-0.822387695312,0.410034179688
27939276172,0.387390136719,-0.0440673828125,-0.824035644531,0.411010742188
27939292507,0.382934570312,-0.0501708984375,-0.825439453125,0.411743164062
27939315045,0.377990722656,-0.0565795898438,-0.827209472656,0.411926269531
27939336092,0.371887207031,-0.0618286132812,-0.8291015625,0.412902832031
27939360063,0.365295410156,-0.0662231445312,-0.830810546875,0.414733886719
27939375472,0.358947753906,-0.0709838867188,-0.832336425781,0.416381835938
27939396176,0.353332519531,-0.0771484375,-0.833862304688,0.416931152344
27939418751,0.347839355469,-0.0834350585938,-0.835571289062,0.4169921875
27939442492,0.341491699219,-0.0880126953125,-0.83740234375,0.417663574219
27939456220,0.335327148438,-0.09033203125,-0.838989257812,0.418884277344
27939471949,0.330627441406,-0.0924072265625,-0.84033203125,0.419494628906
27939494995,0.327331542969,-0.0946655273438,-0.841674804688,0.418884277344
27939541393,0.323974609375,-0.0955810546875,-0.843017578125,0.418579101562
27939546165,0.320617675781,-0.0949096679688,-0.844299316406,0.418823242188
27939555052,0.317626953125,-0.0936889648438,-0.845336914062,0.419250488281
27939576207,0.31494140625,-0.0924072265625,-0.846252441406,0.419738769531
27939592510,0.312683105469,-0.091796875,-0.84716796875,0.419677734375
27939614965,0.311096191406,-0.0918579101562,-0.847839355469,0.419555664062
27939637522,0.309448242188,-0.0918579101562,-0.848449707031,0.41943359375
27939652520,0.307434082031,-0.091796875,-0.849304199219,0.419189453125
27939675030,0.304992675781,-0.0911865234375,-0.850219726562,0.419372558594
27939704993,0.302673339844,-0.0904541015625,-0.851013183594,0.419555664062
27939727502,0.30029296875,-0.0899658203125,-0.85205078125,0.419250488281
27939735009,0.298400878906,-0.08984375,-0.852905273438,0.418823242188
27939757494,0.296508789062,-0.0887451171875,-0.853698730469,0.418884277344
27939771945,0.294921875,-0.088134765625,-0.854187011719,0.419067382812
27939794986,0.294860839844,-0.0889282226562,-0.854248046875,0.418823242188
27939817522,0.295288085938,-0.089599609375,-0.854309082031,0.418212890625
27939831924,0.294799804688,-0.0892333984375,-0.854675292969,0.417907714844
27939855020,0.293701171875,-0.0877075195312,-0.855041503906,0.418212890625
27939891633,0.292724609375,-0.0863647460938,-0.855224609375,0.418823242188
27939901467,0.292419433594,-0.0860595703125,-0.855285644531,0.419006347656
27939915030,0.292663574219,-0.0868530273438,-0.855285644531,0.418701171875
27939937546,0.292297363281,-0.0869140625,-0.855590820312,0.418334960938
27939951917,0.291381835938,-0.0859375,-0.855895996094,0.418579101562
27939975012,0.290405273438,-0.0851440429688,-0.856018066406,0.419128417969
27939997489,0.289855957031,-0.0852661132812,-0.856079101562,0.419250488281
27940011851,0.289733886719,-0.0858154296875,-0.856140136719,0.419189453125
27940035145,0.289367675781,-0.086181640625,-0.856262207031,0.419128417969
27940073779,0.28857421875,-0.0858154296875,-0.8564453125,0.41943359375
27940078628,0.287475585938,-0.0855712890625,-0.856689453125,0.419677734375
27940095025,0.286437988281,-0.0855712890625,-0.856994628906,0.419738769531
27940118147,0.285766601562,-0.0857543945312,-0.857238769531,0.419677734375
27940138652,0.285034179688,-0.0856323242188,-0.857482910156,0.419677734375
27940155045,0.284362792969,-0.08544921875,-0.857727050781,0.419738769531
27940177528,0.283508300781,-0.0848999023438,-0.85791015625,0.419982910156
27940199782,0.283203125,-0.0848999023438,-0.85791015625,0.420227050781
27940214960,0.283447265625,-0.0852661132812,-0.857788085938,0.420227050781
27940237531,0.283447265625,-0.0852661132812,-0.857788085938,0.420227050781
27940258674,0.283081054688,-0.0847778320312,-0.857971191406,0.420166015625
27940274993,0.282775878906,-0.0841674804688,-0.858154296875,0.420104980469
27940297520,0.282775878906,-0.083740234375,-0.858154296875,0.420227050781
27940326061,0.282531738281,-0.0838012695312,-0.858276367188,0.420104980469
27940335024,0.282043457031,-0.0839233398438,-0.858459472656,0.420166015625
27940357960,0.281616210938,-0.0838012695312,-0.858642578125,0.420043945312
27940378565,0.280883789062,-0.0829467773438,-0.85888671875,0.420227050781
27940395033,0.280639648438,-0.0819702148438,-0.859008789062,0.420349121094
27940417494,0.280944824219,-0.0812377929688,-0.859069824219,0.420104980469
27940438534,0.281127929688,-0.0802612304688,-0.859436035156,0.419372558594
27940454992,0.281433105469,-0.0797119140625,-0.859497070312,0.419189453125
27940491734,0.2822265625,-0.07958984375,-0.859375,0.419006347656
27940506145,0.282958984375,-0.0796508789062,-0.859252929688,0.418640136719
27940515006,0.282958984375,-0.0789794921875,-0.859680175781,0.41796875
27940537498,0.282348632812,-0.0778198242188,-0.860046386719,0.417846679688
27940559969,0.281799316406,-0.0764770507812,-0.860168457031,0.418212890625
27940574969,0.281555175781,-0.076416015625,-0.8603515625,0.418029785156
27940604989,0.281311035156,-0.0755615234375,-0.86083984375,0.417297363281
27940619945,0.281127929688,-0.0740966796875,-0.860656738281,0.41796875
27940634986,0.282104492188,-0.0726928710938,-0.860656738281,0.417663574219
27940657497,0.283386230469,-0.071533203125,-0.860595703125,0.417175292969
27940680023,0.285522460938,-0.0701904296875,-0.860473632812,0.416198730469
27940694343,0.287719726562,-0.0679321289062,-0.8603515625,0.415222167969
27940717490,0.289611816406,-0.063720703125,-0.860595703125,0.414123535156
27940739969,0.292175292969,-0.0584106445312,-0.860595703125,0.4130859375
27940754353,0.296020507812,-0.0527954101562,-0.860412597656,0.411499023438
27940777566,0.300659179688,-0.0468139648438,-0.860473632812,0.408630371094
27940816146,0.305603027344,-0.0409545898438,-0.860534667969,0.405517578125
27940828571,0.310119628906,-0.0348510742188,-0.8603515625,0.402954101562
27940838897,0.314270019531,-0.0281982421875,-0.859985351562,0.401062011719
27940860041,0.318359375,-0.0206298828125,-0.859436035156,0.399475097656
27940881212,0.32275390625,-0.0123291015625,-0.858764648438,0.397705078125
27940897547,0.327331542969,-0.00347900390625,-0.858215332031,0.395385742188
27940919985,0.331420898438,0.006103515625,-0.857666015625,0.39306640625
27940941136,0.335815429688,0.0164184570312,-0.856994628906,0.390563964844
27940988838,0.340454101562,0.0275268554688,-0.856201171875,0.3876953125
27940994320,0.344787597656,0.039306640625,-0.855285644531,0.384826660156
27941001007,0.348754882812,0.0514526367188,-0.854125976562,0.382385253906
27941017519,0.352661132812,0.0636596679688,-0.852661132812,0.380126953125
27941039997,0.35595703125,0.0757446289062,-0.851257324219,0.378051757812
27941062541,0.358581542969,0.0869140625,-0.849914550781,0.376159667969
27941077549,0.361022949219,0.0958251953125,-0.8486328125,0.37451171875
27941100441,0.363159179688,0.102111816406,-0.84765625,0.372985839844
27941121027,0.363891601562,0.107482910156,-0.84716796875,0.371948242188
27941137497,0.362976074219,0.112854003906,-0.846923828125,0.371826171875
27941160055,0.360900878906,0.118774414062,-0.846862792969,0.3720703125
27941188499,0.358032226562,0.125244140625,-0.84716796875,0.3720703125
27941197461,0.354309082031,0.132263183594,-0.847717285156,0.371948242188
27941221069,0.349426269531,0.139404296875,-0.8486328125,0.371887207031
27941241275,0.343566894531,0.146301269531,-0.849914550781,0.371826171875
27941281803,0.337890625,0.151000976562,-0.851623535156,0.371154785156
27941286128,0.332458496094,0.153442382812,-0.854187011719,0.369201660156
27941300994,0.326904296875,0.154846191406,-0.857238769531,0.366394042969
27941325020,0.320861816406,0.155822753906,-0.860534667969,0.363647460938
27941339994,0.314697265625,0.155944824219,-0.863952636719,0.360900878906
27941361215,0.308837890625,0.154907226562,-0.867492675781,0.35791015625
27941376837,0.302795410156,0.15380859375,-0.87109375,0.354736328125
27941399974,0.296081542969,0.153686523438,-0.874816894531,0.351257324219
27941420988,0.288513183594,0.154418945312,-0.878662109375,0.34765625
27941427908,0.28076171875,0.154174804688,-0.882568359375,0.344116210938
27941445740,0.272766113281,0.153503417969,-0.886535644531,0.340637207031
27941465302,0.264404296875,0.153259277344,-0.890502929688,0.337097167969
27941488065,0.255615234375,0.153869628906,-0.894470214844,0.333068847656
27941504339,0.245910644531,0.154541015625,-0.8984375,0.329284667969
27941525412,0.236145019531,0.155944824219,-0.901977539062,0.326171875
27941548009,0.22607421875,0.158813476562,-0.905090332031,0.3232421875
27941564341,0.216003417969,0.162536621094,-0.908081054688,0.319946289062
27941585530,0.205932617188,0.165893554688,-0.911071777344,0.316284179688
27941608132,0.195861816406,0.167907714844,-0.913818359375,0.313659667969
27941623003,0.185485839844,0.170288085938,-0.916381835938,0.311157226562
27941645346,0.174682617188,0.172241210938,-0.919250488281,0.307861328125
27941670760,0.164123535156,0.173217773438,-0.922302246094,0.304138183594
27941684320,0.154602050781,0.172546386719,-0.925231933594,0.300415039062
27941705398,0.145141601562,0.170654296875,-0.928283691406,0.296875
27941728046,0.135437011719,0.169067382812,-0.931274414062,0.292907714844
27941745833,0.126281738281,0.167175292969,-0.934143066406,0.2890625
27941765379,0.117065429688,0.165710449219,-0.936645507812,0.285522460938
27941787950,0.107727050781,0.165161132812,-0.938903808594,0.2822265625
27941803051,0.098388671875,0.164855957031,-0.940856933594,0.279296875
27941825478,0.0887451171875,0.165344238281,-0.942565917969,0.2763671875
27941848004,0.0791625976562,0.166748046875,-0.944091796875,0.273193359375
27941863012,0.0701293945312,0.168090820312,-0.945495605469,0.27001953125
27941885466,0.0618286132812,0.168151855469,-0.946960449219,0.266906738281
27941908010,0.0540161132812,0.167541503906,-0.948486328125,0.263488769531
27941922878,0.046630859375,0.167602539062,-0.949829101562,0.259887695312
27941948282,0.0391845703125,0.168212890625,-0.951049804688,0.25634765625
