28300185786,0.01611328125,-0.40966796875,0.8662109375
28300206923,0.00927734375,-0.41796875,0.87109375
28300222131,0.0107421875,-0.4208984375,0.86962890625
28300245550,0.126953125,-0.505859375,1.1025390625
28300267041,-0.4658203125,-0.6796875,1.04443359375
28300282114,-0.3203125,-0.6611328125,1.1630859375
28300305666,-0.62109375,-0.537109375,0.63134765625
28300327046,-0.115234375,-0.2001953125,0.3701171875
28300350766,0.6142578125,-0.1787109375,0.97021484375
28300381395,0.263671875,-0.546875,1.4189453125
28300383444,-0.5556640625,-0.62451171875,0.85595703125
28300395666,-0.26953125,-0.2626953125,0.34521484375
28300417625,0.57763671875,-0.15966796875,0.8857421875
28300433359,-0.28076171875,-0.39501953125,0.83935546875
28300470678,0.0078125,-0.4228515625,0.873046875
28300506898,0.02099609375,-0.40185546875,0.87939453125
28300517046,0.0166015625,-0.400390625,0.88037109375
28300518548,0.01806640625,-0.40380859375,0.88232421875
28300545668,-0.083984375,-0.37548828125,0.794921875
28300551881,-0.509765625,-0.5908203125,0.96533203125
28300574336,0.046875,-0.63916015625,1.3564453125
28300596874,-0.41162109375,-0.6865234375,1.0634765625
28300611818,-0.55029296875,-0.44091796875,0.435546875
28300634525,0.23486328125,-0.13671875,0.5126953125
28300656857,0.63037109375,-0.3115234375,1.2509765625
28300671915,-0.1396484375,-0.66748046875,1.2685546875
28300694385,-0.59521484375,-0.5029296875,0.533203125
28300716705,0.15869140625,-0.134765625,0.5009765625
28300731961,0.39990234375,-0.197265625,0.783203125
28300754504,0.01708984375,-0.32373046875,0.87548828125
28300776846,0.03759765625,-0.435546875,0.908203125
28300791872,0.05322265625,-0.505859375,0.939453125
28300821757,0.0615234375,-0.46728515625,0.8974609375
28300836833,0.05322265625,-0.40380859375,0.87158203125
28300851815,0.0361328125,-0.4375,0.8994140625
28300874336,0.03466796875,-0.4736328125,0.8984375
28300896828,0.02099609375,-0.48779296875,0.88720703125
28300911966,-0.03662109375,-0.46484375,0.861328125
28300934248,-0.04345703125,-0.486328125,0.88525390625
28300964979,-0.05078125,-0.50439453125,0.896484375
28300973166,-0.0537109375,-0.49560546875,0.86962890625
28300994527,-0.06298828125,-0.4765625,0.8544921875
28301016942,-0.07275390625,-0.45556640625,0.85498046875
28301033233,-0.12744140625,-0.4443359375,0.82763671875
28301054366,-0.14501953125,-0.41455078125,0.8662109375
28301076811,-0.13427734375,-0.37548828125,0.884765625
28301093295,-0.134765625,-0.35400390625,0.8828125
28301114354,-0.15625,-0.36279296875,0.87744140625
28301136863,-0.181640625,-0.3984375,0.87060546875
28301153178,-0.17333984375,-0.3984375,0.86865234375
28301174280,-0.17724609375,-0.41552734375,0.869140625
28301196842,-0.1826171875,-0.39013671875,0.87353515625
28301213194,-0.20263671875,-0.3671875,0.869140625
28301234412,-0.21728515625,-0.3505859375,0.8662109375
28301256696,-0.23583984375,-0.34521484375,0.861328125
28301273232,-0.255859375,-0.35595703125,0.85107421875
28301294308,-0.26220703125,-0.376953125,0.84521484375
28301316815,-0.27978515625,-0.39501953125,0.8623046875
28301333173,-0.265625,-0.40478515625,0.85986328125
28301354362,-0.2744140625,-0.39697265625,0.87548828125
28301379629,-0.30517578125,-0.35595703125,0.86865234375
28301395268,-0.32275390625,-0.3125,0.8671875
28301414311,-0.32568359375,-0.2939453125,0.86474609375
28301444289,-0.32861328125,-0.2958984375,0.87255859375
28301454592,-0.345703125,-0.2958984375,0.8818359375
28301474342,-0.3564453125,-0.28662109375,0.876953125
28301497550,-0.3759765625,-0.2646484375,0.85302734375
28301513916,-0.3984375,-0.2626953125,0.8515625
28301536316,-0.4072265625,-0.275390625,0.8486328125
28301557507,-0.42578125,-0.2734375,0.83984375
28301573944,-0.45947265625,-0.2421875,0.8037109375
28301596345,-0.47705078125,-0.22607421875,0.802734375
28301617440,-0.4990234375,-0.234375,0.80810546875
28301633845,-0.5166015625,-0.23193359375,0.77880859375
28301656367,-0.52734375,-0.22607421875,0.77685546875
28301677491,-0.54296875,-0.2353515625,0.77783203125
28301693827,-0.56103515625,-0.2294921875,0.77294921875
28301716316,-0.56982421875,-0.2109375,0.7509765625
28301737953,-0.6015625,-0.2080078125,0.72314453125
28301753192,-0.62939453125,-0.216796875,0.71044921875
28301776365,-0.62548828125,-0.22412109375,0.70654296875
28301797493,-0.64404296875,-0.2353515625,0.712890625
28301813154,-0.671875,-0.22509765625,0.68212890625
28301836351,-0.689453125,-0.20703125,0.6650390625
28301858879,-0.69384765625,-0.203125,0.66162109375
28301873191,-0.701171875,-0.19287109375,0.67431640625
28301896348,-0.72509765625,-0.19580078125,0.65478515625
28301918635,-0.73681640625,-0.16796875,0.64208984375
28301934600,-0.74072265625,-0.1640625,0.6484375
28301956336,-0.78125,-0.16259765625,0.64111328125
28301978825,-0.8076171875,-0.1455078125,0.607421875
28301993142,-0.87109375,-0.1611328125,0.59228515625
28302016306,-0.85791015625,-0.1630859375,0.59912109375
28302038790,-0.84326171875,-0.18896484375,0.59326171875
28302053124,-0.85888671875,-0.166015625,0.56689453125
28302076344,-0.85205078125,-0.140625,0.55078125
28302098922,-0.82763671875,-0.15087890625,0.54345703125
28302119982,-0.85107421875,-0.138671875,0.49755859375
28302136318,-0.86474609375,-0.0927734375,0.458984375
28302158969,-0.845703125,-0.10400390625,0.47509765625
28302180006,-0.845703125,-0.08544921875,0.45556640625
28302196322,-0.8681640625,-0.060546875,0.43310546875
28302218768,-0.8759765625,-0.02587890625,0.41552734375
28302240147,-0.88525390625,-0.02978515625,0.41015625
28302256345,-0.900390625,-0.04150390625,0.41064453125
28302278799,-0.91650390625,-0.025390625,0.400390625
28302299771,-0.90673828125,-0.01513671875,0.41455078125
28302316325,-0.9130859375,-0.01123046875,0.4052734375
28302338970,-0.91845703125,0.009765625,0.4013671875
28302360116,-0.90283203125,0.02197265625,0.40771484375
28302376329,-0.90966796875,0.01416015625,0.41943359375
28302398796,-0.91552734375,0.02685546875,0.40380859375
28302436975,-0.92724609375,0.0283203125,0.37646484375
28302439401,-0.89599609375,0.01904296875,0.4013671875
28302458814,-0.89990234375,0.021484375,0.39599609375
28302480686,-0.89697265625,0.02783203125,0.38623046875
28302496314,-0.9052734375,0.02783203125,0.369140625
28302518818,-0.888671875,0.0283203125,0.35595703125
28302539931,-0.90576171875,0.04052734375,0.35986328125
28302556298,-0.90771484375,0.03564453125,0.36376953125
28302578787,-0.890625,0.06591796875,0.36279296875
28302599957,-0.9033203125,0.080078125,0.34716796875
28302616319,-0.90234375,0.0595703125,0.3603515625
28302638913,-0.9248046875,0.06005859375,0.34814453125
28302661323,-0.94287109375,0.09326171875,0.349609375
28302676244,-0.9189453125,0.111328125,0.34326171875
28302698818,-0.9228515625,0.10498046875,0.3466796875
28302719837,-0.93603515625,0.10400390625,0.3486328125
28302743799,-0.94189453125,0.123046875,0.32861328125
28302766304,-0.9296875,0.1279296875,0.31298828125
28302780008,-0.92431640625,0.1240234375,0.33642578125
28302796319,-0.92919921875,0.115234375,0.328125
28302818798,-0.9443359375,0.12548828125,0.31298828125
28302865158,-0.92138671875,0.1025390625,0.322265625
28302870003,-0.92578125,0.099609375,0.32568359375
28302878828,-0.91845703125,0.1162109375,0.30029296875
28302901496,-0.9267578125,0.115234375,0.31982421875
28302916309,-0.94189453125,0.1103515625,0.32080078125
28302946292,-0.92724609375,0.1181640625,0.3203125
28302961282,-0.9365234375,0.12939453125,0.310546875
28302991320,-0.92333984375,0.12744140625,0.33203125
28302998799,-0.9365234375,0.134765625,0.33251953125
28303022787,-0.93359375,0.1201171875,0.3427734375
28303035673,-0.927734375,0.1064453125,0.34619140625
28303066327,-0.94580078125,0.1201171875,0.3291015625
28303097684,-0.9384765625,0.11474609375,0.34033203125
28303119405,-0.9267578125,0.09716796875,0.3486328125
28303121777,-0.9365234375,0.1064453125,0.35205078125
28303141339,-0.9228515625,0.1123046875,0.33544921875
28303155687,-0.94091796875,0.11328125,0.3369140625
28303178861,-0.93701171875,0.1103515625,0.326171875
28303201277,-0.9267578125,0.09912109375,0.3349609375
28303223781,-0.95263671875,0.10009765625,0.3154296875
28303238753,-0.93359375,0.11962890625,0.3359375
28303267413,-0.94482421875,0.10205078125,0.341796875
28303275618,-0.9150390625,0.095703125,0.361328125
28303299197,-0.9462890625,0.1064453125,0.3369140625
28303352647,-0.9296875,0.109375,0.33447265625
28303359453,-0.93017578125,0.0966796875,0.34130859375
28303361797,-0.93310546875,0.09228515625,0.3681640625
28303381297,-0.9375,0.0927734375,0.3349609375
28303402402,-0.9375,0.080078125,0.32373046875
28303418831,-0.91162109375,0.0537109375,0.35595703125
28303448807,-0.92578125,0.0966796875,0.3544921875
28303464241,-0.91455078125,0.1181640625,0.3447265625
28303478840,-0.92529296875,0.09130859375,0.36083984375
28303501318,-0.94189453125,0.1005859375,0.3388671875
28303522486,-0.93798828125,0.10791015625,0.3486328125
28303538799,-0.93310546875,0.0927734375,0.36279296875
28303561332,-0.94580078125,0.0869140625,0.34765625
28303582464,-0.95751953125,0.09130859375,0.32666015625
28303598796,-0.94091796875,0.08056640625,0.33642578125
28303621274,-0.93603515625,0.07421875,0.34814453125
28303642447,-0.93994140625,0.0859375,0.32421875
28303658784,-0.9248046875,0.0986328125,0.3212890625
28303681842,-0.91796875,0.1181640625,0.3408203125
28303702437,-0.97607421875,0.09033203125,0.29638671875
28303718213,-0.98046875,0.1181640625,0.28662109375
28303741292,-0.9306640625,0.15673828125,0.2939453125
28303763793,-0.9228515625,0.12109375,0.357421875
28303778117,-0.91015625,0.0517578125,0.3798828125
28303801265,-0.9228515625,0.00146484375,0.38720703125
28303823797,-0.91552734375,0.00390625,0.4189453125
28303838162,-0.89404296875,0.0068359375,0.43359375
28303861314,-0.8818359375,-0.017578125,0.458984375
28303883832,-0.88232421875,-0.06591796875,0.4775390625
28303898607,-0.85302734375,-0.08544921875,0.4921875
28303928788,-0.82470703125,-0.07958984375,0.50732421875
28303943812,-0.822265625,-0.1015625,0.51904296875
28303964953,-0.82470703125,-0.142578125,0.515625
28303981322,-0.796875,-0.13427734375,0.55322265625
28304003795,-0.75927734375,-0.1416015625,0.578125
28304024929,-0.72607421875,-0.166015625,0.62744140625
28304041316,-0.69580078125,-0.1943359375,0.64306640625
28304063818,-0.693359375,-0.14208984375,0.640625
28304084987,-0.72509765625,-0.09228515625,0.6435546875
28304101272,-0.7138671875,-0.05908203125,0.62109375
28304123783,-0.6806640625,-0.09033203125,0.64453125
28304152466,-0.63720703125,-0.169921875,0.68212890625
28304161304,-0.61474609375,-0.18359375,0.7041015625
28304183802,-0.5830078125,-0.1611328125,0.7373046875
28304205052,-0.56640625,-0.1494140625,0.751953125
28304221333,-0.529296875,-0.12158203125,0.74462890625
28304243746,-0.505859375,-0.12548828125,0.76220703125
28304264858,-0.48095703125,-0.17041015625,0.78759765625
28304281317,-0.419921875,-0.2470703125,0.85888671875
28304303747,-0.3564453125,-0.27197265625,0.84814453125
28304324963,-0.36083984375,-0.24462890625,0.83447265625
28304341265,-0.37353515625,-0.25732421875,0.8671875
28304363798,-0.34716796875,-0.24609375,0.85400390625
28304385038,-0.3115234375,-0.2314453125,0.85986328125
28304401267,-0.30419921875,-0.22900390625,0.87890625
28304423799,-0.2841796875,-0.27880859375,0.91162109375
28304445133,-0.2412109375,-0.3115234375,0.921875
28304461292,-0.21240234375,-0.30029296875,0.9345703125
28304483824,-0.20361328125,-0.28173828125,0.94580078125
28304505004,-0.16357421875,-0.291015625,0.95458984375
28304520670,-0.12109375,-0.31103515625,0.96337890625
28304543781,-0.11572265625,-0.29638671875,0.96533203125
28304565616,-0.11669921875,-0.27197265625,0.93896484375
28304580621,-0.099609375,-0.27490234375,0.94921875
28304603804,-0.0703125,-0.2822265625,0.94873046875
28304624897,-0.0419921875,-0.2919921875,0.94677734375
28304631788,-0.03369140625,-0.2841796875,0.94775390625
28304648143,-0.03076171875,-0.2900390625,0.9375
28304669313,-0.01708984375,-0.2900390625,0.9287109375
28304691747,-0.0078125,-0.28857421875,0.9365234375
28304708125,0.00341796875,-0.29052734375,0.92138671875
28304729358,-0.00634765625,-0.294921875,0.91845703125
28304751665,0.00244140625,-0.3232421875,0.9267578125
28304768072,0.015625,-0.32373046875,0.9111328125
28304789189,0.01806640625,-0.3046875,0.919921875
28304811937,0.0166015625,-0.2861328125,0.94873046875
28304828142,-0.03173828125,-0.3173828125,0.99072265625
28304849308,0.02392578125,-0.26904296875,0.998046875
28304871681,-0.00146484375,-0.30859375,0.986328125
28304886678,0.01123046875,-0.349609375,0.96435546875
28304909406,0.01806640625,-0.32568359375,0.93359375
28304931801,-0.0087890625,-0.3330078125,0.88525390625
28304948153,0.0107421875,-0.3330078125,0.8720703125
28304969226,0.0751953125,-0.35107421875,0.86865234375
28304991869,0.103515625,-0.35009765625,0.85595703125
28305006771,0.0634765625,-0.353515625,0.87548828125
28305029267,0.0439453125,-0.3583984375,0.8818359375
28305051822,0.052734375,-0.34521484375,0.89013671875
28305066801,0.0791015625,-0.31103515625,0.94091796875
28305089273,0.04052734375,-0.32373046875,0.91845703125
28305111653,0.04345703125,-0.3447265625,0.892578125
28305129593,0.09912109375,-0.33935546875,0.873046875
28305149317,0.1748046875,-0.365234375,0.92822265625
28305171802,0.17724609375,-0.31298828125,0.9423828125
28305186798,0.14013671875,-0.33837890625,0.94287109375
28305209387,0.12353515625,-0.384765625,0.91064453125
28305231647,0.1376953125,-0.41796875,0.8916015625
28305246773,0.14111328125,-0.4013671875,0.87109375
28305269195,0.11572265625,-0.39306640625,0.87451171875
28305287065,0.10791015625,-0.35302734375,0.88916015625
28305308110,0.1181640625,-0.318359375,0.9033203125
28305329155,0.1513671875,-0.3046875,0.9140625
