29531177152,0.03759765625,-0.63623046875,0.73779296875
29531192164,0.03271484375,-0.6474609375,0.7333984375
29531216002,0.0458984375,-0.6630859375,0.73193359375
29531236971,0.4189453125,-0.642578125,0.794921875
29531260186,-0.5419921875,-0.9931640625,0.9677734375
29531275827,-0.3583984375,-1.0400390625,0.8935546875
29531297142,-0.68505859375,-0.9384765625,0.22705078125
29531320894,-0.208984375,-0.48291015625,0.09716796875
29531365857,0.61328125,-0.2333984375,0.85498046875
29531374852,0.60986328125,-0.572265625,1.45654296875
29531375522,-0.22314453125,-1.02001953125,1.005859375
29531388474,-0.68115234375,-0.9384765625,0.17578125
29531410832,-0.09716796875,-0.43603515625,0.15234375
29531428465,0.19873046875,-0.61279296875,0.6865234375
29531450043,-0.01123046875,-0.62890625,0.7041015625
29531502130,0.044921875,-0.6533203125,0.73681640625
29531502807,0.0283203125,-0.6494140625,0.7275390625
29531509781,0.0322265625,-0.6474609375,0.72998046875
29531529575,0.21826171875,-0.62548828125,0.650390625
29531545787,0.8056640625,-0.27783203125,0.552734375
29531576473,0.125,-0.33837890625,0.33740234375
29531597509,0.63818359375,-0.24609375,0.8857421875
29531613931,0.6396484375,-0.54931640625,1.43994140625
29531636435,-0.16796875,-1.00048828125,1.0654296875
29531657630,-0.68017578125,-0.95361328125,0.193359375
29531673973,-0.13330078125,-0.4619140625,0.11962890625
29531696404,0.67236328125,-0.24853515625,0.9638671875
29531717504,0.51025390625,-0.6494140625,1.466796875
29531733965,0.6123046875,-0.63720703125,0.78857421875
29531756475,0.12890625,-0.626953125,0.76220703125
29531777573,0.0400390625,-0.64697265625,0.73681640625
29531793941,0.0341796875,-0.63916015625,0.72705078125
29531816444,0.0341796875,-0.6474609375,0.73046875
29531837566,0.03466796875,-0.6474609375,0.7314453125
29531853939,0.0322265625,-0.6396484375,0.73388671875
29531876469,0.0341796875,-0.640625,0.73193359375
29531898924,0.0341796875,-0.6435546875,0.72705078125
29531913907,0.03515625,-0.64013671875,0.7333984375
29531936455,0.03564453125,-0.6357421875,0.72802734375
29531958985,0.03857421875,-0.63671875,0.73681640625
29531973930,0.033203125,-0.650390625,0.734375
29531996467,0.03662109375,-0.6513671875,0.73046875
29532018933,0.03173828125,-0.64404296875,0.73193359375
29532033293,0.0361328125,-0.6416015625,0.73291015625
29532056482,0.0400390625,-0.638671875,0.73779296875
29532078986,0.0400390625,-0.62939453125,0.74658203125
29532093277,0.03857421875,-0.63037109375,0.73779296875
29532116458,0.0390625,-0.63232421875,0.7509765625
29532138930,0.04052734375,-0.63916015625,0.740234375
29532153292,0.0361328125,-0.63671875,0.744140625
29532176413,0.04150390625,-0.638671875,0.74462890625
29532198924,0.03857421875,-0.626953125,0.74365234375
29532213296,0.03857421875,-0.62744140625,0.7470703125
29532236429,0.04345703125,-0.63134765625,0.7490234375
29532258977,0.0458984375,-0.62939453125,0.74462890625
29532273291,0.0498046875,-0.6328125,0.751953125
29532296446,0.05078125,-0.64501953125,0.7490234375
29532318886,0.046875,-0.6513671875,0.7587890625
29532333317,0.05078125,-0.65625,0.75537109375
29532356493,0.05224609375,-0.66455078125,0.7626953125
29532369443,0.06005859375,-0.6611328125,0.76318359375
29532384477,0.07177734375,-0.6826171875,0.76953125
29532406865,0.0478515625,-0.70947265625,0.7568359375
29532429335,0.05126953125,-0.71630859375,0.7734375
29532444432,0.0400390625,-0.6708984375,0.7734375
29532466924,0.00830078125,-0.646484375,0.78369140625
29532489476,0.01220703125,-0.646484375,0.80859375
29532505801,0.0,-0.59814453125,0.83642578125
29532526884,-0.02099609375,-0.578125,0.83837890625
29532549301,-0.01220703125,-0.5732421875,0.84375
29532564565,-0.01171875,-0.61474609375,0.84423828125
29532586993,-0.03955078125,-0.654296875,0.82421875
29532609333,-0.06884765625,-0.66552734375,0.79833984375
29532624333,-0.09521484375,-0.69921875,0.7705078125
29532646949,-0.1240234375,-0.72119140625,0.7431640625
29532669394,-0.13427734375,-0.71533203125,0.7041015625
29532684476,-0.17431640625,-0.71240234375,0.67431640625
29532706925,-0.1982421875,-0.7236328125,0.63671875
29532729578,-0.2333984375,-0.724609375,0.59326171875
29532744514,-0.27587890625,-0.73193359375,0.5595703125
29532766922,-0.31298828125,-0.75927734375,0.53759765625
29532789368,-0.33837890625,-0.79150390625,0.5361328125
29532804412,-0.35498046875,-0.7802734375,0.51708984375
29532826927,-0.37158203125,-0.77197265625,0.501953125
29532849398,-0.38037109375,-0.74609375,0.51953125
29532864431,-0.40625,-0.7060546875,0.5078125
29532886929,-0.45166015625,-0.7080078125,0.47998046875
29532909332,-0.48095703125,-0.72998046875,0.447265625
29532924392,-0.48779296875,-0.6982421875,0.46142578125
29532946948,-0.4892578125,-0.6875,0.4580078125
29532969454,-0.5380859375,-0.7119140625,0.44873046875
29532985741,-0.58935546875,-0.72802734375,0.42041015625
29533006860,-0.57568359375,-0.67919921875,0.439453125
29533029369,-0.57958984375,-0.658203125,0.44677734375
29533045803,-0.62158203125,-0.67919921875,0.423828125
29533066966,-0.63525390625,-0.67333984375,0.40673828125
29533089326,-0.634765625,-0.638671875,0.37939453125
29533105777,-0.666015625,-0.6298828125,0.35009765625
29533126957,-0.6767578125,-0.6455078125,0.36083984375
29533149279,-0.66357421875,-0.60009765625,0.34716796875
29533165741,-0.69287109375,-0.5927734375,0.3359375
29533186922,-0.6884765625,-0.58251953125,0.33154296875
29533209503,-0.7041015625,-0.5732421875,0.32373046875
29533225779,-0.7197265625,-0.55029296875,0.3154296875
29533246913,-0.7294921875,-0.54296875,0.3154296875
29533269388,-0.73779296875,-0.544921875,0.29541015625
29533285742,-0.763671875,-0.55712890625,0.2880859375
29533306935,-0.76806640625,-0.5078125,0.279296875
29533329388,-0.74755859375,-0.52490234375,0.296875
29533347178,-0.77001953125,-0.5244140625,0.3076171875
29533366940,-0.763671875,-0.4755859375,0.3017578125
29533389421,-0.76318359375,-0.51220703125,0.2822265625
29533407232,-0.7763671875,-0.521484375,0.28466796875
29533426981,-0.7802734375,-0.53955078125,0.2958984375
29533449401,-0.78857421875,-0.52783203125,0.31103515625
29533467217,-0.78271484375,-0.5068359375,0.31982421875
29533486989,-0.7841796875,-0.51318359375,0.35693359375
29533504738,-0.7998046875,-0.49267578125,0.34765625
29533527200,-0.79833984375,-0.4853515625,0.32958984375
29533546887,-0.78564453125,-0.50537109375,0.36328125
29533564732,-0.78564453125,-0.53125,0.3623046875
29533587253,-0.7978515625,-0.50732421875,0.32958984375
29533606926,-0.79248046875,-0.48779296875,0.33740234375
29533624705,-0.77783203125,-0.45361328125,0.39013671875
29533647213,-0.7822265625,-0.4453125,0.4013671875
29533666960,-0.79052734375,-0.45556640625,0.36328125
29533684714,-0.80712890625,-0.50732421875,0.36279296875
29533707255,-0.7890625,-0.490234375,0.37890625
29533726920,-0.7861328125,-0.49169921875,0.42431640625
29533746150,-0.78076171875,-0.41064453125,0.40576171875
29533767199,-0.79931640625,-0.40771484375,0.37548828125
29533786969,-0.77734375,-0.447265625,0.38623046875
29533804730,-0.78466796875,-0.50146484375,0.38671875
29533827211,-0.7705078125,-0.47314453125,0.40625
29533846900,-0.78662109375,-0.5244140625,0.37158203125
29533864679,-0.78076171875,-0.4912109375,0.39501953125
29533887265,-0.77001953125,-0.53369140625,0.4189453125
29533906918,-0.7900390625,-0.51953125,0.3798828125
29533924717,-0.80224609375,-0.51416015625,0.3349609375
29533947271,-0.79248046875,-0.5556640625,0.38525390625
29533967551,-0.79345703125,-0.5166015625,0.392578125
29533983924,-0.828125,-0.49853515625,0.32470703125
29534006395,-0.82763671875,-0.55517578125,0.3388671875
29534027571,-0.81884765625,-0.59326171875,0.39208984375
29534043924,-0.80712890625,-0.5068359375,0.4296875
29534066389,-0.78466796875,-0.4560546875,0.39453125
29534087593,-0.755859375,-0.4599609375,0.40234375
29534103924,-0.732421875,-0.4931640625,0.4267578125
29534126423,-0.72216796875,-0.50341796875,0.4580078125
29534147431,-0.73095703125,-0.49853515625,0.4501953125
29534163922,-0.75341796875,-0.48779296875,0.41845703125
29534186451,-0.75390625,-0.517578125,0.43212890625
29534207572,-0.744140625,-0.49609375,0.4306640625
29534223914,-0.7548828125,-0.49072265625,0.4189453125
29534246415,-0.765625,-0.47705078125,0.40869140625
29534268921,-0.7607421875,-0.50390625,0.4111328125
29534283923,-0.76611328125,-0.49365234375,0.41015625
29534306433,-0.77978515625,-0.47900390625,0.34765625
29534328937,-0.765625,-0.48779296875,0.4130859375
29534343920,-0.740234375,-0.48046875,0.427734375
29534366434,-0.7744140625,-0.47265625,0.3974609375
29534388920,-0.75537109375,-0.4892578125,0.40869140625
29534403925,-0.77294921875,-0.48681640625,0.38427734375
29534426420,-0.7568359375,-0.498046875,0.40234375
29534448922,-0.7734375,-0.52099609375,0.39306640625
29534463217,-0.77197265625,-0.49658203125,0.40380859375
29534486422,-0.7705078125,-0.478515625,0.40869140625
29534508930,-0.7783203125,-0.48583984375,0.40185546875
29534523246,-0.779296875,-0.51416015625,0.3916015625
29534546426,-0.7900390625,-0.53271484375,0.3798828125
29534568920,-0.765625,-0.5185546875,0.40771484375
29534583245,-0.77587890625,-0.55126953125,0.39013671875
29534606394,-0.77294921875,-0.537109375,0.388671875
29534628921,-0.7802734375,-0.52783203125,0.38427734375
29534643245,-0.77197265625,-0.51708984375,0.392578125
29534666396,-0.771484375,-0.49072265625,0.3857421875
29534688979,-0.7607421875,-0.5263671875,0.39306640625
29534703269,-0.765625,-0.5234375,0.3798828125
29534726417,-0.75439453125,-0.53759765625,0.4013671875
29534748933,-0.77392578125,-0.52197265625,0.38818359375
29534770053,-0.76611328125,-0.5390625,0.3720703125
29534786513,-0.75634765625,-0.55126953125,0.400390625
29534808922,-0.7578125,-0.52685546875,0.39208984375
29534830076,-0.76806640625,-0.5126953125,0.38232421875
29534846369,-0.7607421875,-0.46435546875,0.3740234375
29534868924,-0.7724609375,-0.50830078125,0.36865234375
29534890056,-0.76904296875,-0.51171875,0.39208984375
29534906421,-0.755859375,-0.48193359375,0.4169921875
29534928943,-0.7666015625,-0.4267578125,0.4287109375
29534950165,-0.7705078125,-0.41259765625,0.390625
29534966393,-0.8056640625,-0.53125,0.3896484375
29534988924,-0.783203125,-0.54052734375,0.35546875
29535010079,-0.78173828125,-0.568359375,0.37744140625
29535025750,-0.76025390625,-0.515625,0.37939453125
29535048943,-0.763671875,-0.51220703125,0.349609375
29535070045,-0.79833984375,-0.51513671875,0.33447265625
29535086391,-0.7529296875,-0.53125,0.34765625
29535110327,-0.7158203125,-0.53564453125,0.369140625
29535130072,-0.7177734375,-0.50390625,0.3486328125
29535145815,-0.71142578125,-0.53857421875,0.35595703125
29535168916,-0.6923828125,-0.56494140625,0.3525390625
29535197578,-0.68310546875,-0.59375,0.34765625
29535205726,-0.67431640625,-0.61328125,0.375
29535228969,-0.64990234375,-0.5595703125,0.41357421875
29535251422,-0.6103515625,-0.49951171875,0.41748046875
29535265768,-0.60888671875,-0.51904296875,0.40673828125
29535288923,-0.59716796875,-0.6005859375,0.41259765625
29535311414,-0.55517578125,-0.6787109375,0.43994140625
29535325716,-0.51318359375,-0.64208984375,0.46826171875
29535349013,-0.490234375,-0.56494140625,0.49072265625
29535371425,-0.486328125,-0.60986328125,0.52294921875
29535385749,-0.447265625,-0.7119140625,0.546875
29535408928,-0.3955078125,-0.67578125,0.595703125
29535431369,-0.37353515625,-0.61572265625,0.634765625
29535445679,-0.37890625,-0.6357421875,0.62890625
29535468971,-0.3681640625,-0.67822265625,0.64404296875
29535491370,-0.30419921875,-0.6904296875,0.669921875
29535512516,-0.25146484375,-0.68994140625,0.7001953125
29535528956,-0.25439453125,-0.71923828125,0.7021484375
29535551399,-0.2646484375,-0.7412109375,0.716796875
29535572714,-0.220703125,-0.6953125,0.72509765625
29535588916,-0.18798828125,-0.6435546875,0.7392578125
29535611396,-0.1904296875,-0.673828125,0.748046875
29535632545,-0.17724609375,-0.68212890625,0.76318359375
29535648946,-0.15673828125,-0.6611328125,0.74462890625
29535671370,-0.1552734375,-0.6494140625,0.76904296875
29535692670,-0.1484375,-0.65478515625,0.771484375
29535708975,-0.13232421875,-0.64501953125,0.79443359375
29535731374,-0.1064453125,-0.625,0.78857421875
29535753919,-0.10302734375,-0.60107421875,0.7744140625
29535768920,-0.10986328125,-0.59521484375,0.791015625
29535791378,-0.07861328125,-0.5859375,0.7900390625
29535812620,-0.072265625,-0.58544921875,0.7939453125
29535828939,-0.06103515625,-0.55908203125,0.8134765625
29535851376,-0.052734375,-0.55908203125,0.80712890625
29535872564,-0.060546875,-0.5634765625,0.82080078125
29535888924,-0.0439453125,-0.541015625,0.818359375
29535911429,-0.02978515625,-0.53662109375,0.83154296875
29535932688,-0.02734375,-0.54443359375,0.82373046875
29535948930,-0.01953125,-0.56884765625,0.87744140625
29535971423,0.0078125,-0.626953125,0.873046875
29535992634,0.0654296875,-0.58837890625,0.83837890625
29536008891,0.025390625,-0.57958984375,0.80517578125
29536031351,0.00439453125,-0.6201171875,0.787109375
29536052652,0.0078125,-0.6474609375,0.7705078125
29536068925,0.01123046875,-0.611328125,0.7783203125
29536091374,0.0009765625,-0.5556640625,0.7822265625
29536112505,0.00048828125,-0.54541015625,0.79541015625
29536128917,0.0166015625,-0.54833984375,0.81005859375
29536151403,0.02294921875,-0.556640625,0.81103515625
29536173902,0.02783203125,-0.54296875,0.79443359375
29536188910,0.01953125,-0.53466796875,0.78857421875
29536211356,0.01416015625,-0.56201171875,0.7802734375
29536233915,0.02294921875,-0.6083984375,0.7783203125
29536248219,0.041015625,-0.6044921875,0.814453125
29536271369,0.0625,-0.55908203125,0.83740234375
29536293929,0.048828125,-0.4970703125,0.85107421875
29536315164,0.02734375,-0.46630859375,0.83056640625
29536331398,0.00439453125,-0.48779296875,0.8154296875
29536353927,0.0224609375,-0.51806640625,0.82470703125
29536368216,0.04541015625,-0.51953125,0.82177734375
