28497484884,-0.0784301757812,0.241394042969,-0.922119140625,0.292114257812
28497506068,-0.0784912109375,0.241394042969,-0.922058105469,0.292114257812
28497521105,-0.0771484375,0.241271972656,-0.922180175781,0.292358398438
28497544983,-0.0816040039062,0.237670898438,-0.923095703125,0.291198730469
28497566199,-0.0825805664062,0.23681640625,-0.923278808594,0.290954589844
28497581180,-0.08203125,0.237243652344,-0.923217773438,0.291076660156
28497604948,-0.0758056640625,0.242309570312,-0.921875,0.292663574219
28497626141,-0.0757446289062,0.242431640625,-0.921875,0.292724609375
28497681959,-0.0773315429688,0.241149902344,-0.922180175781,0.292297363281
28497684040,-0.07763671875,0.240783691406,-0.922302246094,0.292236328125
28497684787,-0.07177734375,0.245300292969,-0.921142578125,0.293640136719
28497697532,-0.069091796875,0.247741699219,-0.920471191406,0.294372558594
28497717617,-0.0714721679688,0.246337890625,-0.920654296875,0.294250488281
28497732538,-0.071044921875,0.245910644531,-0.920837402344,0.294311523438
28497784146,-0.0712890625,0.245544433594,-0.9208984375,0.294250488281
28497784933,-0.0714721679688,0.244995117188,-0.921020507812,0.294189453125
28497798480,-0.071533203125,0.244506835938,-0.921203613281,0.294128417969
28497814825,-0.0740966796875,0.243896484375,-0.921203613281,0.294006347656
28497844078,-0.0794677734375,0.239440917969,-0.92236328125,0.292602539062
28497866614,-0.0801391601562,0.238952636719,-0.922485351562,0.292419433594
28497883016,-0.0862426757812,0.234313964844,-0.923645019531,0.290832519531
28497905497,-0.0869140625,0.233703613281,-0.923767089844,0.290649414062
28497926681,-0.0816040039062,0.237609863281,-0.9228515625,0.2919921875
28497942971,-0.0773315429688,0.241333007812,-0.921875,0.293212890625
28497965527,-0.0784301757812,0.240478515625,-0.922119140625,0.292907714844
28497986574,-0.0831298828125,0.236267089844,-0.923217773438,0.291564941406
28498002984,-0.0821533203125,0.236999511719,-0.923034667969,0.291809082031
28498025496,-0.08544921875,0.236450195312,-0.923034667969,0.291320800781
28498030878,-0.0858154296875,0.236694335938,-0.923034667969,0.291015625
28498053416,-0.0853271484375,0.236999511719,-0.922973632812,0.291076660156
28498076042,-0.0848999023438,0.236938476562,-0.922973632812,0.291137695312
28498091016,-0.0844116210938,0.236633300781,-0.923095703125,0.291198730469
28498113641,-0.0838012695312,0.236450195312,-0.923156738281,0.291381835938
28498136018,-0.0830688476562,0.236206054688,-0.923156738281,0.291687011719
28498151021,-0.082275390625,0.236022949219,-0.923217773438,0.291931152344
28498173483,-0.0814819335938,0.235717773438,-0.923278808594,0.292114257812
28498195982,-0.0806274414062,0.235534667969,-0.923400878906,0.292236328125
28498211089,-0.0796508789062,0.235290527344,-0.923522949219,0.292358398438
28498233531,-0.0784301757812,0.235046386719,-0.923583984375,0.292602539062
28498256049,-0.0769653320312,0.234802246094,-0.923645019531,0.292907714844
28498271111,-0.0750122070312,0.234375,-0.923767089844,0.293518066406
28498293353,-0.0723876953125,0.233764648438,-0.923889160156,0.294311523438
28498315978,-0.069091796875,0.233337402344,-0.923950195312,0.295227050781
28498331057,-0.0654296875,0.233703613281,-0.923706054688,0.296508789062
28498353420,-0.0616455078125,0.235717773438,-0.922973632812,0.298034667969
28498376046,-0.0584106445312,0.239196777344,-0.921813964844,0.299438476562
28498391085,-0.0546264648438,0.241760253906,-0.920837402344,0.301147460938
28498413502,-0.0496215820312,0.24365234375,-0.920166015625,0.302490234375
28498435967,-0.0437622070312,0.244506835938,-0.919738769531,0.304077148438
28498451048,-0.037353515625,0.244323730469,-0.919494628906,0.305847167969
28498473356,-0.0297241210938,0.2431640625,-0.919677734375,0.306945800781
28498496021,-0.0215454101562,0.242614746094,-0.919738769531,0.307922363281
28498511088,-0.01220703125,0.242614746094,-0.919494628906,0.309143066406
28498533404,-0.00177001953125,0.24365234375,-0.918823242188,0.310546875
28498555994,0.009765625,0.245056152344,-0.917785644531,0.312194824219
28498571043,0.0228881835938,0.24609375,-0.916564941406,0.314331054688
28498593508,0.0380859375,0.245849609375,-0.915222167969,0.317077636719
28498615883,0.0555419921875,0.245239257812,-0.913391113281,0.320129394531
28498641305,0.0772094726562,0.241882324219,-0.911315917969,0.324157714844
28498653525,0.0997314453125,0.237609863281,-0.909118652344,0.327209472656
28498676352,0.123779296875,0.23291015625,-0.906127929688,0.330749511719
28498691097,0.148376464844,0.227966308594,-0.902221679688,0.334655761719
28498713504,0.172485351562,0.224975585938,-0.897216796875,0.338562011719
28498735910,0.195129394531,0.225524902344,-0.890869140625,0.342651367188
28498750944,0.216430664062,0.228881835938,-0.883178710938,0.347534179688
28498773322,0.236938476562,0.232788085938,-0.874755859375,0.352844238281
28498803441,0.25634765625,0.236938476562,-0.866027832031,0.357971191406
28498814484,0.274536132812,0.24072265625,-0.857360839844,0.362731933594
28498833446,0.292236328125,0.243408203125,-0.848815917969,0.367248535156
28498855989,0.309631347656,0.24365234375,-0.840515136719,0.371887207031
28498873794,0.3251953125,0.242797851562,-0.832702636719,0.376770019531
28498893301,0.339294433594,0.241271972656,-0.825012207031,0.382019042969
28498916052,0.3515625,0.239807128906,-0.817565917969,0.387939453125
28498933820,0.362060546875,0.238525390625,-0.810363769531,0.394165039062
28498953498,0.371948242188,0.236022949219,-0.8037109375,0.400024414062
28498976076,0.38134765625,0.232604980469,-0.797424316406,0.405700683594
28498993790,0.390625,0.228942871094,-0.791381835938,0.410766601562
28499013473,0.400146484375,0.224792480469,-0.785217285156,0.415588378906
28499035812,0.409851074219,0.220764160156,-0.778503417969,0.4208984375
28499053828,0.418884277344,0.217834472656,-0.771423339844,0.426513671875
28499073386,0.427612304688,0.215454101562,-0.764526367188,0.431518554688
28499095836,0.435852050781,0.212280273438,-0.758178710938,0.435974121094
28499113816,0.443969726562,0.208190917969,-0.752136230469,0.440246582031
28499133518,0.452026367188,0.204284667969,-0.745910644531,0.444458007812
28499155857,0.459289550781,0.19970703125,-0.739501953125,0.449768066406
28499173776,0.465576171875,0.194458007812,-0.733642578125,0.455200195312
28499193497,0.469970703125,0.186218261719,-0.729309082031,0.461059570312
28499223447,0.472229003906,0.171997070312,-0.727355957031,0.46728515625
28499233821,0.471740722656,0.154907226562,-0.727355957031,0.473754882812
28499254823,0.46826171875,0.13818359375,-0.728515625,0.48046875
28499276068,0.460876464844,0.124084472656,-0.731567382812,0.48681640625
28499293783,0.451843261719,0.111267089844,-0.736572265625,0.49072265625
28499314815,0.442504882812,0.0996704101562,-0.743041992188,0.492065429688
28499335962,0.433532714844,0.0894165039062,-0.750183105469,0.4912109375
28499353785,0.425476074219,0.0796508789062,-0.757751464844,0.48828125
28499374822,0.419372558594,0.0692749023438,-0.765502929688,0.483032226562
28499396004,0.414367675781,0.0592651367188,-0.773315429688,0.476196289062
28499413824,0.409851074219,0.0516357421875,-0.78076171875,0.46875
28499434795,0.404541015625,0.047119140625,-0.788269042969,0.461303710938
28499456049,0.398498535156,0.0460205078125,-0.796630859375,0.452209472656
28499473789,0.391052246094,0.0492553710938,-0.805725097656,0.442077636719
28499494823,0.384338378906,0.0534057617188,-0.814819335938,0.4306640625
28499515963,0.379455566406,0.054443359375,-0.823364257812,0.41845703125
28499533787,0.374145507812,0.0552978515625,-0.831481933594,0.406860351562
28499554822,0.367004394531,0.0579833984375,-0.839538574219,0.396362304688
28499575937,0.359924316406,0.0582885742188,-0.847229003906,0.386352539062
28499593801,0.354125976562,0.0578002929688,-0.854187011719,0.376281738281
28499614823,0.347961425781,0.0581665039062,-0.860473632812,0.367553710938
28499636058,0.340270996094,0.060546875,-0.866455078125,0.360229492188
28499652976,0.332153320312,0.0624389648438,-0.872436523438,0.352966308594
28499675223,0.326354980469,0.0624389648438,-0.877319335938,0.346313476562
28499696647,0.321716308594,0.0619506835938,-0.880798339844,0.341857910156
28499712943,0.315490722656,0.0639038085938,-0.884338378906,0.338073730469
28499735472,0.308227539062,0.0685424804688,-0.888305664062,0.33349609375
28499756656,0.303588867188,0.06787109375,-0.891967773438,0.328002929688
28499772947,0.299560546875,0.0668334960938,-0.894897460938,0.323913574219
28499795495,0.294982910156,0.0678100585938,-0.897766113281,0.320068359375
28499816545,0.288940429688,0.0706787109375,-0.901000976562,0.315795898438
28499832964,0.282958984375,0.072509765625,-0.904663085938,0.310363769531
28499855437,0.278930664062,0.072509765625,-0.907348632812,0.306091308594
28499876617,0.275207519531,0.07470703125,-0.909362792969,0.302856445312
28499892999,0.271301269531,0.0772094726562,-0.911437988281,0.299621582031
28499915446,0.266723632812,0.0796508789062,-0.913940429688,0.295349121094
28499936714,0.263244628906,0.0805053710938,-0.916809082031,0.289428710938
28499953007,0.261779785156,0.0774536132812,-0.918395996094,0.286376953125
28499975459,0.259460449219,0.0790405273438,-0.919494628906,0.284606933594
28499996536,0.255187988281,0.0830078125,-0.921142578125,0.281921386719
28500012980,0.250122070312,0.08642578125,-0.923278808594,0.278442382812
28500035463,0.24560546875,0.0880126953125,-0.925537109375,0.2744140625
28500056481,0.243469238281,0.0863037109375,-0.927124023438,0.271667480469
28500072965,0.2421875,0.0853271484375,-0.928039550781,0.269897460938
28500095530,0.239562988281,0.0869140625,-0.929016113281,0.268310546875
28500116632,0.236267089844,0.0886840820312,-0.930114746094,0.266906738281
28500132990,0.233581542969,0.0897827148438,-0.9306640625,0.267028808594
28500155435,0.231628417969,0.0894165039062,-0.930969238281,0.267822265625
28500176819,0.228881835938,0.0894165039062,-0.931823730469,0.26708984375
28500192991,0.226440429688,0.0875244140625,-0.932922363281,0.266052246094
28500215452,0.225708007812,0.0849609375,-0.933288574219,0.266052246094
28500236607,0.225219726562,0.0839233398438,-0.933349609375,0.2666015625
28500252912,0.224426269531,0.0847778320312,-0.933410644531,0.266906738281
28500275435,0.223815917969,0.0864868164062,-0.933166503906,0.267639160156
28500296629,0.223937988281,0.08740234375,-0.932800292969,0.268493652344
28500312962,0.224365234375,0.087646484375,-0.932495117188,0.269165039062
28500335468,0.224426269531,0.0877075195312,-0.932312011719,0.269714355469
28500356621,0.224426269531,0.0872192382812,-0.93212890625,0.270568847656
28500372949,0.224426269531,0.0867309570312,-0.931762695312,0.271789550781
28500395511,0.224792480469,0.0857543945312,-0.931396484375,0.273254394531
28500416903,0.225341796875,0.085205078125,-0.930847167969,0.274841308594
28500432916,0.225341796875,0.0856323242188,-0.930297851562,0.276489257812
28500455450,0.224670410156,0.0863037109375,-0.929931640625,0.278015136719
28500479373,0.223937988281,0.0863037109375,-0.929626464844,0.279663085938
28500492929,0.223510742188,0.0860595703125,-0.929138183594,0.281616210938
28500515442,0.22314453125,0.086181640625,-0.928466796875,0.284118652344
28500536260,0.221923828125,0.08740234375,-0.927795410156,0.287048339844
28500552270,0.219543457031,0.08984375,-0.927185058594,0.289855957031
28500575507,0.216369628906,0.0923461914062,-0.927062988281,0.291870117188
28500597978,0.212524414062,0.0939331054688,-0.927490234375,0.293029785156
28500612273,0.207336425781,0.0941772460938,-0.928466796875,0.293518066406
28500635448,0.20068359375,0.094482421875,-0.929626464844,0.294250488281
28500657995,0.192565917969,0.09423828125,-0.931091308594,0.295288085938
28500672349,0.183227539062,0.0945434570312,-0.932983398438,0.294982910156
28500695420,0.172912597656,0.095947265625,-0.935119628906,0.294006347656
28500717945,0.161987304688,0.0973510742188,-0.937072753906,0.293518066406
28500732264,0.151916503906,0.097412109375,-0.939086914062,0.292541503906
28500755432,0.142456054688,0.0958251953125,-0.941284179688,0.290771484375
28500777952,0.133239746094,0.0946655273438,-0.943725585938,0.287658691406
28500799135,0.123657226562,0.0941772460938,-0.946105957031,0.2841796875
28500822952,0.113525390625,0.0938720703125,-0.948181152344,0.281494140625
28500837923,0.103088378906,0.0927734375,-0.950256347656,0.278930664062
28500859048,0.0925903320312,0.0924072265625,-0.952270507812,0.27587890625
28500875515,0.0821533203125,0.0933227539062,-0.9541015625,0.2724609375
28500898019,0.071533203125,0.0946655273438,-0.955627441406,0.269653320312
28500919213,0.0612182617188,0.0935668945312,-0.95703125,0.267578125
28500935447,0.0516357421875,0.0923461914062,-0.958312988281,0.265502929688
28500957901,0.0429077148438,0.0919799804688,-0.959533691406,0.262817382812
28500979093,0.0347290039062,0.092041015625,-0.960510253906,0.26025390625
28500995460,0.0274658203125,0.0911254882812,-0.961303710938,0.258544921875
28501018067,0.0206909179688,0.0899047851562,-0.9619140625,0.257385253906
28501039107,0.0144653320312,0.0900268554688,-0.96240234375,0.255859375
28501055418,0.00872802734375,0.0907592773438,-0.962890625,0.254150390625
28501077925,0.0028076171875,0.0928344726562,-0.963012695312,0.252990722656
28501099110,-0.0029296875,0.0939331054688,-0.963012695312,0.252685546875
28501115468,-0.00799560546875,0.0935668945312,-0.963012695312,0.252746582031
28501137954,-0.01220703125,0.0931396484375,-0.963134765625,0.252197265625
28501159138,-0.0159912109375,0.0928955078125,-0.96337890625,0.251098632812
28501175956,-0.0198974609375,0.0927124023438,-0.963562011719,0.250122070312
28501197927,-0.0235595703125,0.092041015625,-0.963745117188,0.249450683594
28501219102,-0.0266723632812,0.0911865234375,-0.963928222656,0.248840332031
28501235423,-0.0293579101562,0.0909423828125,-0.964111328125,0.247680664062
28501257913,-0.0321044921875,0.091796875,-0.96435546875,0.246215820312
28501278989,-0.0350341796875,0.0933227539062,-0.964416503906,0.244995117188
28501302937,-0.037841796875,0.0945434570312,-0.964416503906,0.244018554688
28501317716,-0.0403442382812,0.095703125,-0.964416503906,0.2431640625
28501339010,-0.0415649414062,0.0955810546875,-0.964782714844,0.241516113281
28501355415,-0.0438232421875,0.0961303710938,-0.965270996094,0.239013671875
28501378363,-0.0464477539062,0.0980224609375,-0.965270996094,0.237854003906
28501398960,-0.048583984375,0.1015625,-0.965026855469,0.236877441406
28501414728,-0.0497436523438,0.10498046875,-0.964782714844,0.236083984375
28501437924,-0.0502319335938,0.106811523438,-0.964660644531,0.235595703125
28501458955,-0.0504760742188,0.108032226562,-0.964599609375,0.235290527344
28501474747,-0.0513305664062,0.109985351562,-0.964477539062,0.234741210938
28501497982,-0.052978515625,0.112426757812,-0.96435546875,0.233703613281
28501518957,-0.0548095703125,0.114318847656,-0.964294433594,0.232666015625
28501535403,-0.0567016601562,0.116394042969,-0.964172363281,0.231567382812
28501557903,-0.057861328125,0.117492675781,-0.964172363281,0.230651855469
28501580892,-0.0578002929688,0.117431640625,-0.963989257812,0.231506347656
28501595404,-0.0575561523438,0.11767578125,-0.963745117188,0.232421875
28501617971,-0.0571899414062,0.118957519531,-0.963439941406,0.233154296875
28501640430,-0.057373046875,0.121520996094,-0.963012695312,0.233703613281
28501655920,-0.0577392578125,0.124389648438,-0.962463378906,0.234375
28501685445,-0.0585327148438,0.127197265625,-0.961853027344,0.235046386719
28501700422,-0.0595092773438,0.130004882812,-0.961242675781,0.235778808594
28501714711,-0.0604248046875,0.132751464844,-0.960632324219,0.236450195312
28501737932,-0.0609741210938,0.135559082031,-0.960083007812,0.237121582031
28501760453,-0.0608520507812,0.138488769531,-0.95947265625,0.237976074219
